ECG
384.521484375
379.94384765625
369.873046875
362.548828125
341.49169921875
332.33642578125
310.36376953125
295.71533203125
272.8271484375
249.0234375
227.96630859375
205.99365234375
185.85205078125
166.6259765625
148.3154296875
127.25830078125
105.28564453125
86.97509765625
65.00244140625
51.26953125
35.70556640625
21.97265625
8.23974609375
-5.4931640625
-17.39501953125
-29.296875
-41.19873046875
-49.4384765625
-56.7626953125
-60.4248046875
-60.4248046875
-72.32666015625
-77.81982421875
-76.904296875
-79.65087890625
-76.904296875
-83.31298828125
-81.48193359375
-86.0595703125
-83.31298828125
-86.97509765625
-87.890625
-83.31298828125
-84.228515625
-84.228515625
-83.31298828125
-84.228515625
-83.31298828125
-79.65087890625
-75.98876953125
-76.904296875
-74.15771484375
-73.2421875
-69.580078125
-75.98876953125
-76.904296875
-76.904296875
-71.4111328125
-61.34033203125
-65.91796875
-63.17138671875
-67.7490234375
-65.00244140625
-61.34033203125
-60.4248046875
-60.4248046875
-62.255859375
-56.7626953125
-52.18505859375
-47.607421875
-45.7763671875
-51.26953125
-49.4384765625
-49.4384765625
-46.69189453125
-37.53662109375
-40.283203125
-39.36767578125
-36.62109375
-40.283203125
-35.70556640625
-38.4521484375
-39.36767578125
-33.87451171875
-31.1279296875
-32.958984375
-35.70556640625
-34.7900390625
-32.04345703125
-32.04345703125
-30.21240234375
-31.1279296875
-29.296875
-32.958984375
-29.296875
-31.1279296875
-28.38134765625
-26.55029296875
-27.4658203125
-22.88818359375
-26.55029296875
-26.55029296875
-24.71923828125
-21.05712890625
-19.22607421875
-21.97265625
-19.22607421875
-21.97265625
-24.71923828125
-18.310546875
-21.05712890625
-16.4794921875
-17.39501953125
-18.310546875
-15.56396484375
-15.56396484375
-14.6484375
-18.310546875
-10.07080078125
-13.73291015625
-10.986328125
-12.8173828125
-11.90185546875
-11.90185546875
-10.986328125
-12.8173828125
-9.1552734375
-10.07080078125
-9.1552734375
-7.32421875
-5.4931640625
-6.40869140625
-10.986328125
-6.40869140625
-4.57763671875
-5.4931640625
-4.57763671875
-7.32421875
0
1.8310546875
0
1.8310546875
0.91552734375
2.74658203125
5.4931640625
4.57763671875
3.662109375
2.74658203125
0.91552734375
4.57763671875
5.4931640625
5.4931640625
9.1552734375
10.986328125
8.23974609375
4.57763671875
10.07080078125
10.07080078125
16.4794921875
14.6484375
12.8173828125
15.56396484375
11.90185546875
14.6484375
16.4794921875
14.6484375
9.1552734375
10.07080078125
17.39501953125
19.22607421875
22.88818359375
21.97265625
17.39501953125
18.310546875
24.71923828125
23.8037109375
24.71923828125
24.71923828125
23.8037109375
24.71923828125
28.38134765625
31.1279296875
27.4658203125
30.21240234375
32.958984375
32.04345703125
34.7900390625
36.62109375
34.7900390625
33.87451171875
36.62109375
31.1279296875
34.7900390625
36.62109375
36.62109375
36.62109375
37.53662109375
42.1142578125
43.02978515625
46.69189453125
44.86083984375
44.86083984375
45.7763671875
44.86083984375
52.18505859375
50.35400390625
48.52294921875
50.35400390625
54.01611328125
50.35400390625
51.26953125
52.18505859375
53.1005859375
58.59375
61.34033203125
62.255859375
61.34033203125
61.34033203125
57.67822265625
57.67822265625
54.01611328125
57.67822265625
63.17138671875
65.00244140625
64.0869140625
66.83349609375
65.91796875
64.0869140625
63.17138671875
66.83349609375
69.580078125
72.32666015625
74.15771484375
71.4111328125
72.32666015625
74.15771484375
66.83349609375
69.580078125
75.0732421875
75.0732421875
69.580078125
71.4111328125
77.81982421875
79.65087890625
77.81982421875
81.48193359375
80.56640625
79.65087890625
80.56640625
81.48193359375
83.31298828125
83.31298828125
82.3974609375
81.48193359375
83.31298828125
86.97509765625
84.228515625
84.228515625
83.31298828125
82.3974609375
82.3974609375
86.0595703125
86.0595703125
90.63720703125
86.97509765625
88.80615234375
92.46826171875
90.63720703125
91.552734375
92.46826171875
92.46826171875
91.552734375
94.29931640625
91.552734375
97.0458984375
95.21484375
96.13037109375
97.0458984375
97.0458984375
94.29931640625
97.0458984375
100.7080078125
106.201171875
104.3701171875
104.3701171875
100.7080078125
105.28564453125
111.6943359375
116.27197265625
114.44091796875
116.27197265625
116.27197265625
118.10302734375
130.92041015625
134.58251953125
132.75146484375
131.8359375
129.08935546875
128.173828125
126.3427734375
127.25830078125
130.0048828125
127.25830078125
123.59619140625
132.75146484375
140.9912109375
140.07568359375
146.484375
147.39990234375
141.90673828125
142.822265625
145.56884765625
158.38623046875
155.6396484375
151.9775390625
148.3154296875
137.3291015625
137.3291015625
137.3291015625
134.58251953125
140.07568359375
143.73779296875
137.3291015625
138.24462890625
136.41357421875
125.42724609375
130.0048828125
142.822265625
133.6669921875
122.6806640625
118.10302734375
114.44091796875
108.0322265625
109.86328125
113.525390625
114.44091796875
112.60986328125
115.3564453125
115.3564453125
116.27197265625
119.0185546875
116.27197265625
121.76513671875
119.93408203125
122.6806640625
129.08935546875
126.3427734375
127.25830078125
130.0048828125
135.498046875
136.41357421875
140.9912109375
140.07568359375
136.41357421875
122.6806640625
103.45458984375
91.552734375
117.1875
142.822265625
213.31787109375
323.18115234375
460.51025390625
583.19091796875
715.02685546875
866.0888671875
1037.29248046875
1199.3408203125
1333.92333984375
1448.3642578125
1517.9443359375
1522.52197265625
1456.60400390625
1333.92333984375
1114.19677734375
924.6826171875
812.98828125
705.87158203125
620.7275390625
550.23193359375
497.13134765625
450.439453125
406.494140625
388.18359375
377.197265625
347.900390625
316.7724609375
295.71533203125
299.37744140625
314.94140625
321.35009765625
321.35009765625
314.94140625
304.87060546875
294.7998046875
283.8134765625
273.74267578125
268.24951171875
260.009765625
258.1787109375
266.41845703125
259.09423828125
251.77001953125
252.685546875
257.26318359375
252.685546875
248.10791015625
251.77001953125
252.685546875
254.5166015625
254.5166015625
251.77001953125
255.43212890625
258.1787109375
264.58740234375
261.8408203125
266.41845703125
262.75634765625
266.41845703125
265.5029296875
270.08056640625
271.91162109375
274.658203125
277.40478515625
281.982421875
284.72900390625
284.72900390625
286.56005859375
291.1376953125
292.96875
291.1376953125
290.22216796875
298.4619140625
303.03955078125
300.29296875
312.19482421875
311.279296875
313.1103515625
321.35009765625
321.35009765625
321.35009765625
324.0966796875
328.67431640625
331.4208984375
338.7451171875
342.4072265625
341.49169921875
343.32275390625
349.7314453125
357.97119140625
361.63330078125
366.2109375
369.873046875
379.94384765625
381.77490234375
382.6904296875
390.93017578125
395.5078125
399.169921875
403.74755859375
406.494140625
412.90283203125
415.6494140625
422.05810546875
432.12890625
439.453125
442.19970703125
447.69287109375
456.84814453125
464.17236328125
472.412109375
476.98974609375
487.97607421875
494.384765625
501.708984375
512.6953125
517.27294921875
527.34375
541.07666015625
550.23193359375
556.640625
567.626953125
574.951171875
585.9375
598.7548828125
606.0791015625
614.31884765625
621.64306640625
635.3759765625
643.61572265625
650.0244140625
663.75732421875
667.41943359375
672.91259765625
682.9833984375
692.138671875
693.9697265625
697.6318359375
702.20947265625
703.125
699.462890625
691.22314453125
686.6455078125
683.89892578125
669.25048828125
655.517578125
647.27783203125
626.220703125
606.99462890625
588.68408203125
566.71142578125
544.73876953125
524.59716796875
503.5400390625
476.98974609375
451.35498046875
427.55126953125
406.494140625
390.93017578125
365.29541015625
345.15380859375
329.58984375
310.36376953125
295.71533203125
286.56005859375
267.333984375
254.5166015625
245.361328125
236.2060546875
226.13525390625
219.7265625
206.9091796875
203.2470703125
196.83837890625
190.4296875
187.68310546875
186.767578125
177.6123046875
173.03466796875
177.6123046875
175.78125
168.45703125
165.71044921875
167.54150390625
168.45703125
173.03466796875
163.87939453125
160.21728515625
164.794921875
168.45703125
163.87939453125
169.37255859375
167.54150390625
165.71044921875
167.54150390625
166.6259765625
168.45703125
163.87939453125
157.470703125
162.04833984375
165.71044921875
168.45703125
162.04833984375
163.87939453125
162.9638671875
161.1328125
164.794921875
165.71044921875
162.04833984375
162.9638671875
162.04833984375
166.6259765625
168.45703125
166.6259765625
166.6259765625
166.6259765625
164.794921875
163.87939453125
167.54150390625
166.6259765625
163.87939453125
164.794921875
167.54150390625
169.37255859375
170.2880859375
171.20361328125
167.54150390625
164.794921875
169.37255859375
170.2880859375
164.794921875
169.37255859375
167.54150390625
163.87939453125
166.6259765625
168.45703125
162.9638671875
159.3017578125
159.3017578125
164.794921875
167.54150390625
169.37255859375
165.71044921875
162.04833984375
164.794921875
161.1328125
158.38623046875
160.21728515625
160.21728515625
161.1328125
159.3017578125
160.21728515625
159.3017578125
157.470703125
158.38623046875
155.6396484375
161.1328125
156.55517578125
157.470703125
158.38623046875
157.470703125
152.89306640625
150.146484375
152.89306640625
151.06201171875
151.9775390625
151.06201171875
148.3154296875
145.56884765625
142.822265625
147.39990234375
147.39990234375
146.484375
146.484375
151.06201171875
147.39990234375
145.56884765625
140.9912109375
140.07568359375
140.9912109375
143.73779296875
140.07568359375
137.3291015625
144.6533203125
143.73779296875
140.07568359375
145.56884765625
138.24462890625
140.07568359375
142.822265625
142.822265625
141.90673828125
136.41357421875
135.498046875
138.24462890625
138.24462890625
136.41357421875
130.0048828125
128.173828125
126.3427734375
130.0048828125
130.92041015625
129.08935546875
122.6806640625
130.0048828125
132.75146484375
131.8359375
130.92041015625
127.25830078125
126.3427734375
126.3427734375
129.08935546875
128.173828125
123.59619140625
128.173828125
127.25830078125
129.08935546875
125.42724609375
128.173828125
131.8359375
130.0048828125
125.42724609375
128.173828125
129.08935546875
125.42724609375
130.0048828125
131.8359375
129.08935546875
123.59619140625
130.0048828125
129.08935546875
125.42724609375
125.42724609375
127.25830078125
128.173828125
122.6806640625
122.6806640625
121.76513671875
126.3427734375
125.42724609375
122.6806640625
124.51171875
125.42724609375
122.6806640625
122.6806640625
123.59619140625
121.76513671875
124.51171875
123.59619140625
117.1875
119.93408203125
119.0185546875
120.849609375
120.849609375
121.76513671875
122.6806640625
120.849609375
121.76513671875
122.6806640625
118.10302734375
116.27197265625
114.44091796875
116.27197265625
114.44091796875
114.44091796875
118.10302734375
119.0185546875
121.76513671875
124.51171875
123.59619140625
119.0185546875
119.93408203125
117.1875
115.3564453125
117.1875
118.10302734375
119.93408203125
117.1875
112.60986328125
110.77880859375
113.525390625
114.44091796875
118.10302734375
118.10302734375
117.1875
115.3564453125
114.44091796875
117.1875
119.0185546875
119.93408203125
119.0185546875
117.1875
114.44091796875
115.3564453125
114.44091796875
114.44091796875
117.1875
119.0185546875
117.1875
118.10302734375
118.10302734375
112.60986328125
110.77880859375
112.60986328125
111.6943359375
115.3564453125
109.86328125
108.94775390625
111.6943359375
114.44091796875
109.86328125
114.44091796875
108.0322265625
110.77880859375
115.3564453125
110.77880859375
110.77880859375
108.94775390625
108.0322265625
110.77880859375
108.0322265625
104.3701171875
108.0322265625
108.0322265625
107.11669921875
105.28564453125
109.86328125
114.44091796875
112.60986328125
110.77880859375
109.86328125
109.86328125
109.86328125
114.44091796875
112.60986328125
115.3564453125
119.93408203125
111.6943359375
113.525390625
121.76513671875
123.59619140625
125.42724609375
124.51171875
123.59619140625
133.6669921875
124.51171875
119.0185546875
120.849609375
125.42724609375
126.3427734375
120.849609375
128.173828125
136.41357421875
136.41357421875
133.6669921875
129.08935546875
119.93408203125
129.08935546875
142.822265625
140.9912109375
136.41357421875
134.58251953125
132.75146484375
130.0048828125
129.08935546875
120.849609375
126.3427734375
126.3427734375
118.10302734375
114.44091796875
112.60986328125
108.94775390625
105.28564453125
112.60986328125
110.77880859375
104.3701171875
96.13037109375
86.0595703125
83.31298828125
86.0595703125
83.31298828125
85.14404296875
78.7353515625
83.31298828125
87.890625
86.97509765625
83.31298828125
86.97509765625
90.63720703125
89.7216796875
88.80615234375
95.21484375
92.46826171875
97.96142578125
96.13037109375
97.96142578125
96.13037109375
98.876953125
98.876953125
97.96142578125
93.3837890625
81.48193359375
57.67822265625
45.7763671875
68.66455078125
104.3701171875
173.03466796875
286.56005859375
421.142578125
538.330078125
671.08154296875
827.63671875
992.431640625
1155.3955078125
1287.2314453125
1404.4189453125
1469.42138671875
1472.16796875
1409.912109375
1283.5693359375
1057.43408203125
864.2578125
754.39453125
653.6865234375
561.21826171875
494.384765625
437.6220703125
390.0146484375
350.64697265625
335.0830078125
320.4345703125
282.89794921875
249.93896484375
233.45947265625
238.95263671875
255.43212890625
262.75634765625
259.09423828125
254.5166015625
247.1923828125
235.29052734375
223.388671875
213.31787109375
202.33154296875
199.5849609375
201.416015625
189.51416015625
192.2607421875
190.4296875
189.51416015625
186.767578125
183.10546875
176.69677734375
177.6123046875
183.10546875
184.9365234375
184.9365234375
187.68310546875
186.767578125
185.85205078125
188.5986328125
192.2607421875
189.51416015625
192.2607421875
194.091796875
195.00732421875
190.4296875
194.091796875
199.5849609375
199.5849609375
203.2470703125
199.5849609375
204.16259765625
205.078125
210.5712890625
208.740234375
215.14892578125
213.31787109375
214.2333984375
220.64208984375
222.47314453125
224.30419921875
231.62841796875
236.2060546875
235.29052734375
238.037109375
246.27685546875
248.10791015625
249.0234375
251.77001953125
255.43212890625
259.09423828125
260.92529296875
260.009765625
264.58740234375
270.99609375
275.57373046875
276.4892578125
272.8271484375
279.23583984375
289.306640625
291.1376953125
294.7998046875
296.630859375
304.87060546875
307.6171875
311.279296875
316.7724609375
320.4345703125
325.01220703125
329.58984375
334.16748046875
343.32275390625
346.0693359375
355.224609375
360.7177734375
365.29541015625
370.78857421875
383.60595703125
389.09912109375
391.845703125
401.0009765625
412.90283203125
420.22705078125
430.2978515625
440.36865234375
444.03076171875
453.18603515625
465.087890625
473.32763671875
481.5673828125
493.46923828125
498.96240234375
507.2021484375
521.8505859375
529.1748046875
538.330078125
544.73876953125
555.72509765625
565.7958984375
567.626953125
576.7822265625
578.61328125
579.52880859375
586.85302734375
587.7685546875
587.7685546875
576.7822265625
571.2890625
564.88037109375
553.89404296875
538.330078125
524.59716796875
510.8642578125
489.80712890625
469.66552734375
447.69287109375
425.72021484375
402.83203125
377.197265625
353.3935546875
333.251953125
311.279296875
289.306640625
269.1650390625
246.27685546875
226.13525390625
211.48681640625
189.51416015625
168.45703125
151.06201171875
140.9912109375
130.0048828125
116.27197265625
110.77880859375
99.79248046875
85.14404296875
84.228515625
75.0732421875
65.91796875
60.4248046875
57.67822265625
52.18505859375
51.26953125
49.4384765625
41.19873046875
41.19873046875
43.02978515625
37.53662109375
34.7900390625
37.53662109375
31.1279296875
34.7900390625
35.70556640625
31.1279296875
32.958984375
30.21240234375
28.38134765625
29.296875
30.21240234375
30.21240234375
29.296875
28.38134765625
26.55029296875
26.55029296875
26.55029296875
24.71923828125
26.55029296875
26.55029296875
21.97265625
22.88818359375
29.296875
22.88818359375
22.88818359375
29.296875
24.71923828125
24.71923828125
23.8037109375
25.634765625
24.71923828125
23.8037109375
23.8037109375
18.310546875
20.1416015625
24.71923828125
25.634765625
22.88818359375
20.1416015625
20.1416015625
20.1416015625
21.05712890625
21.05712890625
21.05712890625
19.22607421875
21.97265625
24.71923828125
18.310546875
18.310546875
15.56396484375
10.986328125
16.4794921875
11.90185546875
11.90185546875
12.8173828125
7.32421875
3.662109375
4.57763671875
4.57763671875
8.23974609375
7.32421875
5.4931640625
4.57763671875
6.40869140625
4.57763671875
3.662109375
-1.8310546875
-2.74658203125
-2.74658203125
-0.91552734375
-2.74658203125
-5.4931640625
-7.32421875
-8.23974609375
-4.57763671875
-7.32421875
-8.23974609375
-8.23974609375
-13.73291015625
-16.4794921875
-17.39501953125
-12.8173828125
-17.39501953125
-19.22607421875
-18.310546875
-18.310546875
-17.39501953125
-19.22607421875
-21.97265625
-24.71923828125
-21.05712890625
-22.88818359375
-21.97265625
-23.8037109375
-26.55029296875
-29.296875
-26.55029296875
-26.55029296875
-32.04345703125
-30.21240234375
-29.296875
-32.958984375
-35.70556640625
-32.958984375
-35.70556640625
-33.87451171875
-34.7900390625
-36.62109375
-38.4521484375
-35.70556640625
-38.4521484375
-43.02978515625
-38.4521484375
-38.4521484375
-41.19873046875
-41.19873046875
-40.283203125
-44.86083984375
-43.9453125
-39.36767578125
-39.36767578125
-43.02978515625
-41.19873046875
-43.02978515625
-42.1142578125
-47.607421875
-47.607421875
-45.7763671875
-49.4384765625
-48.52294921875
-44.86083984375
-48.52294921875
-50.35400390625
-53.1005859375
-54.931640625
-51.26953125
-47.607421875
-54.931640625
-53.1005859375
-50.35400390625
-50.35400390625
-53.1005859375
-55.84716796875
-58.59375
-57.67822265625
-57.67822265625
-58.59375
-54.01611328125
-54.01611328125
-56.7626953125
-57.67822265625
-56.7626953125
-60.4248046875
-59.50927734375
-55.84716796875
-59.50927734375
-54.01611328125
-57.67822265625
-59.50927734375
-59.50927734375
-57.67822265625
-63.17138671875
-62.255859375
-62.255859375
-65.00244140625
-61.34033203125
-64.0869140625
-64.0869140625
-66.83349609375
-65.91796875
-70.49560546875
-66.83349609375
-67.7490234375
-68.66455078125
-69.580078125
-72.32666015625
-70.49560546875
-71.4111328125
-72.32666015625
-68.66455078125
-72.32666015625
-75.98876953125
-71.4111328125
-73.2421875
-73.2421875
-73.2421875
-75.0732421875
-72.32666015625
-75.98876953125
-78.7353515625
-75.98876953125
-72.32666015625
-74.15771484375
-76.904296875
-77.81982421875
-73.2421875
-74.15771484375
-79.65087890625
-78.7353515625
-79.65087890625
-76.904296875
-80.56640625
-76.904296875
-80.56640625
-81.48193359375
-77.81982421875
-81.48193359375
-81.48193359375
-81.48193359375
-84.228515625
-83.31298828125
-82.3974609375
-84.228515625
-87.890625
-86.97509765625
-85.14404296875
-89.7216796875
-88.80615234375
-91.552734375
-86.0595703125
-87.890625
-89.7216796875
-87.890625
-89.7216796875
-89.7216796875
-86.0595703125
-89.7216796875
-94.29931640625
-93.3837890625
-93.3837890625
-90.63720703125
-94.29931640625
-98.876953125
-96.13037109375
-95.21484375
-90.63720703125
-102.5390625
-99.79248046875
-97.96142578125
-93.3837890625
-92.46826171875
-97.0458984375
-92.46826171875
-97.96142578125
-96.13037109375
-97.0458984375
-96.13037109375
-92.46826171875
-90.63720703125
-93.3837890625
-94.29931640625
-94.29931640625
-95.21484375
-90.63720703125
-91.552734375
-96.13037109375
-87.890625
-86.97509765625
-86.97509765625
-94.29931640625
-92.46826171875
-86.0595703125
-87.890625
-85.14404296875
-81.48193359375
-79.65087890625
-83.31298828125
-86.97509765625
-89.7216796875
-84.228515625
-80.56640625
-79.65087890625
-85.14404296875
-78.7353515625
-74.15771484375
-65.91796875
-73.2421875
-79.65087890625
-80.56640625
-65.00244140625
-66.83349609375
-71.4111328125
-74.15771484375
-78.7353515625
-83.31298828125
-79.65087890625
-85.14404296875
-82.3974609375
-84.228515625
-86.0595703125
-92.46826171875
-90.63720703125
-99.79248046875
-99.79248046875
-97.96142578125
-97.0458984375
-108.0322265625
-111.6943359375
-122.6806640625
-125.42724609375
-125.42724609375
-125.42724609375
-121.76513671875
-124.51171875
-123.59619140625
-127.25830078125
-119.93408203125
-123.59619140625
-121.76513671875
-119.0185546875
-121.76513671875
-121.76513671875
-118.10302734375
-117.1875
-118.10302734375
-119.93408203125
-116.27197265625
-116.27197265625
-112.60986328125
-112.60986328125
-116.27197265625
-117.1875
-126.3427734375
-146.484375
-160.21728515625
-140.07568359375
-104.3701171875
-36.62109375
74.15771484375
205.078125
326.84326171875
461.42578125
615.234375
778.1982421875
940.24658203125
1069.3359375
1186.5234375
1248.779296875
1249.69482421875
1192.93212890625
1043.701171875
804.74853515625
606.99462890625
489.80712890625
385.43701171875
295.71533203125
238.037109375
194.091796875
152.89306640625
118.10302734375
98.876953125
85.14404296875
57.67822265625
32.958984375
16.4794921875
10.986328125
21.97265625
37.53662109375
41.19873046875
39.36767578125
33.87451171875
26.55029296875
17.39501953125
1.8310546875
-3.662109375
-10.986328125
-12.8173828125
-14.6484375
-17.39501953125
-18.310546875
-22.88818359375
-25.634765625
-26.55029296875
-21.97265625
-14.6484375
-20.1416015625
-22.88818359375
-19.22607421875
-23.8037109375
-24.71923828125
-16.4794921875
-19.22607421875
-18.310546875
-18.310546875
-14.6484375
-15.56396484375
-14.6484375
-13.73291015625
-15.56396484375
-12.8173828125
-7.32421875
-5.4931640625
0
-2.74658203125
0.91552734375
-0.91552734375
0.91552734375
4.57763671875
7.32421875
8.23974609375
13.73291015625
18.310546875
17.39501953125
20.1416015625
21.97265625
25.634765625
27.4658203125
33.87451171875
31.1279296875
38.4521484375
40.283203125
42.1142578125
44.86083984375
45.7763671875
49.4384765625
50.35400390625
58.59375
60.4248046875
61.34033203125
65.91796875
74.15771484375
76.904296875
75.98876953125
83.31298828125
86.0595703125
91.552734375
97.0458984375
102.5390625
106.201171875
110.77880859375
115.3564453125
121.76513671875
126.3427734375
130.92041015625
134.58251953125
139.16015625
151.06201171875
155.6396484375
160.21728515625
163.87939453125
173.9501953125
179.443359375
190.4296875
195.00732421875
206.9091796875
217.8955078125
223.388671875
236.2060546875
239.8681640625
251.77001953125
260.92529296875
271.91162109375
278.3203125
284.72900390625
293.88427734375
303.03955078125
318.603515625
326.84326171875
335.99853515625
344.23828125
352.47802734375
360.7177734375
367.12646484375
368.0419921875
369.873046875
378.11279296875
379.94384765625
373.53515625
371.7041015625
361.63330078125
358.88671875
346.98486328125
331.4208984375
316.7724609375
296.630859375
277.40478515625
262.75634765625
246.27685546875
229.79736328125
204.16259765625
182.18994140625
157.470703125
130.0048828125
105.28564453125
88.80615234375
66.83349609375
46.69189453125
27.4658203125
4.57763671875
-12.8173828125
-25.634765625
-43.9453125
-56.7626953125
-67.7490234375
-79.65087890625
-97.96142578125
-106.201171875
-108.94775390625
-118.10302734375
-126.3427734375
-132.75146484375
-136.41357421875
-140.9912109375
-149.23095703125
-153.80859375
-150.146484375
-156.55517578125
-156.55517578125
-161.1328125
-159.3017578125
-162.9638671875
-163.87939453125
-165.71044921875
-170.2880859375
-170.2880859375
-171.20361328125
-169.37255859375
-173.9501953125
-169.37255859375
-171.20361328125
-172.119140625
-171.20361328125
-169.37255859375
-173.9501953125
-172.119140625
-170.2880859375
-166.6259765625
-173.03466796875
-169.37255859375
-172.119140625
-166.6259765625
-171.20361328125
-172.119140625
-172.119140625
-176.69677734375
-172.119140625
-170.2880859375
-170.2880859375
-172.119140625
-173.9501953125
-172.119140625
-175.78125
-172.119140625
-173.03466796875
-170.2880859375
-173.9501953125
-173.9501953125
-171.20361328125
-175.78125
-173.9501953125
-178.52783203125
-170.2880859375
-173.03466796875
-177.6123046875
-177.6123046875
-179.443359375
-180.35888671875
-183.10546875
-178.52783203125
-182.18994140625
-183.10546875
-185.85205078125
-184.9365234375
-184.02099609375
-188.5986328125
-187.68310546875
-184.9365234375
-188.5986328125
-188.5986328125
-188.5986328125
-184.9365234375
-190.4296875
-189.51416015625
-188.5986328125
-186.767578125
-188.5986328125
-195.00732421875
-198.66943359375
-195.00732421875
-201.416015625
-195.00732421875
-195.00732421875
-194.091796875
-198.66943359375
-197.75390625
-198.66943359375
-199.5849609375
-200.50048828125
-205.99365234375
-204.16259765625
-200.50048828125
-205.078125
-205.078125
-205.99365234375
-205.99365234375
-206.9091796875
-211.48681640625
-209.65576171875
-212.40234375
-210.5712890625
-216.97998046875
-212.40234375
-216.97998046875
-216.97998046875
-216.064453125
-215.14892578125
-220.64208984375
-221.5576171875
-220.64208984375
-216.064453125
-216.064453125
-219.7265625
-221.5576171875
-223.388671875
-222.47314453125
-223.388671875
-229.79736328125
-225.2197265625
-220.64208984375
-221.5576171875
-223.388671875
-225.2197265625
-228.8818359375
-225.2197265625
-226.13525390625
-226.13525390625
-224.30419921875
-226.13525390625
-225.2197265625
-228.8818359375
-228.8818359375
-230.712890625
-236.2060546875
-230.712890625
-231.62841796875
-229.79736328125
-232.5439453125
-233.45947265625
-230.712890625
-236.2060546875
-230.712890625
-233.45947265625
-233.45947265625
-232.5439453125
-237.12158203125
-236.2060546875
-235.29052734375
-236.2060546875
-238.037109375
-236.2060546875
-240.78369140625
-232.5439453125
-237.12158203125
-240.78369140625
-242.61474609375
-235.29052734375
-238.95263671875
-238.037109375
-238.95263671875
-241.69921875
-238.037109375
-236.2060546875
-238.95263671875
-238.95263671875
-241.69921875
-238.95263671875
-242.61474609375
-241.69921875
-239.8681640625
-238.037109375
-238.95263671875
-239.8681640625
-239.8681640625
-238.95263671875
-248.10791015625
-240.78369140625
-241.69921875
-242.61474609375
-244.44580078125
-241.69921875
-242.61474609375
-242.61474609375
-244.44580078125
-246.27685546875
-249.0234375
-248.10791015625
-249.0234375
-244.44580078125
-249.0234375
-246.27685546875
-248.10791015625
-248.10791015625
-248.10791015625
-249.0234375
-246.27685546875
-250.8544921875
-248.10791015625
-251.77001953125
-249.0234375
-248.10791015625
-247.1923828125
-252.685546875
-251.77001953125
-247.1923828125
-248.10791015625
-247.1923828125
-252.685546875
-250.8544921875
-252.685546875
-254.5166015625
-253.60107421875
-255.43212890625
-251.77001953125
-255.43212890625
-252.685546875
-256.34765625
-253.60107421875
-253.60107421875
-255.43212890625
-258.1787109375
-255.43212890625
-252.685546875
-256.34765625
-257.26318359375
-255.43212890625
-259.09423828125
-256.34765625
-256.34765625
-257.26318359375
-258.1787109375
-257.26318359375
-256.34765625
-261.8408203125
-259.09423828125
-259.09423828125
-258.1787109375
-258.1787109375
-260.009765625
-261.8408203125
-260.92529296875
-262.75634765625
-260.009765625
-266.41845703125
-264.58740234375
-266.41845703125
-266.41845703125
-263.671875
-269.1650390625
-269.1650390625
-264.58740234375
-266.41845703125
-263.671875
-264.58740234375
-265.5029296875
-272.8271484375
-266.41845703125
-261.8408203125
-266.41845703125
-269.1650390625
-260.92529296875
-260.009765625
-259.09423828125
-259.09423828125
-258.1787109375
-261.8408203125
-256.34765625
-258.1787109375
-257.26318359375
-260.009765625
-257.26318359375
-261.8408203125
-255.43212890625
-256.34765625
-255.43212890625
-251.77001953125
-250.8544921875
-247.1923828125
-249.93896484375
-257.26318359375
-252.685546875
-247.1923828125
-251.77001953125
-250.8544921875
-245.361328125
-236.2060546875
-237.12158203125
-241.69921875
-247.1923828125
-249.93896484375
-240.78369140625
-227.05078125
-235.29052734375
-242.61474609375
-244.44580078125
-244.44580078125
-250.8544921875
-245.361328125
-249.0234375
-244.44580078125
-249.0234375
-252.685546875
-252.685546875
-254.5166015625
-266.41845703125
-262.75634765625
-258.1787109375
-266.41845703125
-278.3203125
-282.89794921875
-287.4755859375
-291.1376953125
-286.56005859375
-285.64453125
-291.1376953125
-288.39111328125
-286.56005859375
-291.1376953125
-289.306640625
-287.4755859375
-286.56005859375
-284.72900390625
-284.72900390625
-278.3203125
-280.1513671875
-279.23583984375
-279.23583984375
-277.40478515625
-270.08056640625
-275.57373046875
-272.8271484375
-269.1650390625
-276.4892578125
-285.64453125
-307.6171875
-334.16748046875
-315.85693359375
-282.89794921875
-238.95263671875
-141.90673828125
-21.97265625
112.60986328125
234.375
378.11279296875
539.24560546875
704.9560546875
856.01806640625
979.6142578125
1075.74462890625
1107.7880859375
1071.1669921875
976.86767578125
800.1708984375
573.1201171875
437.6220703125
335.0830078125
230.712890625
159.3017578125
95.21484375
43.02978515625
0
-26.55029296875
-45.7763671875
-63.17138671875
-97.0458984375
-127.25830078125
-135.498046875
-120.849609375
-108.94775390625
-107.11669921875
-111.6943359375
-118.10302734375
-134.58251953125
-143.73779296875
-151.06201171875
-162.04833984375
-169.37255859375
-173.9501953125
-177.6123046875
-179.443359375
-183.10546875
-180.35888671875
-184.9365234375
-183.10546875
-186.767578125
-188.5986328125
-186.767578125
-184.9365234375
-185.85205078125
-186.767578125
-186.767578125
-193.17626953125
-184.9365234375
-183.10546875
-182.18994140625
-179.443359375
-175.78125
-173.03466796875
-173.03466796875
-172.119140625
-172.119140625
-166.6259765625
-163.87939453125
-161.1328125
-161.1328125
-153.80859375
-153.80859375
-156.55517578125
-156.55517578125
-152.89306640625
-150.146484375
-143.73779296875
-144.6533203125
-137.3291015625
-139.16015625
-133.6669921875
-129.08935546875
-125.42724609375
-121.76513671875
-119.0185546875
-118.10302734375
-109.86328125
-112.60986328125
-110.77880859375
-105.28564453125
-102.5390625
-100.7080078125
-96.13037109375
-93.3837890625
-92.46826171875
-87.890625
-80.56640625
-74.15771484375
-70.49560546875
-66.83349609375
-64.0869140625
-58.59375
-52.18505859375
-50.35400390625
-43.02978515625
-37.53662109375
-29.296875
-26.55029296875
-21.05712890625
-15.56396484375
-10.07080078125
-4.57763671875
1.8310546875
7.32421875
11.90185546875
22.88818359375
27.4658203125
39.36767578125
46.69189453125
51.26953125
57.67822265625
74.15771484375
77.81982421875
86.0595703125
94.29931640625
103.45458984375
111.6943359375
121.76513671875
133.6669921875
141.90673828125
149.23095703125
160.21728515625
170.2880859375
173.03466796875
183.10546875
195.9228515625
204.16259765625
206.9091796875
216.97998046875
226.13525390625
228.8818359375
232.5439453125
233.45947265625
233.45947265625
229.79736328125
227.05078125
223.388671875
217.8955078125
200.50048828125
184.9365234375
170.2880859375
158.38623046875
139.16015625
120.849609375
95.21484375
78.7353515625
56.7626953125
26.55029296875
1.8310546875
-17.39501953125
-36.62109375
-55.84716796875
-81.48193359375
-102.5390625
-122.6806640625
-141.90673828125
-157.470703125
-174.86572265625
-184.9365234375
-198.66943359375
-212.40234375
-219.7265625
-231.62841796875
-240.78369140625
-250.8544921875
-259.09423828125
-264.58740234375
-269.1650390625
-273.74267578125
-277.40478515625
-283.8134765625
-284.72900390625
-286.56005859375
-290.22216796875
-293.88427734375
-300.29296875
-297.54638671875
-297.54638671875
-297.54638671875
-295.71533203125
-300.29296875
-301.20849609375
-298.4619140625
-299.37744140625
-302.1240234375
-302.1240234375
-304.87060546875
-301.20849609375
-302.1240234375
-303.955078125
-304.87060546875
-309.4482421875
-308.53271484375
-303.03955078125
-303.955078125
-301.20849609375
-306.70166015625
-301.20849609375
-304.87060546875
-304.87060546875
-308.53271484375
-303.955078125
-302.1240234375
-305.7861328125
-306.70166015625
-307.6171875
-304.87060546875
-305.7861328125
-299.37744140625
-304.87060546875
-304.87060546875
-306.70166015625
-304.87060546875
-306.70166015625
-306.70166015625
-307.6171875
-313.1103515625
-307.6171875
-306.70166015625
-310.36376953125
-312.19482421875
-312.19482421875
-305.7861328125
-308.53271484375
-310.36376953125
-309.4482421875
-305.7861328125
-311.279296875
-310.36376953125
-312.19482421875
-309.4482421875
-314.94140625
-312.19482421875
-312.19482421875
-311.279296875
-315.85693359375
-312.19482421875
-313.1103515625
-309.4482421875
-309.4482421875
-316.7724609375
-314.02587890625
-310.36376953125
-314.94140625
-315.85693359375
-315.85693359375
-314.94140625
-315.85693359375
-319.51904296875
-315.85693359375
-323.18115234375
-325.927734375
-320.4345703125
-325.927734375
-320.4345703125
-325.927734375
-322.265625
-327.7587890625
-328.67431640625
-326.84326171875
-322.265625
-327.7587890625
-325.927734375
-329.58984375
-331.4208984375
-334.16748046875
-328.67431640625
-333.251953125
-336.9140625
-336.9140625
-335.0830078125
-338.7451171875
-334.16748046875
-341.49169921875
-340.576171875
-343.32275390625
-340.576171875
-340.576171875
-340.576171875
-344.23828125
-342.4072265625
-342.4072265625
-342.4072265625
-345.15380859375
-342.4072265625
-344.23828125
-343.32275390625
-344.23828125
-347.900390625
-347.900390625
-346.98486328125
-340.576171875
-342.4072265625
-340.576171875
-346.0693359375
-346.0693359375
-347.900390625
-344.23828125
-346.0693359375
-346.0693359375
-345.15380859375
-342.4072265625
-341.49169921875
-346.98486328125
-344.23828125
-347.900390625
-342.4072265625
-348.81591796875
-346.0693359375
-346.98486328125
-346.98486328125
-348.81591796875
-347.900390625
-348.81591796875
-346.98486328125
-345.15380859375
-349.7314453125
-345.15380859375
-345.15380859375
-348.81591796875
-346.98486328125
-346.98486328125
-346.0693359375
-344.23828125
-349.7314453125
-351.5625
-348.81591796875
-345.15380859375
-347.900390625
-343.32275390625
-350.64697265625
-346.98486328125
-346.0693359375
-350.64697265625
-351.5625
-346.0693359375
-346.0693359375
-352.47802734375
-346.0693359375
-348.81591796875
-350.64697265625
-345.15380859375
-344.23828125
-344.23828125
-349.7314453125
-348.81591796875
-347.900390625
-346.98486328125
-350.64697265625
-344.23828125
-347.900390625
-347.900390625
-349.7314453125
-346.0693359375
-347.900390625
-347.900390625
-347.900390625
-348.81591796875
-349.7314453125
-349.7314453125
-354.30908203125
-349.7314453125
-355.224609375
-355.224609375
-357.0556640625
-356.14013671875
-355.224609375
-355.224609375
-356.14013671875
-354.30908203125
-357.97119140625
-355.224609375
-357.0556640625
-358.88671875
-360.7177734375
-354.30908203125
-357.0556640625
-351.5625
-357.0556640625
-353.3935546875
-352.47802734375
-353.3935546875
-355.224609375
-356.14013671875
-353.3935546875
-357.0556640625
-357.0556640625
-353.3935546875
-350.64697265625
-356.14013671875
-352.47802734375
-352.47802734375
-353.3935546875
-355.224609375
-358.88671875
-353.3935546875
-355.224609375
-354.30908203125
-352.47802734375
-354.30908203125
-355.224609375
-353.3935546875
-357.97119140625
-357.97119140625
-357.97119140625
-355.224609375
-357.0556640625
-357.0556640625
-354.30908203125
-355.224609375
-351.5625
-357.0556640625
-357.97119140625
-357.97119140625
-354.30908203125
-354.30908203125
-353.3935546875
-355.224609375
-353.3935546875
-352.47802734375
-350.64697265625
-346.0693359375
-344.23828125
-345.15380859375
-348.81591796875
-347.900390625
-344.23828125
-346.98486328125
-339.66064453125
-344.23828125
-352.47802734375
-342.4072265625
-339.66064453125
-336.9140625
-335.99853515625
-330.50537109375
-325.01220703125
-329.58984375
-333.251953125
-340.576171875
-330.50537109375
-327.7587890625
-335.0830078125
-326.84326171875
-322.265625
-314.94140625
-312.19482421875
-316.7724609375
-322.265625
-321.35009765625
-319.51904296875
-309.4482421875
-311.279296875
-317.68798828125
-322.265625
-323.18115234375
-325.927734375
-329.58984375
-324.0966796875
-324.0966796875
-326.84326171875
-329.58984375
-331.4208984375
-334.16748046875
-335.99853515625
-334.16748046875
-330.50537109375
-339.66064453125
-348.81591796875
-359.80224609375
-358.88671875
-357.97119140625
-362.548828125
-361.63330078125
-360.7177734375
-358.88671875
-362.548828125
-358.88671875
-354.30908203125
-359.80224609375
-358.88671875
-356.14013671875
-350.64697265625
-353.3935546875
-351.5625
-356.14013671875
-349.7314453125
-344.23828125
-349.7314453125
-345.15380859375
-347.900390625
-343.32275390625
-341.49169921875
-351.5625
-370.78857421875
-393.6767578125
-381.77490234375
-348.81591796875
-298.4619140625
-205.99365234375
-76.904296875
47.607421875
176.69677734375
324.0966796875
486.14501953125
654.60205078125
799.25537109375
922.8515625
1015.31982421875
1043.701171875
1004.33349609375
910.0341796875
726.01318359375
510.8642578125
371.7041015625
264.58740234375
167.54150390625
91.552734375
32.04345703125
-19.22607421875
-65.00244140625
-93.3837890625
-103.45458984375
-130.92041015625
-162.04833984375
-187.68310546875
-195.00732421875
-182.18994140625
-170.2880859375
-173.9501953125
-173.03466796875
-181.2744140625
-195.00732421875
-206.9091796875
-211.48681640625
-223.388671875
-230.712890625
-235.29052734375
-232.5439453125
-239.8681640625
-244.44580078125
-243.5302734375
-243.5302734375
-245.361328125
-249.93896484375
-249.93896484375
-247.1923828125
-247.1923828125
-244.44580078125
-247.1923828125
-241.69921875
-238.95263671875
-242.61474609375
-243.5302734375
-237.12158203125
-241.69921875
-238.037109375
-232.5439453125
-231.62841796875
-231.62841796875
-231.62841796875
-228.8818359375
-227.05078125
-223.388671875
-218.81103515625
-224.30419921875
-217.8955078125
-214.2333984375
-215.14892578125
-214.2333984375
-206.9091796875
-205.99365234375
-205.078125
-201.416015625
-199.5849609375
-193.17626953125
-188.5986328125
-188.5986328125
-181.2744140625
-180.35888671875
-177.6123046875
-175.78125
-172.119140625
-166.6259765625
-162.9638671875
-163.87939453125
-156.55517578125
-151.9775390625
-150.146484375
-153.80859375
-144.6533203125
-142.822265625
-136.41357421875
-133.6669921875
-126.3427734375
-125.42724609375
-116.27197265625
-113.525390625
-110.77880859375
-104.3701171875
-98.876953125
-95.21484375
-88.80615234375
-84.228515625
-75.0732421875
-72.32666015625
-64.0869140625
-61.34033203125
-53.1005859375
-43.02978515625
-37.53662109375
-29.296875
-22.88818359375
-13.73291015625
-8.23974609375
4.57763671875
13.73291015625
26.55029296875
30.21240234375
43.9453125
47.607421875
59.50927734375
63.17138671875
79.65087890625
87.890625
94.29931640625
106.201171875
118.10302734375
123.59619140625
134.58251953125
141.90673828125
151.06201171875
159.3017578125
168.45703125
166.6259765625
174.86572265625
176.69677734375
179.443359375
179.443359375
180.35888671875
173.03466796875
164.794921875
160.21728515625
140.9912109375
129.08935546875
114.44091796875
99.79248046875
85.14404296875
66.83349609375
43.02978515625
20.1416015625
-1.8310546875
-22.88818359375
-48.52294921875
-69.580078125
-90.63720703125
-116.27197265625
-135.498046875
-153.80859375
-176.69677734375
-196.83837890625
-217.8955078125
-227.96630859375
-238.037109375
-257.26318359375
-270.08056640625
-281.982421875
-288.39111328125
-301.20849609375
-307.6171875
-312.19482421875
-318.603515625
-324.0966796875
-330.50537109375
-336.9140625
-336.9140625
-346.98486328125
-347.900390625
-350.64697265625
-357.97119140625
-355.224609375
-359.80224609375
-356.14013671875
-357.0556640625
-360.7177734375
-360.7177734375
-361.63330078125
-358.88671875
-361.63330078125
-361.63330078125
-364.3798828125
-361.63330078125
-358.88671875
-357.97119140625
-353.3935546875
-358.88671875
-357.0556640625
-357.0556640625
-356.14013671875
-361.63330078125
-356.14013671875
-359.80224609375
-358.88671875
-366.2109375
-365.29541015625
-359.80224609375
-357.97119140625
-357.0556640625
-356.14013671875
-355.224609375
-362.548828125
-357.97119140625
-357.0556640625
-357.97119140625
-366.2109375
-360.7177734375
-356.14013671875
-359.80224609375
-355.224609375
-357.97119140625
-358.88671875
-361.63330078125
-355.224609375
-357.97119140625
-357.97119140625
-362.548828125
-360.7177734375
-361.63330078125
-359.80224609375
-364.3798828125
-361.63330078125
-363.46435546875
-360.7177734375
-361.63330078125
-361.63330078125
-363.46435546875
-362.548828125
-365.29541015625
-368.0419921875
-368.0419921875
-365.29541015625
-367.12646484375
-363.46435546875
-365.29541015625
-368.95751953125
-368.95751953125
-371.7041015625
-369.873046875
-368.95751953125
-372.61962890625
-373.53515625
-376.28173828125
-374.45068359375
-377.197265625
-376.28173828125
-378.11279296875
-383.60595703125
-379.94384765625
-381.77490234375
-382.6904296875
-382.6904296875
-382.6904296875
-380.859375
-379.0283203125
-382.6904296875
-384.521484375
-389.09912109375
-383.60595703125
-383.60595703125
-387.26806640625
-386.3525390625
-385.43701171875
-386.3525390625
-389.09912109375
-390.0146484375
-388.18359375
-392.76123046875
-385.43701171875
-390.93017578125
-391.845703125
-392.76123046875
-391.845703125
-390.93017578125
-391.845703125
-386.3525390625
-390.93017578125
-390.0146484375
-389.09912109375
-387.26806640625
-390.93017578125
-390.93017578125
-392.76123046875
-390.93017578125
-392.76123046875
-397.3388671875
-393.6767578125
-395.5078125
-392.76123046875
-395.5078125
-394.59228515625
-395.5078125
-396.42333984375
-395.5078125
-397.3388671875
-402.83203125
-401.0009765625
-398.25439453125
-397.3388671875
-397.3388671875
-401.91650390625
-396.42333984375
-395.5078125
-397.3388671875
-395.5078125
-400.08544921875
-398.25439453125
-397.3388671875
-401.0009765625
-402.83203125
-400.08544921875
-403.74755859375
-401.0009765625
-397.3388671875
-398.25439453125
-395.5078125
-398.25439453125
-404.6630859375
-401.0009765625
-404.6630859375
-401.91650390625
-400.08544921875
-406.494140625
-401.91650390625
-399.169921875
-399.169921875
-402.83203125
-396.42333984375
-398.25439453125
-400.08544921875
-401.0009765625
-400.08544921875
-401.91650390625
-397.3388671875
-399.169921875
-402.83203125
-401.0009765625
-401.0009765625
-401.0009765625
-401.0009765625
-403.74755859375
-401.91650390625
-399.169921875
-394.59228515625
-401.0009765625
-402.83203125
-406.494140625
-398.25439453125
-399.169921875
-400.08544921875
-399.169921875
-399.169921875
-401.0009765625
-397.3388671875
-404.6630859375
-401.91650390625
-402.83203125
-397.3388671875
-395.5078125
-397.3388671875
-399.169921875
-401.91650390625
-401.91650390625
-402.83203125
-406.494140625
-407.40966796875
-404.6630859375
-404.6630859375
-400.08544921875
-404.6630859375
-402.83203125
-406.494140625
-405.57861328125
-408.3251953125
-407.40966796875
-407.40966796875
-404.6630859375
-407.40966796875
-404.6630859375
-406.494140625
-406.494140625
-405.57861328125
-406.494140625
-408.3251953125
-404.6630859375
-406.494140625
-405.57861328125
-403.74755859375
-405.57861328125
-405.57861328125
-401.0009765625
-401.91650390625
-404.6630859375
-403.74755859375
-404.6630859375
-401.91650390625
-403.74755859375
-403.74755859375
-403.74755859375
-401.91650390625
-402.83203125
-406.494140625
-410.15625
-406.494140625
-405.57861328125
-414.73388671875
-409.24072265625
-406.494140625
-407.40966796875
-409.24072265625
-405.57861328125
-401.91650390625
-401.91650390625
-399.169921875
-403.74755859375
-399.169921875
-398.25439453125
-398.25439453125
-398.25439453125
-400.08544921875
-395.5078125
-395.5078125
-401.0009765625
-401.91650390625
-399.169921875
-390.93017578125
-391.845703125
-385.43701171875
-388.18359375
-384.521484375
-390.0146484375
-390.93017578125
-390.0146484375
-386.3525390625
-386.3525390625
-383.60595703125
-378.11279296875
-372.61962890625
-367.12646484375
-368.0419921875
-375.3662109375
-379.0283203125
-367.12646484375
-360.7177734375
-366.2109375
-371.7041015625
-372.61962890625
-371.7041015625
-378.11279296875
-379.0283203125
-382.6904296875
-374.45068359375
-377.197265625
-387.26806640625
-389.09912109375
-390.0146484375
-397.3388671875
-393.6767578125
-383.60595703125
-393.6767578125
-409.24072265625
-415.6494140625
-414.73388671875
-417.48046875
-419.3115234375
-416.56494140625
-417.48046875
-415.6494140625
-414.73388671875
-416.56494140625
-407.40966796875
-413.818359375
-414.73388671875
-411.9873046875
-413.818359375
-411.07177734375
-410.15625
-405.57861328125
-401.91650390625
-403.74755859375
-402.83203125
-401.0009765625
-401.91650390625
-398.25439453125
-401.0009765625
-404.6630859375
-414.73388671875
-445.86181640625
-448.6083984375
-428.466796875
-389.09912109375
-313.1103515625
-188.5986328125
-50.35400390625
70.49560546875
208.740234375
364.3798828125
540.1611328125
698.54736328125
822.1435546875
928.3447265625
976.86767578125
966.796875
900.87890625
724.18212890625
463.2568359375
279.23583984375
173.9501953125
70.49560546875
-10.986328125
-72.32666015625
-109.86328125
-142.822265625
-172.119140625
-188.5986328125
-209.65576171875
-232.5439453125
-259.09423828125
-272.8271484375
-276.4892578125
-268.24951171875
-247.1923828125
-241.69921875
-242.61474609375
-246.27685546875
-255.43212890625
-268.24951171875
-272.8271484375
-284.72900390625
-289.306640625
-292.96875
-296.630859375
-292.96875
-296.630859375
-293.88427734375
-295.71533203125
-297.54638671875
-294.7998046875
-297.54638671875
-301.20849609375
-298.4619140625
-297.54638671875
-303.03955078125
-296.630859375
-292.05322265625
-297.54638671875
-288.39111328125
-287.4755859375
-292.05322265625
-292.05322265625
-286.56005859375
-281.982421875
-279.23583984375
-278.3203125
-279.23583984375
-279.23583984375
-274.658203125
-271.91162109375
-269.1650390625
-267.333984375
-262.75634765625
-264.58740234375
-261.8408203125
-254.5166015625
-251.77001953125
-251.77001953125
-248.10791015625
-249.93896484375
-238.95263671875
-238.037109375
-236.2060546875
-236.2060546875
-232.5439453125
-226.13525390625
-222.47314453125
-221.5576171875
-215.14892578125
-209.65576171875
-209.65576171875
-205.99365234375
-200.50048828125
-200.50048828125
-194.091796875
-185.85205078125
-188.5986328125
-180.35888671875
-175.78125
-173.03466796875
-165.71044921875
-162.04833984375
-161.1328125
-151.9775390625
-143.73779296875
-144.6533203125
-140.9912109375
-135.498046875
-128.173828125
-119.93408203125
-115.3564453125
-107.11669921875
-102.5390625
-92.46826171875
-85.14404296875
-84.228515625
-71.4111328125
-63.17138671875
-56.7626953125
-47.607421875
-36.62109375
-32.958984375
-21.97265625
-16.4794921875
-7.32421875
9.1552734375
14.6484375
27.4658203125
31.1279296875
44.86083984375
53.1005859375
61.34033203125
72.32666015625
85.14404296875
95.21484375
101.62353515625
112.60986328125
119.0185546875
124.51171875
129.08935546875
128.173828125
131.8359375
128.173828125
132.75146484375
126.3427734375
114.44091796875
106.201171875
100.7080078125
86.97509765625
69.580078125
54.01611328125
36.62109375
18.310546875
-3.662109375
-22.88818359375
-43.02978515625
-70.49560546875
-88.80615234375
-107.11669921875
-137.3291015625
-159.3017578125
-175.78125
-192.2607421875
-218.81103515625
-237.12158203125
-249.93896484375
-268.24951171875
-282.89794921875
-300.29296875
-307.6171875
-321.35009765625
-332.33642578125
-341.49169921875
-349.7314453125
-354.30908203125
-362.548828125
-368.0419921875
-379.0283203125
-380.859375
-381.77490234375
-387.26806640625
-389.09912109375
-395.5078125
-399.169921875
-400.08544921875
-394.59228515625
-400.08544921875
-398.25439453125
-395.5078125
-401.91650390625
-405.57861328125
-404.6630859375
-407.40966796875
-408.3251953125
-408.3251953125
-406.494140625
-409.24072265625
-410.15625
-411.07177734375
-404.6630859375
-409.24072265625
-408.3251953125
-408.3251953125
-404.6630859375
-405.57861328125
-406.494140625
-406.494140625
-404.6630859375
-403.74755859375
-403.74755859375
-401.0009765625
-405.57861328125
-406.494140625
-403.74755859375
-404.6630859375
-405.57861328125
-406.494140625
-402.83203125
-407.40966796875
-404.6630859375
-404.6630859375
-406.494140625
-405.57861328125
-404.6630859375
-399.169921875
-395.5078125
-403.74755859375
-404.6630859375
-402.83203125
-403.74755859375
-403.74755859375
-404.6630859375
-402.83203125
-398.25439453125
-401.0009765625
-401.0009765625
-400.08544921875
-404.6630859375
-402.83203125
-406.494140625
-406.494140625
-404.6630859375
-405.57861328125
-404.6630859375
-408.3251953125
-401.91650390625
-402.83203125
-410.15625
-408.3251953125
-413.818359375
-412.90283203125
-416.56494140625
-411.9873046875
-418.39599609375
-415.6494140625
-412.90283203125
-412.90283203125
-411.07177734375
-415.6494140625
-415.6494140625
-413.818359375
-419.3115234375
-415.6494140625
-420.22705078125
-422.05810546875
-417.48046875
-419.3115234375
-422.05810546875
-423.88916015625
-421.142578125
-418.39599609375
-418.39599609375
-423.88916015625
-423.88916015625
-425.72021484375
-422.9736328125
-423.88916015625
-425.72021484375
-427.55126953125
-423.88916015625
-423.88916015625
-425.72021484375
-426.6357421875
-423.88916015625
-425.72021484375
-426.6357421875
-425.72021484375
-432.12890625
-429.38232421875
-430.2978515625
-429.38232421875
-425.72021484375
-428.466796875
-433.04443359375
-433.9599609375
-430.2978515625
-427.55126953125
-434.87548828125
-431.21337890625
-431.21337890625
-435.791015625
-437.6220703125
-434.87548828125
-437.6220703125
-437.6220703125
-433.04443359375
-435.791015625
-436.70654296875
-435.791015625
-440.36865234375
-436.70654296875
-433.9599609375
-433.9599609375
-438.53759765625
-435.791015625
-441.2841796875
-441.2841796875
-436.70654296875
-440.36865234375
-440.36865234375
-440.36865234375
-439.453125
-441.2841796875
-438.53759765625
-438.53759765625
-439.453125
-435.791015625
-437.6220703125
-436.70654296875
-431.21337890625
-436.70654296875
-434.87548828125
-438.53759765625
-436.70654296875
-435.791015625
-431.21337890625
-429.38232421875
-436.70654296875
-433.9599609375
-436.70654296875
-433.9599609375
-434.87548828125
-437.6220703125
-434.87548828125
-431.21337890625
-433.04443359375
-436.70654296875
-431.21337890625
-435.791015625
-439.453125
-434.87548828125
-434.87548828125
-434.87548828125
-435.791015625
-434.87548828125
-434.87548828125
-434.87548828125
-433.9599609375
-436.70654296875
-436.70654296875
-434.87548828125
-434.87548828125
-440.36865234375
-434.87548828125
-435.791015625
-436.70654296875
-440.36865234375
-438.53759765625
-439.453125
-439.453125
-435.791015625
-436.70654296875
-441.2841796875
-435.791015625
-437.6220703125
-434.87548828125
-440.36865234375
-439.453125
-438.53759765625
-441.2841796875
-437.6220703125
-443.115234375
-435.791015625
-433.04443359375
-431.21337890625
-433.04443359375
-437.6220703125
-437.6220703125
-439.453125
-435.791015625
-435.791015625
-438.53759765625
-440.36865234375
-437.6220703125
-433.9599609375
-436.70654296875
-434.87548828125
-439.453125
-438.53759765625
-436.70654296875
-442.19970703125
-436.70654296875
-435.791015625
-438.53759765625
-438.53759765625
-438.53759765625
-433.9599609375
-438.53759765625
-440.36865234375
-437.6220703125
-438.53759765625
-436.70654296875
-440.36865234375
-435.791015625
-437.6220703125
-441.2841796875
-436.70654296875
-439.453125
-441.2841796875
-435.791015625
-432.12890625
-432.12890625
-433.9599609375
-431.21337890625
-432.12890625
-428.466796875
-430.2978515625
-428.466796875
-429.38232421875
-427.55126953125
-420.22705078125
-426.6357421875
-420.22705078125
-418.39599609375
-410.15625
-413.818359375
-412.90283203125
-415.6494140625
-419.3115234375
-423.88916015625
-424.8046875
-420.22705078125
-413.818359375
-417.48046875
-416.56494140625
-409.24072265625
-401.0009765625
-406.494140625
-404.6630859375
-405.57861328125
-412.90283203125
-402.83203125
-397.3388671875
-398.25439453125
-402.83203125
-402.83203125
-406.494140625
-413.818359375
-414.73388671875
-410.15625
-411.07177734375
-416.56494140625
-423.88916015625
-422.05810546875
-421.142578125
-425.72021484375
-430.2978515625
-419.3115234375
-426.6357421875
-439.453125
-445.86181640625
-448.6083984375
-451.35498046875
-450.439453125
-448.6083984375
-444.9462890625
-445.86181640625
-446.77734375
-445.86181640625
-449.52392578125
-446.77734375
-446.77734375
-443.115234375
-449.52392578125
-445.86181640625
-444.03076171875
-437.6220703125
-436.70654296875
-439.453125
-440.36865234375
-433.04443359375
-430.2978515625
-429.38232421875
-431.21337890625
-439.453125
-455.01708984375
-472.412109375
-470.5810546875
-443.115234375
-397.3388671875
-307.6171875
-183.10546875
-54.931640625
67.7490234375
211.48681640625
378.11279296875
543.8232421875
693.05419921875
819.39697265625
911.865234375
952.1484375
912.78076171875
831.298828125
653.6865234375
425.72021484375
283.8134765625
175.78125
78.7353515625
-4.57763671875
-54.01611328125
-109.86328125
-153.80859375
-183.10546875
-194.091796875
-222.47314453125
-250.8544921875
-277.40478515625
-293.88427734375
-278.3203125
-264.58740234375
-260.92529296875
-260.92529296875
-270.99609375
-280.1513671875
-292.05322265625
-303.03955078125
-313.1103515625
-321.35009765625
-325.01220703125
-327.7587890625
-326.84326171875
-335.0830078125
-333.251953125
-337.82958984375
-337.82958984375
-335.99853515625
-333.251953125
-335.0830078125
-338.7451171875
-335.0830078125
-332.33642578125
-334.16748046875
-338.7451171875
-331.4208984375
-331.4208984375
-326.84326171875
-331.4208984375
-330.50537109375
-322.265625
-328.67431640625
-320.4345703125
-316.7724609375
-315.85693359375
-316.7724609375
-308.53271484375
-314.02587890625
-310.36376953125
-302.1240234375
-302.1240234375
-300.29296875
-296.630859375
-295.71533203125
-295.71533203125
-290.22216796875
-291.1376953125
-288.39111328125
-282.89794921875
-276.4892578125
-275.57373046875
-270.99609375
-264.58740234375
-258.1787109375
-261.8408203125
-256.34765625
-256.34765625
-249.93896484375
-247.1923828125
-249.93896484375
-243.5302734375
-238.037109375
-234.375
-227.96630859375
-227.05078125
-218.81103515625
-216.064453125
-212.40234375
-202.33154296875
-202.33154296875
-200.50048828125
-195.9228515625
-189.51416015625
-183.10546875
-178.52783203125
-169.37255859375
-162.04833984375
-154.72412109375
-149.23095703125
-140.9912109375
-138.24462890625
-129.08935546875
-120.849609375
-111.6943359375
-109.86328125
-105.28564453125
-90.63720703125
-86.0595703125
-74.15771484375
-68.66455078125
-55.84716796875
-46.69189453125
-40.283203125
-29.296875
-21.97265625
-15.56396484375
-4.57763671875
8.23974609375
15.56396484375
32.04345703125
41.19873046875
47.607421875
54.931640625
69.580078125
78.7353515625
87.890625
93.3837890625
97.0458984375
102.5390625
105.28564453125
106.201171875
107.11669921875
105.28564453125
100.7080078125
91.552734375
80.56640625
67.7490234375
51.26953125
41.19873046875
25.634765625
5.4931640625
-15.56396484375
-33.87451171875
-57.67822265625
-79.65087890625
-103.45458984375
-133.6669921875
-150.146484375
-173.03466796875
-196.83837890625
-219.7265625
-238.95263671875
-256.34765625
-276.4892578125
-298.4619140625
-312.19482421875
-323.18115234375
-336.9140625
-350.64697265625
-359.80224609375
-372.61962890625
-386.3525390625
-390.0146484375
-394.59228515625
-401.91650390625
-406.494140625
-415.6494140625
-420.22705078125
-421.142578125
-424.8046875
-429.38232421875
-429.38232421875
-430.2978515625
-437.6220703125
-440.36865234375
-440.36865234375
-442.19970703125
-440.36865234375
-444.9462890625
-444.9462890625
-444.03076171875
-439.453125
-439.453125
-441.2841796875
-442.19970703125
-447.69287109375
-444.03076171875
-438.53759765625
-442.19970703125
-444.9462890625
-443.115234375
-440.36865234375
-440.36865234375
-438.53759765625
-440.36865234375
-441.2841796875
-444.03076171875
-441.2841796875
-443.115234375
-441.2841796875
-439.453125
-442.19970703125
-439.453125
-438.53759765625
-438.53759765625
-443.115234375
-439.453125
-436.70654296875
-436.70654296875
-435.791015625
-438.53759765625
-440.36865234375
-441.2841796875
-442.19970703125
-441.2841796875
-440.36865234375
-436.70654296875
-434.87548828125
-438.53759765625
-437.6220703125
-443.115234375
-440.36865234375
-437.6220703125
-443.115234375
-437.6220703125
-440.36865234375
-444.03076171875
-442.19970703125
-442.19970703125
-442.19970703125
-444.03076171875
-440.36865234375
-444.03076171875
-444.9462890625
-444.03076171875
-449.52392578125
-448.6083984375
-446.77734375
-448.6083984375
-446.77734375
-450.439453125
-446.77734375
-450.439453125
-452.2705078125
-449.52392578125
-453.18603515625
-452.2705078125
-448.6083984375
-448.6083984375
-452.2705078125
-451.35498046875
-451.35498046875
-451.35498046875
-456.84814453125
-455.9326171875
-458.67919921875
-460.51025390625
-454.1015625
-455.9326171875
-455.01708984375
-460.51025390625
-459.5947265625
-456.84814453125
-462.34130859375
-464.17236328125
-466.00341796875
-461.42578125
-464.17236328125
-464.17236328125
-462.34130859375
-465.087890625
-463.2568359375
-465.087890625
-465.087890625
-466.00341796875
-470.5810546875
-473.32763671875
-467.83447265625
-463.2568359375
-462.34130859375
-473.32763671875
-466.9189453125
-472.412109375
-466.9189453125
-468.75
-469.66552734375
-467.83447265625
-470.5810546875
-468.75
-471.49658203125
-467.83447265625
-471.49658203125
-474.2431640625
-468.75
-467.83447265625
-476.07421875
-476.07421875
-476.07421875
-472.412109375
-475.15869140625
-476.98974609375
-476.07421875
-472.412109375
-470.5810546875
-478.82080078125
-481.5673828125
-475.15869140625
-474.2431640625
-472.412109375
-475.15869140625
-476.98974609375
-472.412109375
-475.15869140625
-466.9189453125
-474.2431640625
-477.9052734375
-470.5810546875
-474.2431640625
-469.66552734375
-470.5810546875
-472.412109375
-468.75
-473.32763671875
-475.15869140625
-471.49658203125
-466.9189453125
-470.5810546875
-465.087890625
-465.087890625
-467.83447265625
-470.5810546875
-469.66552734375
-469.66552734375
-466.9189453125
-471.49658203125
-475.15869140625
-473.32763671875
-469.66552734375
-468.75
-467.83447265625
-469.66552734375
-469.66552734375
-472.412109375
-469.66552734375
-469.66552734375
-468.75
-467.83447265625
-470.5810546875
-468.75
-464.17236328125
-467.83447265625
-466.9189453125
-466.00341796875
-466.00341796875
-471.49658203125
-468.75
-469.66552734375
-467.83447265625
-467.83447265625
-466.00341796875
-470.5810546875
-467.83447265625
-467.83447265625
-462.34130859375
-466.9189453125
-465.087890625
-464.17236328125
-463.2568359375
-463.2568359375
-466.9189453125
-466.9189453125
-466.9189453125
-471.49658203125
-466.9189453125
-468.75
-469.66552734375
-467.83447265625
-468.75
-466.9189453125
-466.00341796875
-469.66552734375
-467.83447265625
-470.5810546875
-467.83447265625
-467.83447265625
-467.83447265625
-465.087890625
-466.9189453125
-464.17236328125
-467.83447265625
-466.9189453125
-468.75
-467.83447265625
-468.75
-470.5810546875
-466.00341796875
-466.9189453125
-462.34130859375
-467.83447265625
-468.75
-465.087890625
-468.75
-466.00341796875
-459.5947265625
-464.17236328125
-460.51025390625
-460.51025390625
-462.34130859375
-461.42578125
-461.42578125
-461.42578125
-456.84814453125
-451.35498046875
-452.2705078125
-454.1015625
-448.6083984375
-445.86181640625
-444.9462890625
-445.86181640625
-442.19970703125
-445.86181640625
-449.52392578125
-454.1015625
-452.2705078125
-442.19970703125
-449.52392578125
-451.35498046875
-441.2841796875
-429.38232421875
-425.72021484375
-427.55126953125
-435.791015625
-436.70654296875
-437.6220703125
-426.6357421875
-428.466796875
-433.9599609375
-434.87548828125
-439.453125
-439.453125
-441.2841796875
-443.115234375
-438.53759765625
-439.453125
-439.453125
-444.03076171875
-441.2841796875
-453.18603515625
-455.01708984375
-450.439453125
-459.5947265625
-457.763671875
-470.5810546875
-473.32763671875
-482.48291015625
-480.65185546875
-476.98974609375
-476.98974609375
-473.32763671875
-477.9052734375
-476.98974609375
-481.5673828125
-476.07421875
-474.2431640625
-474.2431640625
-479.736328125
-472.412109375
-470.5810546875
-469.66552734375
-464.17236328125
-467.83447265625
-466.9189453125
-463.2568359375
-460.51025390625
-454.1015625
-458.67919921875
-466.00341796875
-479.736328125
-494.384765625
-513.61083984375
-496.2158203125
-460.51025390625
-400.08544921875
-294.7998046875
-165.71044921875
-43.9453125
83.31298828125
238.037109375
402.83203125
567.626953125
706.787109375
828.55224609375
909.11865234375
921.93603515625
866.0888671875
750.732421875
536.4990234375
333.251953125
220.64208984375
111.6943359375
19.22607421875
-43.9453125
-101.62353515625
-149.23095703125
-192.2607421875
-216.064453125
-229.79736328125
-252.685546875
-283.8134765625
-305.7861328125
-312.19482421875
-293.88427734375
-279.23583984375
-282.89794921875
-284.72900390625
-296.630859375
-305.7861328125
-318.603515625
-330.50537109375
-337.82958984375
-346.98486328125
-347.900390625
-345.15380859375
-346.98486328125
-350.64697265625
-353.3935546875
-354.30908203125
-358.88671875
-358.88671875
-358.88671875
-359.80224609375
-357.0556640625
-355.224609375
-352.47802734375
-355.224609375
-353.3935546875
-353.3935546875
-349.7314453125
-349.7314453125
-343.32275390625
-339.66064453125
-344.23828125
-343.32275390625
-340.576171875
-339.66064453125
-337.82958984375
-337.82958984375
-335.0830078125
-330.50537109375
-325.927734375
-325.01220703125
-322.265625
-322.265625
-318.603515625
-323.18115234375
-314.02587890625
-310.36376953125
-308.53271484375
-307.6171875
-306.70166015625
-302.1240234375
-291.1376953125
-287.4755859375
-281.982421875
-281.982421875
-281.982421875
-275.57373046875
-271.91162109375
-266.41845703125
-263.671875
-263.671875
-258.1787109375
-254.5166015625
-249.0234375
-246.27685546875
-244.44580078125
-236.2060546875
-236.2060546875
-233.45947265625
-227.05078125
-218.81103515625
-213.31787109375
-208.740234375
-202.33154296875
-193.17626953125
-195.00732421875
-186.767578125
-183.10546875
-171.20361328125
-164.794921875
-162.9638671875
-151.9775390625
-144.6533203125
-137.3291015625
-127.25830078125
-122.6806640625
-119.0185546875
-104.3701171875
-97.0458984375
-87.890625
-82.3974609375
-68.66455078125
-60.4248046875
-47.607421875
-41.19873046875
-28.38134765625
-19.22607421875
-10.986328125
-3.662109375
10.986328125
17.39501953125
30.21240234375
39.36767578125
47.607421875
55.84716796875
63.17138671875
70.49560546875
81.48193359375
85.14404296875
96.13037109375
90.63720703125
88.80615234375
90.63720703125
83.31298828125
79.65087890625
75.98876953125
57.67822265625
41.19873046875
28.38134765625
9.1552734375
-7.32421875
-30.21240234375
-47.607421875
-75.98876953125
-102.5390625
-119.93408203125
-146.484375
-164.794921875
-190.4296875
-213.31787109375
-234.375
-257.26318359375
-275.57373046875
-294.7998046875
-314.02587890625
-323.18115234375
-344.23828125
-361.63330078125
-374.45068359375
-384.521484375
-395.5078125
-406.494140625
-410.15625
-416.56494140625
-426.6357421875
-427.55126953125
-440.36865234375
-444.03076171875
-444.9462890625
-451.35498046875
-460.51025390625
-454.1015625
-457.763671875
-455.01708984375
-462.34130859375
-463.2568359375
-464.17236328125
-465.087890625
-461.42578125
-467.83447265625
-466.00341796875
-466.9189453125
-466.9189453125
-471.49658203125
-467.83447265625
-465.087890625
-464.17236328125
-463.2568359375
-471.49658203125
-471.49658203125
-471.49658203125
-467.83447265625
-471.49658203125
-473.32763671875
-466.9189453125
-468.75
-467.83447265625
-470.5810546875
-466.9189453125
-465.087890625
-464.17236328125
-465.087890625
-460.51025390625
-463.2568359375
-462.34130859375
-463.2568359375
-465.087890625
-462.34130859375
-465.087890625
-465.087890625
-469.66552734375
-464.17236328125
-464.17236328125
-465.087890625
-466.00341796875
-462.34130859375
-466.9189453125
-461.42578125
-458.67919921875
-464.17236328125
-462.34130859375
-464.17236328125
-467.83447265625
-466.9189453125
-466.00341796875
-465.087890625
-465.087890625
-465.087890625
-462.34130859375
-460.51025390625
-459.5947265625
-463.2568359375
-464.17236328125
-468.75
-466.9189453125
-468.75
-465.087890625
-465.087890625
-468.75
-467.83447265625
-470.5810546875
-472.412109375
-473.32763671875
-478.82080078125
-475.15869140625
-470.5810546875
-468.75
-470.5810546875
-475.15869140625
-476.07421875
-473.32763671875
-471.49658203125
-475.15869140625
-476.07421875
-472.412109375
-476.07421875
-476.07421875
-471.49658203125
-476.07421875
-474.2431640625
-478.82080078125
-478.82080078125
-476.98974609375
-477.9052734375
-481.5673828125
-480.65185546875
-486.14501953125
-488.8916015625
-487.060546875
-487.97607421875
-492.5537109375
-486.14501953125
-488.8916015625
-487.97607421875
-486.14501953125
-490.72265625
-487.97607421875
-483.3984375
-485.2294921875
-489.80712890625
-492.5537109375
-488.8916015625
-491.63818359375
-491.63818359375
-496.2158203125
-497.13134765625
-498.96240234375
-494.384765625
-494.384765625
-492.5537109375
-491.63818359375
-497.13134765625
-494.384765625
-490.72265625
-490.72265625
-487.060546875
-490.72265625
-488.8916015625
-498.046875
-492.5537109375
-490.72265625
-492.5537109375
-496.2158203125
-494.384765625
-497.13134765625
-503.5400390625
-497.13134765625
-500.79345703125
-496.2158203125
-503.5400390625
-498.96240234375
-503.5400390625
-495.30029296875
-496.2158203125
-493.46923828125
-496.2158203125
-503.5400390625
-496.2158203125
-502.62451171875
-498.046875
-499.8779296875
-497.13134765625
-502.62451171875
-499.8779296875
-500.79345703125
-498.96240234375
-504.45556640625
-499.8779296875
-500.79345703125
-504.45556640625
-498.046875
-497.13134765625
-496.2158203125
-497.13134765625
-501.708984375
-504.45556640625
-499.8779296875
-500.79345703125
-498.046875
-505.37109375
-512.6953125
-505.37109375
-506.28662109375
-500.79345703125
-502.62451171875
-493.46923828125
-499.8779296875
-499.8779296875
-498.96240234375
-493.46923828125
-491.63818359375
-496.2158203125
-497.13134765625
-496.2158203125
-494.384765625
-497.13134765625
-498.046875
-500.79345703125
-495.30029296875
-498.96240234375
-499.8779296875
-498.046875
-503.5400390625
-500.79345703125
-496.2158203125
-499.8779296875
-501.708984375
-498.96240234375
-497.13134765625
-497.13134765625
-499.8779296875
-495.30029296875
-494.384765625
-494.384765625
-500.79345703125
-498.046875
-493.46923828125
-498.046875
-489.80712890625
-497.13134765625
-498.96240234375
-498.046875
-496.2158203125
-497.13134765625
-498.96240234375
-492.5537109375
-487.97607421875
-488.8916015625
-488.8916015625
-487.97607421875
-483.3984375
-488.8916015625
-486.14501953125
-486.14501953125
-477.9052734375
-481.5673828125
-476.98974609375
-476.07421875
-474.2431640625
-477.9052734375
-477.9052734375
-476.98974609375
-480.65185546875
-483.3984375
-484.31396484375
-478.82080078125
-472.412109375
-462.34130859375
-467.83447265625
-459.5947265625
-456.84814453125
-452.2705078125
-450.439453125
-455.01708984375
-465.087890625
-465.087890625
-455.9326171875
-444.9462890625
-451.35498046875
-451.35498046875
-458.67919921875
-459.5947265625
-459.5947265625
-456.84814453125
-457.763671875
-455.9326171875
-459.5947265625
-454.1015625
-456.84814453125
-467.83447265625
-472.412109375
-470.5810546875
-471.49658203125
-476.98974609375
-481.5673828125
-495.30029296875
-498.96240234375
-501.708984375
-498.046875
-496.2158203125
-493.46923828125
-494.384765625
-489.80712890625
-491.63818359375
-495.30029296875
-493.46923828125
-492.5537109375
-490.72265625
-491.63818359375
-490.72265625
-490.72265625
-479.736328125
-477.9052734375
-479.736328125
-476.07421875
-475.15869140625
-476.98974609375
-473.32763671875
-474.2431640625
-488.8916015625
-504.45556640625
-527.34375
-510.8642578125
-473.32763671875
-404.6630859375
-292.96875
-157.470703125
-29.296875
101.62353515625
246.27685546875
422.05810546875
591.4306640625
719.6044921875
827.63671875
888.0615234375
889.892578125
834.9609375
691.22314453125
424.8046875
186.767578125
56.7626953125
-57.67822265625
-131.8359375
-190.4296875
-224.30419921875
-242.61474609375
-265.5029296875
-290.22216796875
-306.70166015625
-335.0830078125
-353.3935546875
-363.46435546875
-368.0419921875
-375.3662109375
-354.30908203125
-331.4208984375
-326.84326171875
-326.84326171875
-335.99853515625
-346.98486328125
-352.47802734375
-360.7177734375
-365.29541015625
-370.78857421875
-376.28173828125
-373.53515625
-372.61962890625
-377.197265625
-379.94384765625
-379.94384765625
-376.28173828125
-378.11279296875
-370.78857421875
-371.7041015625
-370.78857421875
-372.61962890625
-365.29541015625
-366.2109375
-364.3798828125
-367.12646484375
-362.548828125
-362.548828125
-359.80224609375
-362.548828125
-359.80224609375
-361.63330078125
-358.88671875
-358.88671875
-358.88671875
-357.0556640625
-349.7314453125
-346.98486328125
-337.82958984375
-336.9140625
-335.99853515625
-334.16748046875
-333.251953125
-326.84326171875
-321.35009765625
-319.51904296875
-320.4345703125
-313.1103515625
-306.70166015625
-305.7861328125
-310.36376953125
-303.03955078125
-300.29296875
-299.37744140625
-292.05322265625
-284.72900390625
-281.06689453125
-277.40478515625
-271.91162109375
-277.40478515625
-266.41845703125
-264.58740234375
-264.58740234375
-261.8408203125
-250.8544921875
-240.78369140625
-246.27685546875
-240.78369140625
-233.45947265625
-230.712890625
-227.96630859375
-220.64208984375
-216.064453125
-207.82470703125
-198.66943359375
-196.83837890625
-185.85205078125
-173.9501953125
-171.20361328125
-169.37255859375
-153.80859375
-144.6533203125
-135.498046875
-130.0048828125
-127.25830078125
-119.0185546875
-108.94775390625
-99.79248046875
-86.97509765625
-76.904296875
-61.34033203125
-54.01611328125
-44.86083984375
-35.70556640625
-26.55029296875
-13.73291015625
-5.4931640625
0.91552734375
17.39501953125
26.55029296875
34.7900390625
36.62109375
46.69189453125
58.59375
63.17138671875
66.83349609375
72.32666015625
79.65087890625
75.0732421875
72.32666015625
77.81982421875
63.17138671875
58.59375
48.52294921875
38.4521484375
23.8037109375
8.23974609375
-13.73291015625
-32.958984375
-54.01611328125
-75.98876953125
-107.11669921875
-126.3427734375
-146.484375
-171.20361328125
-194.091796875
-210.5712890625
-228.8818359375
-252.685546875
-276.4892578125
-295.71533203125
-315.85693359375
-326.84326171875
-341.49169921875
-358.88671875
-369.873046875
-387.26806640625
-401.0009765625
-409.24072265625
-413.818359375
-426.6357421875
-432.12890625
-440.36865234375
-442.19970703125
-448.6083984375
-452.2705078125
-461.42578125
-466.9189453125
-466.00341796875
-466.9189453125
-471.49658203125
-473.32763671875
-471.49658203125
-471.49658203125
-466.9189453125
-469.66552734375
-466.9189453125
-469.66552734375
-471.49658203125
-472.412109375
-466.9189453125
-467.83447265625
-472.412109375
-478.82080078125
-470.5810546875
-472.412109375
-470.5810546875
-475.15869140625
-473.32763671875
-472.412109375
-471.49658203125
-478.82080078125
-473.32763671875
-478.82080078125
-477.9052734375
-481.5673828125
-480.65185546875
-481.5673828125
-477.9052734375
-476.98974609375
-476.98974609375
-479.736328125
-478.82080078125
-475.15869140625
-476.07421875
-474.2431640625
-474.2431640625
-473.32763671875
-476.98974609375
-472.412109375
-472.412109375
-475.15869140625
-471.49658203125
-471.49658203125
-470.5810546875
-467.83447265625
-472.412109375
-472.412109375
-470.5810546875
-473.32763671875
-473.32763671875
-475.15869140625
-477.9052734375
-474.2431640625
-468.75
-473.32763671875
-476.07421875
-473.32763671875
-475.15869140625
-475.15869140625
-472.412109375
-473.32763671875
-476.07421875
-476.07421875
-476.98974609375
-472.412109375
-476.07421875
-472.412109375
-473.32763671875
-479.736328125
-481.5673828125
-484.31396484375
-476.98974609375
-481.5673828125
-478.82080078125
-483.3984375
-485.2294921875
-492.5537109375
-487.97607421875
-489.80712890625
-487.97607421875
-495.30029296875
-490.72265625
-494.384765625
-492.5537109375
-490.72265625
-490.72265625
-492.5537109375
-488.8916015625
-486.14501953125
-491.63818359375
-490.72265625
-489.80712890625
-493.46923828125
-496.2158203125
-498.046875
-497.13134765625
-500.79345703125
-498.96240234375
-499.8779296875
-499.8779296875
-500.79345703125
-501.708984375
-498.046875
-495.30029296875
-498.046875
-496.2158203125
-500.79345703125
-496.2158203125
-499.8779296875
-504.45556640625
-503.5400390625
-506.28662109375
-503.5400390625
-510.8642578125
-503.5400390625
-505.37109375
-499.8779296875
-501.708984375
-503.5400390625
-498.96240234375
-503.5400390625
-501.708984375
-503.5400390625
-509.94873046875
-507.2021484375
-500.79345703125
-506.28662109375
-500.79345703125
-500.79345703125
-509.033203125
-508.11767578125
-508.11767578125
-504.45556640625
-502.62451171875
-504.45556640625
-502.62451171875
-499.8779296875
-498.96240234375
-505.37109375
-502.62451171875
-506.28662109375
-506.28662109375
-498.96240234375
-501.708984375
-506.28662109375
-507.2021484375
-504.45556640625
-508.11767578125
-505.37109375
-506.28662109375
-505.37109375
-504.45556640625
-507.2021484375
-505.37109375
-508.11767578125
-510.8642578125
-505.37109375
-506.28662109375
-503.5400390625
-502.62451171875
-505.37109375
-505.37109375
-501.708984375
-498.046875
-502.62451171875
-501.708984375
-497.13134765625
-496.2158203125
-494.384765625
-495.30029296875
-479.736328125
-470.5810546875
-466.00341796875
-462.34130859375
-467.83447265625
-463.2568359375
-465.087890625
-464.17236328125
-466.9189453125
-476.07421875
-469.66552734375
-465.087890625
-462.34130859375
-462.34130859375
-455.9326171875
-454.1015625
-453.18603515625
-452.2705078125
-461.42578125
-463.2568359375
-462.34130859375
-458.67919921875
-453.18603515625
-455.01708984375
-455.9326171875
-466.00341796875
-466.00341796875
-468.75
-468.75
-472.412109375
-471.49658203125
-475.15869140625
-479.736328125
-480.65185546875
-487.97607421875
-493.46923828125
-487.060546875
-483.3984375
-496.2158203125
-503.5400390625
-510.8642578125
-509.033203125
-512.6953125
-518.1884765625
-517.27294921875
-517.27294921875
-516.357421875
-519.10400390625
-519.10400390625
-511.77978515625
-513.61083984375
-508.11767578125
-510.8642578125
-511.77978515625
-509.94873046875
-504.45556640625
-503.5400390625
-506.28662109375
-506.28662109375
-504.45556640625
-500.79345703125
-495.30029296875
-495.30029296875
-499.8779296875
-508.11767578125
-525.5126953125
-548.40087890625
-538.330078125
-503.5400390625
-450.439453125
-344.23828125
-208.740234375
-72.32666015625
51.26953125
199.5849609375
368.0419921875
541.07666015625
671.08154296875
783.69140625
859.68017578125
876.15966796875
831.298828125
731.50634765625
514.5263671875
240.78369140625
75.98876953125
-31.1279296875
-131.8359375
-203.2470703125
-246.27685546875
-264.58740234375
-280.1513671875
-299.37744140625
-316.7724609375
-343.32275390625
-371.7041015625
-379.94384765625
-390.93017578125
-394.59228515625
-380.859375
-365.29541015625
-353.3935546875
-352.47802734375
-357.0556640625
-372.61962890625
-377.197265625
-386.3525390625
-388.18359375
-402.83203125
-401.0009765625
-402.83203125
-402.83203125
-401.91650390625
-399.169921875
-404.6630859375
-401.91650390625
-399.169921875
-401.91650390625
-404.6630859375
-399.169921875
-401.0009765625
-398.25439453125
-395.5078125
-390.93017578125
-393.6767578125
-392.76123046875
-392.76123046875
-387.26806640625
-389.09912109375
-382.6904296875
-384.521484375
-380.859375
-379.94384765625
-376.28173828125
-370.78857421875
-376.28173828125
-371.7041015625
-371.7041015625
-363.46435546875
-357.97119140625
-357.0556640625
-351.5625
-352.47802734375
-351.5625
-346.0693359375
-346.0693359375
-341.49169921875
-341.49169921875
-330.50537109375
-332.33642578125
-326.84326171875
-322.265625
-318.603515625
-317.68798828125
-308.53271484375
-310.36376953125
-303.955078125
-299.37744140625
-295.71533203125
-294.7998046875
-286.56005859375
-281.982421875
-280.1513671875
-277.40478515625
-271.91162109375
-260.92529296875
-257.26318359375
-249.0234375
-243.5302734375
-237.12158203125
-233.45947265625
-237.12158203125
-223.388671875
-216.064453125
-210.5712890625
-205.078125
-194.091796875
-185.85205078125
-179.443359375
-173.03466796875
-166.6259765625
-152.89306640625
-146.484375
-139.16015625
-123.59619140625
-118.10302734375
-110.77880859375
-100.7080078125
-93.3837890625
-80.56640625
-74.15771484375
-64.0869140625
-45.7763671875
-35.70556640625
-25.634765625
-15.56396484375
-6.40869140625
0.91552734375
10.986328125
21.97265625
32.04345703125
37.53662109375
41.19873046875
54.931640625
54.931640625
57.67822265625
61.34033203125
58.59375
54.01611328125
46.69189453125
33.87451171875
29.296875
18.310546875
5.4931640625
-13.73291015625
-31.1279296875
-55.84716796875
-75.0732421875
-96.13037109375
-118.10302734375
-141.90673828125
-167.54150390625
-188.5986328125
-212.40234375
-234.375
-259.09423828125
-278.3203125
-297.54638671875
-318.603515625
-335.0830078125
-349.7314453125
-370.78857421875
-380.859375
-398.25439453125
-406.494140625
-415.6494140625
-426.6357421875
-436.70654296875
-446.77734375
-453.18603515625
-461.42578125
-464.17236328125
-467.83447265625
-471.49658203125
-473.32763671875
-478.82080078125
-484.31396484375
-484.31396484375
-488.8916015625
-491.63818359375
-489.80712890625
-491.63818359375
-489.80712890625
-494.384765625
-494.384765625
-496.2158203125
-500.79345703125
-497.13134765625
-492.5537109375
-493.46923828125
-497.13134765625
-499.8779296875
-496.2158203125
-494.384765625
-493.46923828125
-494.384765625
-495.30029296875
-492.5537109375
-487.97607421875
-493.46923828125
-490.72265625
-494.384765625
-489.80712890625
-493.46923828125
-493.46923828125
-494.384765625
-492.5537109375
-489.80712890625
-491.63818359375
-492.5537109375
-495.30029296875
-488.8916015625
-490.72265625
-488.8916015625
-486.14501953125
-491.63818359375
-491.63818359375
-488.8916015625
-488.8916015625
-485.2294921875
-485.2294921875
-488.8916015625
-487.060546875
-488.8916015625
-490.72265625
-488.8916015625
-489.80712890625
-487.97607421875
-488.8916015625
-490.72265625
-486.14501953125
-487.97607421875
-481.5673828125
-486.14501953125
-486.14501953125
-487.97607421875
-487.060546875
-482.48291015625
-487.060546875
-493.46923828125
-494.384765625
-487.97607421875
-491.63818359375
-488.8916015625
-488.8916015625
-492.5537109375
-492.5537109375
-487.060546875
-490.72265625
-493.46923828125
-493.46923828125
-494.384765625
-491.63818359375
-495.30029296875
-494.384765625
-498.046875
-498.96240234375
-494.384765625
-495.30029296875
-495.30029296875
-500.79345703125
-498.046875
-498.046875
-505.37109375
-504.45556640625
-506.28662109375
-501.708984375
-502.62451171875
-503.5400390625
-504.45556640625
-503.5400390625
-503.5400390625
-508.11767578125
-504.45556640625
-498.046875
-504.45556640625
-503.5400390625
-508.11767578125
-508.11767578125
-509.94873046875
-508.11767578125
-509.94873046875
-506.28662109375
-509.94873046875
-509.94873046875
-510.8642578125
-509.033203125
-507.2021484375
-510.8642578125
-516.357421875
-509.033203125
-509.033203125
-509.033203125
-511.77978515625
-509.94873046875
-512.6953125
-515.44189453125
-509.033203125
-510.8642578125
-506.28662109375
-509.033203125
-509.033203125
-506.28662109375
-510.8642578125
-510.8642578125
-515.44189453125
-508.11767578125
-513.61083984375
-509.94873046875
-515.44189453125
-513.61083984375
-514.5263671875
-514.5263671875
-512.6953125
-513.61083984375
-515.44189453125
-513.61083984375
-511.77978515625
-509.94873046875
-508.11767578125
-504.45556640625
-507.2021484375
-511.77978515625
-509.94873046875
-511.77978515625
-511.77978515625
-510.8642578125
-509.033203125
-513.61083984375
-512.6953125
-509.033203125
-512.6953125
-510.8642578125
-509.94873046875
-510.8642578125
-511.77978515625
-514.5263671875
-512.6953125
-507.2021484375
-509.94873046875
-515.44189453125
-515.44189453125
-513.61083984375
-516.357421875
-513.61083984375
-515.44189453125
-514.5263671875
-515.44189453125
-509.033203125
-513.61083984375
-512.6953125
-512.6953125
-511.77978515625
-511.77978515625
-511.77978515625
-510.8642578125
-511.77978515625
-514.5263671875
-509.94873046875
-509.94873046875
-513.61083984375
-512.6953125
-515.44189453125
-515.44189453125
-514.5263671875
-513.61083984375
-511.77978515625
-508.11767578125
-509.033203125
-512.6953125
-513.61083984375
-508.11767578125
-509.033203125
-510.8642578125
-512.6953125
-508.11767578125
-513.61083984375
-507.2021484375
-509.94873046875
-510.8642578125
-509.94873046875
-508.11767578125
-507.2021484375
-506.28662109375
-505.37109375
-501.708984375
-501.708984375
-502.62451171875
-505.37109375
-498.96240234375
-491.63818359375
-489.80712890625
-478.82080078125
-470.5810546875
-459.5947265625
-460.51025390625
-463.2568359375
-462.34130859375
-463.2568359375
-463.2568359375
-470.5810546875
-473.32763671875
-471.49658203125
-473.32763671875
-470.5810546875
-473.32763671875
-470.5810546875
-466.00341796875
-461.42578125
-463.2568359375
-461.42578125
-473.32763671875
-472.412109375
-470.5810546875
-463.2568359375
-464.17236328125
-464.17236328125
-473.32763671875
-474.2431640625
-479.736328125
-477.9052734375
-480.65185546875
-484.31396484375
-483.3984375
-484.31396484375
-484.31396484375
-482.48291015625
-488.8916015625
-491.63818359375
-493.46923828125
-492.5537109375
-498.046875
-505.37109375
-514.5263671875
-520.01953125
-526.42822265625
-525.5126953125
-520.93505859375
-522.76611328125
-517.27294921875
-526.42822265625
-519.10400390625
-519.10400390625
-517.27294921875
-516.357421875
-516.357421875
-520.01953125
-509.94873046875
-509.033203125
-509.033203125
-512.6953125
-509.033203125
-509.94873046875
-507.2021484375
-507.2021484375
-508.11767578125
-508.11767578125
-517.27294921875
-529.1748046875
-541.9921875
-529.1748046875
-497.13134765625
-431.21337890625
-331.4208984375
-205.99365234375
-80.56640625
46.69189453125
201.416015625
356.14013671875
509.94873046875
648.193359375
773.62060546875
859.68017578125
882.568359375
825.8056640625
704.04052734375
491.63818359375
296.630859375
178.52783203125
65.91796875
-32.958984375
-106.201171875
-159.3017578125
-208.740234375
-243.5302734375
-260.009765625
-265.5029296875
-278.3203125
-308.53271484375
-351.5625
-347.900390625
-329.58984375
-318.603515625
-326.84326171875
-330.50537109375
-346.0693359375
-356.14013671875
-368.95751953125
-377.197265625
-390.93017578125
-396.42333984375
-398.25439453125
-397.3388671875
-401.91650390625
-403.74755859375
-409.24072265625
-403.74755859375
-398.25439453125
-401.0009765625
-404.6630859375
-403.74755859375
-397.3388671875
-398.25439453125
-400.08544921875
-400.08544921875
-400.08544921875
-397.3388671875
-395.5078125
-394.59228515625
-392.76123046875
-391.845703125
-389.09912109375
-383.60595703125
-382.6904296875
-386.3525390625
-380.859375
-382.6904296875
-375.3662109375
-375.3662109375
-368.95751953125
-374.45068359375
-368.0419921875
-365.29541015625
-362.548828125
-358.88671875
-351.5625
-354.30908203125
-350.64697265625
-347.900390625
-347.900390625
-344.23828125
-338.7451171875
-334.16748046875
-330.50537109375
-328.67431640625
-325.927734375
-327.7587890625
-321.35009765625
-319.51904296875
-312.19482421875
-313.1103515625
-308.53271484375
-300.29296875
-294.7998046875
-292.96875
-289.306640625
-286.56005859375
-283.8134765625
-277.40478515625
-270.08056640625
-264.58740234375
-262.75634765625
-255.43212890625
-253.60107421875
-241.69921875
-234.375
-232.5439453125
-225.2197265625
-218.81103515625
-207.82470703125
-204.16259765625
-194.091796875
-185.85205078125
-176.69677734375
-172.119140625
-159.3017578125
-154.72412109375
-141.90673828125
-130.92041015625
-123.59619140625
-118.10302734375
-110.77880859375
-98.876953125
-86.0595703125
-77.81982421875
-65.91796875
-56.7626953125
-41.19873046875
-30.21240234375
-19.22607421875
-11.90185546875
-4.57763671875
10.07080078125
17.39501953125
26.55029296875
35.70556640625
43.02978515625
52.18505859375
57.67822265625
61.34033203125
59.50927734375
60.4248046875
57.67822265625
55.84716796875
54.931640625
40.283203125
24.71923828125
6.40869140625
-4.57763671875
-25.634765625
-44.86083984375
-64.0869140625
-86.0595703125
-109.86328125
-131.8359375
-157.470703125
-182.18994140625
-204.16259765625
-227.96630859375
-255.43212890625
-281.06689453125
-297.54638671875
-309.4482421875
-332.33642578125
-351.5625
-368.0419921875
-379.94384765625
-392.76123046875
-405.57861328125
-415.6494140625
-429.38232421875
-435.791015625
-446.77734375
-454.1015625
-456.84814453125
-465.087890625
-468.75
-472.412109375
-476.07421875
-481.5673828125
-484.31396484375
-488.8916015625
-486.14501953125
-491.63818359375
-491.63818359375
-495.30029296875
-489.80712890625
-492.5537109375
-496.2158203125
-495.30029296875
-495.30029296875
-498.046875
-495.30029296875
-495.30029296875
-496.2158203125
-498.96240234375
-497.13134765625
-498.046875
-497.13134765625
-496.2158203125
-499.8779296875
-499.8779296875
-495.30029296875
-498.046875
-494.384765625
-490.72265625
-495.30029296875
-496.2158203125
-501.708984375
-499.8779296875
-500.79345703125
-495.30029296875
-495.30029296875
-498.96240234375
-491.63818359375
-491.63818359375
-496.2158203125
-494.384765625
-496.2158203125
-492.5537109375
-497.13134765625
-497.13134765625
-495.30029296875
-498.96240234375
-496.2158203125
-499.8779296875
-498.046875
-493.46923828125
-498.046875
-491.63818359375
-495.30029296875
-502.62451171875
-498.046875
-491.63818359375
-492.5537109375
-493.46923828125
-497.13134765625
-495.30029296875
-496.2158203125
-494.384765625
-498.046875
-496.2158203125
-498.046875
-498.96240234375
-494.384765625
-500.79345703125
-497.13134765625
-495.30029296875
-495.30029296875
-498.046875
-501.708984375
-497.13134765625
-503.5400390625
-502.62451171875
-503.5400390625
-506.28662109375
-498.046875
-500.79345703125
-509.94873046875
-506.28662109375
-508.11767578125
-504.45556640625
-509.033203125
-507.2021484375
-507.2021484375
-510.8642578125
-511.77978515625
-506.28662109375
-506.28662109375
-506.28662109375
-512.6953125
-511.77978515625
-509.94873046875
-512.6953125
-512.6953125
-513.61083984375
-513.61083984375
-512.6953125
-515.44189453125
-513.61083984375
-518.1884765625
-518.1884765625
-518.1884765625
-514.5263671875
-517.27294921875
-520.01953125
-516.357421875
-520.01953125
-521.8505859375
-520.93505859375
-524.59716796875
-520.01953125
-520.93505859375
-519.10400390625
-521.8505859375
-523.681640625
-524.59716796875
-522.76611328125
-521.8505859375
-519.10400390625
-522.76611328125
-521.8505859375
-524.59716796875
-522.76611328125
-526.42822265625
-526.42822265625
-526.42822265625
-521.8505859375
-523.681640625
-519.10400390625
-523.681640625
-524.59716796875
-519.10400390625
-523.681640625
-524.59716796875
-523.681640625
-520.93505859375
-524.59716796875
-518.1884765625
-520.01953125
-523.681640625
-521.8505859375
-521.8505859375
-520.93505859375
-518.1884765625
-520.93505859375
-523.681640625
-521.8505859375
-524.59716796875
-529.1748046875
-522.76611328125
-520.93505859375
-525.5126953125
-521.8505859375
-522.76611328125
-520.93505859375
-523.681640625
-520.01953125
-525.5126953125
-528.25927734375
-521.8505859375
-523.681640625
-525.5126953125
-522.76611328125
-525.5126953125
-520.93505859375
-524.59716796875
-523.681640625
-520.93505859375
-520.93505859375
-520.01953125
-526.42822265625
-526.42822265625
-522.76611328125
-523.681640625
-523.681640625
-520.01953125
-520.93505859375
-520.01953125
-524.59716796875
-522.76611328125
-520.93505859375
-520.93505859375
-516.357421875
-517.27294921875
-523.681640625
-521.8505859375
-523.681640625
-518.1884765625
-520.93505859375
-520.93505859375
-523.681640625
-524.59716796875
-522.76611328125
-519.10400390625
-520.01953125
-519.10400390625
-522.76611328125
-521.8505859375
-520.93505859375
-523.681640625
-518.1884765625
-521.8505859375
-515.44189453125
-519.10400390625
-518.1884765625
-525.5126953125
-521.8505859375
-524.59716796875
-525.5126953125
-527.34375
-525.5126953125
-520.93505859375
-526.42822265625
-520.93505859375
-520.01953125
-525.5126953125
-518.1884765625
-522.76611328125
-519.10400390625
-522.76611328125
-521.8505859375
-519.10400390625
-513.61083984375
-511.77978515625
-515.44189453125
-513.61083984375
-513.61083984375
-511.77978515625
-510.8642578125
-505.37109375
-502.62451171875
-498.96240234375
-499.8779296875
-503.5400390625
-504.45556640625
-490.72265625
-485.2294921875
-485.2294921875
-483.3984375
-482.48291015625
-483.3984375
-485.2294921875
-483.3984375
-483.3984375
-484.31396484375
-493.46923828125
-497.13134765625
-498.046875
-491.63818359375
-487.060546875
-494.384765625
-489.80712890625
-478.82080078125
-474.2431640625
-475.15869140625
-476.07421875
-484.31396484375
-482.48291015625
-477.9052734375
-472.412109375
-477.9052734375
-482.48291015625
-484.31396484375
-481.5673828125
-491.63818359375
-489.80712890625
-491.63818359375
-490.72265625
-487.060546875
-490.72265625
-491.63818359375
-493.46923828125
-497.13134765625
-506.28662109375
-500.79345703125
-502.62451171875
-513.61083984375
-518.1884765625
-523.681640625
-528.25927734375
-529.1748046875
-533.75244140625
-532.8369140625
-531.92138671875
-529.1748046875
-529.1748046875
-531.005859375
-532.8369140625
-531.005859375
-531.92138671875
-531.005859375
-529.1748046875
-527.34375
-523.681640625
-526.42822265625
-523.681640625
-525.5126953125
-521.8505859375
-520.93505859375
-518.1884765625
-519.10400390625
-513.61083984375
-517.27294921875
-529.1748046875
-545.654296875
-540.1611328125
-515.44189453125
-466.9189453125
-384.521484375
-267.333984375
-138.24462890625
-17.39501953125
129.08935546875
280.1513671875
439.453125
582.275390625
713.19580078125
814.8193359375
857.84912109375
828.55224609375
731.50634765625
536.4990234375
308.53271484375
172.119140625
63.17138671875
-42.1142578125
-119.93408203125
-171.20361328125
-218.81103515625
-261.8408203125
-284.72900390625
-289.306640625
-296.630859375
-325.927734375
-360.7177734375
-379.94384765625
-358.88671875
-341.49169921875
-345.15380859375
-349.7314453125
-357.97119140625
-366.2109375
-383.60595703125
-387.26806640625
-396.42333984375
-403.74755859375
-409.24072265625
-411.9873046875
-412.90283203125
-414.73388671875
-416.56494140625
-411.9873046875
-417.48046875
-415.6494140625
-421.142578125
-416.56494140625
-415.6494140625
-418.39599609375
-409.24072265625
-411.07177734375
-414.73388671875
-411.07177734375
-410.15625
-406.494140625
-409.24072265625
-409.24072265625
-411.07177734375
-408.3251953125
-406.494140625
-409.24072265625
-404.6630859375
-401.91650390625
-399.169921875
-399.169921875
-393.6767578125
-393.6767578125
-391.845703125
-381.77490234375
-379.94384765625
-379.0283203125
-379.94384765625
-373.53515625
-369.873046875
-368.0419921875
-365.29541015625
-361.63330078125
-359.80224609375
-351.5625
-347.900390625
-345.15380859375
-343.32275390625
-337.82958984375
-336.9140625
-327.7587890625
-324.0966796875
-326.84326171875
-320.4345703125
-316.7724609375
-310.36376953125
-308.53271484375
-303.955078125
-295.71533203125
-287.4755859375
-286.56005859375
-282.89794921875
-279.23583984375
-274.658203125
-268.24951171875
-266.41845703125
-260.92529296875
-251.77001953125
-246.27685546875
-240.78369140625
-232.5439453125
-226.13525390625
-221.5576171875
-216.064453125
-205.078125
-202.33154296875
-195.00732421875
-183.10546875
-179.443359375
-166.6259765625
-161.1328125
-151.06201171875
-143.73779296875
-129.08935546875
-120.849609375
-110.77880859375
-101.62353515625
-88.80615234375
-79.65087890625
-69.580078125
-59.50927734375
-49.4384765625
-37.53662109375
-26.55029296875
-14.6484375
-5.4931640625
3.662109375
12.8173828125
22.88818359375
32.04345703125
33.87451171875
34.7900390625
38.4521484375
38.4521484375
40.283203125
33.87451171875
26.55029296875
17.39501953125
4.57763671875
0
-17.39501953125
-35.70556640625
-56.7626953125
-74.15771484375
-94.29931640625
-110.77880859375
-140.9912109375
-166.6259765625
-190.4296875
-209.65576171875
-231.62841796875
-258.1787109375
-277.40478515625
-302.1240234375
-318.603515625
-335.99853515625
-352.47802734375
-373.53515625
-383.60595703125
-396.42333984375
-411.07177734375
-424.8046875
-441.2841796875
-450.439453125
-455.01708984375
-467.83447265625
-474.2431640625
-475.15869140625
-482.48291015625
-485.2294921875
-491.63818359375
-496.2158203125
-498.96240234375
-500.79345703125
-500.79345703125
-499.8779296875
-502.62451171875
-506.28662109375
-500.79345703125
-506.28662109375
-505.37109375
-507.2021484375
-507.2021484375
-503.5400390625
-505.37109375
-504.45556640625
-505.37109375
-506.28662109375
-503.5400390625
-506.28662109375
-507.2021484375
-513.61083984375
-504.45556640625
-508.11767578125
-508.11767578125
-513.61083984375
-506.28662109375
-514.5263671875
-501.708984375
-506.28662109375
-505.37109375
-500.79345703125
-505.37109375
-510.8642578125
-511.77978515625
-509.94873046875
-501.708984375
-508.11767578125
-505.37109375
-509.033203125
-509.033203125
-506.28662109375
-508.11767578125
-505.37109375
-506.28662109375
-508.11767578125
-509.033203125
-514.5263671875
-515.44189453125
-507.2021484375
-510.8642578125
-511.77978515625
-509.033203125
-512.6953125
-505.37109375
-512.6953125
-516.357421875
-516.357421875
-514.5263671875
-514.5263671875
-512.6953125
-515.44189453125
-515.44189453125
-513.61083984375
-510.8642578125
-511.77978515625
-510.8642578125
-518.1884765625
-512.6953125
-510.8642578125
-515.44189453125
-515.44189453125
-519.10400390625
-518.1884765625
-514.5263671875
-510.8642578125
-512.6953125
-517.27294921875
-512.6953125
-511.77978515625
-520.01953125
-520.93505859375
-519.10400390625
-520.93505859375
-516.357421875
-519.10400390625
-518.1884765625
-518.1884765625
-517.27294921875
-520.93505859375
-524.59716796875
-527.34375
-527.34375
-526.42822265625
-525.5126953125
-529.1748046875
-530.09033203125
-529.1748046875
-528.25927734375
-520.93505859375
-517.27294921875
-525.5126953125
-522.76611328125
-526.42822265625
-526.42822265625
-527.34375
-520.93505859375
-524.59716796875
-529.1748046875
-525.5126953125
-528.25927734375
-529.1748046875
-526.42822265625
-530.09033203125
-531.92138671875
-531.005859375
-531.005859375
-529.1748046875
-529.1748046875
-527.34375
-533.75244140625
-532.8369140625
-531.005859375
-532.8369140625
-531.005859375
-538.330078125
-536.4990234375
-534.66796875
-538.330078125
-533.75244140625
-533.75244140625
-530.09033203125
-533.75244140625
-531.005859375
-535.58349609375
-535.58349609375
-529.1748046875
-533.75244140625
-533.75244140625
-535.58349609375
-537.41455078125
-535.58349609375
-537.41455078125
-535.58349609375
-531.92138671875
-529.1748046875
-531.005859375
-537.41455078125
-535.58349609375
-535.58349609375
-531.005859375
-536.4990234375
-535.58349609375
-531.92138671875
-532.8369140625
-531.005859375
-539.24560546875
-537.41455078125
-541.07666015625
-537.41455078125
-540.1611328125
-541.07666015625
-543.8232421875
-538.330078125
-536.4990234375
-540.1611328125
-541.9921875
-540.1611328125
-539.24560546875
-536.4990234375
-540.1611328125
-536.4990234375
-537.41455078125
-540.1611328125
-541.07666015625
-534.66796875
-538.330078125
-540.1611328125
-538.330078125
-539.24560546875
-538.330078125
-542.90771484375
-539.24560546875
-537.41455078125
-541.07666015625
-534.66796875
-538.330078125
-536.4990234375
-536.4990234375
-537.41455078125
-538.330078125
-537.41455078125
-536.4990234375
-531.92138671875
-536.4990234375
-534.66796875
-535.58349609375
-538.330078125
-531.92138671875
-533.75244140625
-536.4990234375
-541.07666015625
-533.75244140625
-536.4990234375
-538.330078125
-537.41455078125
-535.58349609375
-531.005859375
-531.92138671875
-531.92138671875
-534.66796875
-531.92138671875
-538.330078125
-535.58349609375
-534.66796875
-534.66796875
-540.1611328125
-540.1611328125
-535.58349609375
-541.9921875
-540.1611328125
-536.4990234375
-536.4990234375
-534.66796875
-538.330078125
-527.34375
-526.42822265625
-529.1748046875
-531.92138671875
-531.005859375
-531.005859375
-532.8369140625
-526.42822265625
-522.76611328125
-520.93505859375
-518.1884765625
-511.77978515625
-506.28662109375
-509.94873046875
-508.11767578125
-509.94873046875
-517.27294921875
-521.8505859375
-519.10400390625
-522.76611328125
-518.1884765625
-508.11767578125
-514.5263671875
-506.28662109375
-496.2158203125
-492.5537109375
-485.2294921875
-493.46923828125
-504.45556640625
-498.96240234375
-490.72265625
-489.80712890625
-493.46923828125
-490.72265625
-496.2158203125
-497.13134765625
-497.13134765625
-502.62451171875
-508.11767578125
-503.5400390625
-502.62451171875
-505.37109375
-510.8642578125
-515.44189453125
-520.01953125
-514.5263671875
-524.59716796875
-524.59716796875
-533.75244140625
-539.24560546875
-539.24560546875
-544.73876953125
-541.9921875
-539.24560546875
-534.66796875
-536.4990234375
-531.005859375
-530.09033203125
-530.09033203125
-532.8369140625
-538.330078125
-546.56982421875
-540.1611328125
-540.1611328125
-532.8369140625
-528.25927734375
-524.59716796875
-525.5126953125
-521.8505859375
-517.27294921875
-515.44189453125
-520.01953125
-516.357421875
-514.5263671875
-528.25927734375
-543.8232421875
-570.37353515625
-572.20458984375
-541.07666015625
-490.72265625
-396.42333984375
-265.5029296875
-131.8359375
-6.40869140625
138.24462890625
299.37744140625
471.49658203125
625.30517578125
740.66162109375
822.1435546875
857.84912109375
824.89013671875
738.83056640625
552.06298828125
260.009765625
76.904296875
-37.53662109375
-148.3154296875
-211.48681640625
-257.26318359375
-277.40478515625
-297.54638671875
-330.50537109375
-343.32275390625
-365.29541015625
-387.26806640625
-409.24072265625
-413.818359375
-420.22705078125
-418.39599609375
-395.5078125
-380.859375
-374.45068359375
-374.45068359375
-380.859375
-393.6767578125
-396.42333984375
-402.83203125
-406.494140625
-414.73388671875
-416.56494140625
-414.73388671875
-419.3115234375
-422.05810546875
-417.48046875
-417.48046875
-418.39599609375
-418.39599609375
-417.48046875
-421.142578125
-415.6494140625
-417.48046875
-417.48046875
-419.3115234375
-411.9873046875
-410.15625
-415.6494140625
-411.9873046875
-411.9873046875
-412.90283203125
-408.3251953125
-404.6630859375
-404.6630859375
-402.83203125
-401.91650390625
-403.74755859375
-402.83203125
-401.0009765625
-393.6767578125
-392.76123046875
-390.0146484375
-385.43701171875
-381.77490234375
-377.197265625
-373.53515625
-369.873046875
-361.63330078125
-366.2109375
-362.548828125
-360.7177734375
-357.97119140625
-352.47802734375
-351.5625
-346.98486328125
-342.4072265625
-339.66064453125
-338.7451171875
-335.99853515625
-326.84326171875
-324.0966796875
-321.35009765625
-315.85693359375
-317.68798828125
-307.6171875
-303.955078125
-295.71533203125
-292.05322265625
-288.39111328125
-283.8134765625
-281.982421875
-273.74267578125
-266.41845703125
-260.009765625
-255.43212890625
-249.93896484375
-242.61474609375
-234.375
-234.375
-219.7265625
-214.2333984375
-203.2470703125
-199.5849609375
-193.17626953125
-184.02099609375
-180.35888671875
-169.37255859375
-162.04833984375
-151.9775390625
-141.90673828125
-126.3427734375
-117.1875
-109.86328125
-97.0458984375
-86.97509765625
-71.4111328125
-67.7490234375
-56.7626953125
-51.26953125
-41.19873046875
-30.21240234375
-18.310546875
-7.32421875
1.8310546875
12.8173828125
20.1416015625
19.22607421875
22.88818359375
24.71923828125
20.1416015625
18.310546875
16.4794921875
10.07080078125
2.74658203125
-6.40869140625
-17.39501953125
-38.4521484375
-53.1005859375
-74.15771484375
-91.552734375
-109.86328125
-131.8359375
-153.80859375
-179.443359375
-200.50048828125
-225.2197265625
-243.5302734375
-269.1650390625
-288.39111328125
-310.36376953125
-328.67431640625
-345.15380859375
-367.12646484375
-383.60595703125
-401.0009765625
-416.56494140625
-426.6357421875
-439.453125
-449.52392578125
-457.763671875
-467.83447265625
-477.9052734375
-487.060546875
-492.5537109375
-500.79345703125
-503.5400390625
-506.28662109375
-504.45556640625
-506.28662109375
-511.77978515625
-518.1884765625
-514.5263671875
-512.6953125
-512.6953125
-516.357421875
-518.1884765625
-522.76611328125
-521.8505859375
-517.27294921875
-520.01953125
-518.1884765625
-520.01953125
-517.27294921875
-519.10400390625
-521.8505859375
-519.10400390625
-521.8505859375
-526.42822265625
-528.25927734375
-522.76611328125
-518.1884765625
-521.8505859375
-519.10400390625
-519.10400390625
-518.1884765625
-519.10400390625
-521.8505859375
-520.93505859375
-518.1884765625
-520.93505859375
-519.10400390625
-525.5126953125
-526.42822265625
-526.42822265625
-523.681640625
-526.42822265625
-520.01953125
-523.681640625
-526.42822265625
-522.76611328125
-521.8505859375
-519.10400390625
-519.10400390625
-519.10400390625
-518.1884765625
-516.357421875
-511.77978515625
-513.61083984375
-517.27294921875
-517.27294921875
-513.61083984375
-516.357421875
-519.10400390625
-520.01953125
-519.10400390625
-516.357421875
-520.93505859375
-522.76611328125
-517.27294921875
-515.44189453125
-516.357421875
-516.357421875
-521.8505859375
-522.76611328125
-519.10400390625
-521.8505859375
-520.01953125
-525.5126953125
-518.1884765625
-517.27294921875
-519.10400390625
-520.93505859375
-523.681640625
-526.42822265625
-524.59716796875
-526.42822265625
-523.681640625
-525.5126953125
-531.92138671875
-530.09033203125
-532.8369140625
-531.92138671875
-530.09033203125
-531.92138671875
-541.07666015625
-537.41455078125
-538.330078125
-535.58349609375
-531.005859375
-532.8369140625
-537.41455078125
-532.8369140625
-536.4990234375
-541.07666015625
-540.1611328125
-535.58349609375
-536.4990234375
-540.1611328125
-543.8232421875
-542.90771484375
-547.4853515625
-542.90771484375
-544.73876953125
-542.90771484375
-542.90771484375
-543.8232421875
-543.8232421875
-545.654296875
-545.654296875
-547.4853515625
-543.8232421875
-548.40087890625
-546.56982421875
-542.90771484375
-544.73876953125
-539.24560546875
-543.8232421875
-545.654296875
-548.40087890625
-552.978515625
-552.06298828125
-550.23193359375
-552.06298828125
-546.56982421875
-550.23193359375
-548.40087890625
-547.4853515625
-550.23193359375
-550.23193359375
-550.23193359375
-552.06298828125
-548.40087890625
-549.31640625
-550.23193359375
-546.56982421875
-548.40087890625
-551.1474609375
-548.40087890625
-548.40087890625
-551.1474609375
-550.23193359375
-546.56982421875
-544.73876953125
-544.73876953125
-542.90771484375
-542.90771484375
-541.07666015625
-544.73876953125
-548.40087890625
-546.56982421875
-547.4853515625
-543.8232421875
-545.654296875
-549.31640625
-546.56982421875
-548.40087890625
-548.40087890625
-543.8232421875
-549.31640625
-549.31640625
-550.23193359375
-548.40087890625
-549.31640625
-547.4853515625
-547.4853515625
-545.654296875
-544.73876953125
-544.73876953125
-541.9921875
-544.73876953125
-544.73876953125
-549.31640625
-550.23193359375
-551.1474609375
-551.1474609375
-552.06298828125
-550.23193359375
-546.56982421875
-548.40087890625
-548.40087890625
-548.40087890625
-543.8232421875
-548.40087890625
-548.40087890625
-549.31640625
-545.654296875
-547.4853515625
-548.40087890625
-545.654296875
-544.73876953125
-541.07666015625
-548.40087890625
-550.23193359375
-546.56982421875
-546.56982421875
-541.9921875
-544.73876953125
-542.90771484375
-545.654296875
-543.8232421875
-548.40087890625
-546.56982421875
-545.654296875
-550.23193359375
-544.73876953125
-542.90771484375
-542.90771484375
-545.654296875
-547.4853515625
-544.73876953125
-541.9921875
-552.06298828125
-550.23193359375
-546.56982421875
-552.06298828125
-553.89404296875
-554.8095703125
-549.31640625
-545.654296875
-551.1474609375
-546.56982421875
-547.4853515625
-549.31640625
-551.1474609375
-546.56982421875
-544.73876953125
-539.24560546875
-541.07666015625
-543.8232421875
-540.1611328125
-537.41455078125
-541.07666015625
-540.1611328125
-538.330078125
-539.24560546875
-538.330078125
-536.4990234375
-534.66796875
-534.66796875
-541.07666015625
-541.07666015625
-536.4990234375
-533.75244140625
-536.4990234375
-522.76611328125
-524.59716796875
-525.5126953125
-530.09033203125
-534.66796875
-529.1748046875
-532.8369140625
-527.34375
-520.01953125
-523.681640625
-516.357421875
-511.77978515625
-512.6953125
-523.681640625
-522.76611328125
-504.45556640625
-507.2021484375
-508.11767578125
-509.033203125
-515.44189453125
-522.76611328125
-521.8505859375
-518.1884765625
-521.8505859375
-516.357421875
-524.59716796875
-520.93505859375
-522.76611328125
-522.76611328125
-529.1748046875
-533.75244140625
-526.42822265625
-532.8369140625
-544.73876953125
-550.23193359375
-552.06298828125
-554.8095703125
-550.23193359375
-552.978515625
-551.1474609375
-552.978515625
-549.31640625
-546.56982421875
-548.40087890625
-545.654296875
-544.73876953125
-541.07666015625
-544.73876953125
-544.73876953125
-546.56982421875
-540.1611328125
-543.8232421875
-540.1611328125
-543.8232421875
-541.07666015625
-539.24560546875
-538.330078125
-538.330078125
-540.1611328125
-548.40087890625
-555.72509765625
-570.37353515625
-568.54248046875
-544.73876953125
-499.8779296875
-411.9873046875
-294.7998046875
-162.9638671875
-45.7763671875
92.46826171875
239.8681640625
391.845703125
545.654296875
671.08154296875
781.8603515625
834.9609375
815.73486328125
734.2529296875
564.88037109375
325.927734375
158.38623046875
60.4248046875
-50.35400390625
-136.41357421875
-191.34521484375
-242.61474609375
-284.72900390625
-313.1103515625
-316.7724609375
-321.35009765625
-342.4072265625
-368.95751953125
-392.76123046875
-381.77490234375
-361.63330078125
-360.7177734375
-361.63330078125
-371.7041015625
-380.859375
-398.25439453125
-407.40966796875
-410.15625
-417.48046875
-422.9736328125
-426.6357421875
-431.21337890625
-427.55126953125
-432.12890625
-434.87548828125
-435.791015625
-435.791015625
-438.53759765625
-440.36865234375
-436.70654296875
-437.6220703125
-433.04443359375
-432.12890625
-430.2978515625
-427.55126953125
-430.2978515625
-427.55126953125
-425.72021484375
-421.142578125
-422.9736328125
-422.05810546875
-420.22705078125
-413.818359375
-420.22705078125
-414.73388671875
-416.56494140625
-414.73388671875
-408.3251953125
-411.9873046875
-406.494140625
-407.40966796875
-401.0009765625
-395.5078125
-392.76123046875
-390.0146484375
-390.93017578125
-386.3525390625
-382.6904296875
-382.6904296875
-376.28173828125
-372.61962890625
-372.61962890625
-366.2109375
-365.29541015625
-364.3798828125
-356.14013671875
-356.14013671875
-347.900390625
-346.98486328125
-342.4072265625
-337.82958984375
-334.16748046875
-334.16748046875
-332.33642578125
-330.50537109375
-320.4345703125
-314.94140625
-314.02587890625
-305.7861328125
-307.6171875
-303.03955078125
-295.71533203125
-286.56005859375
-281.982421875
-277.40478515625
-269.1650390625
-263.671875
-255.43212890625
-249.93896484375
-247.1923828125
-236.2060546875
-225.2197265625
-216.97998046875
-210.5712890625
-201.416015625
-196.83837890625
-184.02099609375
-174.86572265625
-161.1328125
-154.72412109375
-144.6533203125
-138.24462890625
-121.76513671875
-116.27197265625
-106.201171875
-96.13037109375
-83.31298828125
-65.91796875
-63.17138671875
-52.18505859375
-42.1142578125
-28.38134765625
-20.1416015625
-10.986328125
-5.4931640625
0.91552734375
7.32421875
12.8173828125
20.1416015625
18.310546875
15.56396484375
14.6484375
10.986328125
-1.8310546875
-7.32421875
-19.22607421875
-30.21240234375
-45.7763671875
-61.34033203125
-80.56640625
-107.11669921875
-122.6806640625
-148.3154296875
-170.2880859375
-195.00732421875
-217.8955078125
-237.12158203125
-260.009765625
-281.982421875
-304.87060546875
-330.50537109375
-349.7314453125
-367.12646484375
-378.11279296875
-397.3388671875
-414.73388671875
-431.21337890625
-436.70654296875
-451.35498046875
-461.42578125
-473.32763671875
-477.9052734375
-484.31396484375
-487.97607421875
-496.2158203125
-501.708984375
-506.28662109375
-509.033203125
-513.61083984375
-519.10400390625
-520.93505859375
-521.8505859375
-520.93505859375
-522.76611328125
-522.76611328125
-530.09033203125
-532.8369140625
-533.75244140625
-535.58349609375
-529.1748046875
-536.4990234375
-540.1611328125
-536.4990234375
-538.330078125
-536.4990234375
-536.4990234375
-530.09033203125
-536.4990234375
-535.58349609375
-538.330078125
-536.4990234375
-536.4990234375
-529.1748046875
-532.8369140625
-535.58349609375
-534.66796875
-534.66796875
-533.75244140625
-531.92138671875
-529.1748046875
-536.4990234375
-528.25927734375
-524.59716796875
-524.59716796875
-526.42822265625
-527.34375
-531.005859375
-530.09033203125
-522.76611328125
-526.42822265625
-529.1748046875
-528.25927734375
-526.42822265625
-532.8369140625
-529.1748046875
-529.1748046875
-531.005859375
-531.005859375
-531.92138671875
-529.1748046875
-528.25927734375
-530.09033203125
-532.8369140625
-528.25927734375
-534.66796875
-530.09033203125
-532.8369140625
-531.005859375
-533.75244140625
-535.58349609375
-533.75244140625
-536.4990234375
-532.8369140625
-533.75244140625
-533.75244140625
-538.330078125
-540.1611328125
-542.90771484375
-539.24560546875
-541.07666015625
-538.330078125
-543.8232421875
-540.1611328125
-543.8232421875
-539.24560546875
-540.1611328125
-543.8232421875
-547.4853515625
-544.73876953125
-546.56982421875
-543.8232421875
-547.4853515625
-544.73876953125
-550.23193359375
-544.73876953125
-546.56982421875
-546.56982421875
-545.654296875
-544.73876953125
-548.40087890625
-552.978515625
-547.4853515625
-542.90771484375
-545.654296875
-549.31640625
-548.40087890625
-551.1474609375
-547.4853515625
-546.56982421875
-550.23193359375
-551.1474609375
-550.23193359375
-546.56982421875
-548.40087890625
-549.31640625
-552.978515625
-552.978515625
-551.1474609375
-552.06298828125
-556.640625
-557.55615234375
-561.21826171875
-560.302734375
-560.302734375
-557.55615234375
-563.04931640625
-558.4716796875
-559.38720703125
-559.38720703125
-557.55615234375
-554.8095703125
-562.1337890625
-561.21826171875
-559.38720703125
-560.302734375
-562.1337890625
-562.1337890625
-562.1337890625
-558.4716796875
-561.21826171875
-557.55615234375
-561.21826171875
-559.38720703125
-559.38720703125
-559.38720703125
-555.72509765625
-556.640625
-558.4716796875
-562.1337890625
-560.302734375
-563.04931640625
-562.1337890625
-557.55615234375
-549.31640625
-550.23193359375
-554.8095703125
-551.1474609375
-555.72509765625
-553.89404296875
-560.302734375
-558.4716796875
-552.978515625
-555.72509765625
-553.89404296875
-554.8095703125
-553.89404296875
-555.72509765625
-551.1474609375
-557.55615234375
-555.72509765625
-556.640625
-553.89404296875
-551.1474609375
-552.06298828125
-554.8095703125
-560.302734375
-559.38720703125
-558.4716796875
-559.38720703125
-557.55615234375
-556.640625
-559.38720703125
-558.4716796875
-554.8095703125
-558.4716796875
-559.38720703125
-554.8095703125
-557.55615234375
-557.55615234375
-559.38720703125
-562.1337890625
-557.55615234375
-558.4716796875
-561.21826171875
-558.4716796875
-562.1337890625
-563.04931640625
-559.38720703125
-556.640625
-560.302734375
-560.302734375
-558.4716796875
-557.55615234375
-556.640625
-553.89404296875
-552.06298828125
-559.38720703125
-556.640625
-561.21826171875
-563.96484375
-559.38720703125
-559.38720703125
-553.89404296875
-558.4716796875
-559.38720703125
-558.4716796875
-559.38720703125
-558.4716796875
-552.06298828125
-554.8095703125
-556.640625
-552.978515625
-551.1474609375
-550.23193359375
-555.72509765625
-554.8095703125
-552.978515625
-554.8095703125
-559.38720703125
-562.1337890625
-563.96484375
-560.302734375
-561.21826171875
-562.1337890625
-563.96484375
-564.88037109375
-566.71142578125
-563.96484375
-561.21826171875
-560.302734375
-563.96484375
-563.04931640625
-564.88037109375
-563.04931640625
-565.7958984375
-564.88037109375
-565.7958984375
-564.88037109375
-563.96484375
-568.54248046875
-566.71142578125
-564.88037109375
-564.88037109375
-567.626953125
-567.626953125
-561.21826171875
-564.88037109375
-563.04931640625
-563.96484375
-562.1337890625
-564.88037109375
-567.626953125
-560.302734375
-564.88037109375
-558.4716796875
-561.21826171875
-557.55615234375
-560.302734375
-559.38720703125
-562.1337890625
-559.38720703125
-557.55615234375
-556.640625
-558.4716796875
-554.8095703125
-559.38720703125
-559.38720703125
-558.4716796875
-552.978515625
-558.4716796875
-556.640625
-553.89404296875
-552.06298828125
-558.4716796875
-561.21826171875
-563.04931640625
-560.302734375
-559.38720703125
-551.1474609375
-538.330078125
-543.8232421875
-541.9921875
-541.9921875
-539.24560546875
-533.75244140625
-537.41455078125
-539.24560546875
-531.005859375
-531.92138671875
-531.92138671875
-531.92138671875
-541.07666015625
-538.330078125
-526.42822265625
-520.93505859375
-520.93505859375
-523.681640625
-530.09033203125
-528.25927734375
-532.8369140625
-533.75244140625
-533.75244140625
-527.34375
-532.8369140625
-536.4990234375
-534.66796875
-534.66796875
-536.4990234375
-542.90771484375
-539.24560546875
-539.24560546875
-546.56982421875
-559.38720703125
-558.4716796875
-565.7958984375
-567.626953125
-565.7958984375
-567.626953125
-563.96484375
-564.88037109375
-566.71142578125
-560.302734375
-567.626953125
-559.38720703125
-559.38720703125
-562.1337890625
-558.4716796875
-558.4716796875
-558.4716796875
-559.38720703125
-558.4716796875
-557.55615234375
-559.38720703125
-558.4716796875
-558.4716796875
-555.72509765625
-552.978515625
-553.89404296875
-565.7958984375
-582.275390625
-595.0927734375
-590.51513671875
-554.8095703125
-506.28662109375
-410.15625
-287.4755859375
-160.21728515625
-35.70556640625
115.3564453125
263.671875
425.72021484375
569.4580078125
695.80078125
798.33984375
834.04541015625
798.33984375
702.20947265625
523.681640625
297.54638671875
162.04833984375
58.59375
-49.4384765625
-121.76513671875
-189.51416015625
-240.78369140625
-283.8134765625
-309.4482421875
-315.85693359375
-326.84326171875
-355.224609375
-393.6767578125
-400.08544921875
-378.11279296875
-361.63330078125
-368.0419921875
-376.28173828125
-382.6904296875
-399.169921875
-409.24072265625
-425.72021484375
-433.04443359375
-437.6220703125
-440.36865234375
-443.115234375
-449.52392578125
-454.1015625
-451.35498046875
-455.01708984375
-451.35498046875
-455.01708984375
-453.18603515625
-454.1015625
-449.52392578125
-452.2705078125
-451.35498046875
-451.35498046875
-447.69287109375
-448.6083984375
-448.6083984375
-446.77734375
-446.77734375
-441.2841796875
-441.2841796875
-440.36865234375
-450.439453125
-444.03076171875
-437.6220703125
-434.87548828125
-433.9599609375
-429.38232421875
-426.6357421875
-427.55126953125
-422.9736328125
-419.3115234375
-417.48046875
-411.9873046875
-408.3251953125
-402.83203125
-405.57861328125
-401.91650390625
-399.169921875
-400.08544921875
-394.59228515625
-387.26806640625
-386.3525390625
-385.43701171875
-377.197265625
-375.3662109375
-376.28173828125
-371.7041015625
-372.61962890625
-367.12646484375
-358.88671875
-357.0556640625
-353.3935546875
-348.81591796875
-351.5625
-340.576171875
-339.66064453125
-334.16748046875
-329.58984375
-325.01220703125
-321.35009765625
-312.19482421875
-311.279296875
-304.87060546875
-301.20849609375
-294.7998046875
-290.22216796875
-280.1513671875
-275.57373046875
-267.333984375
-259.09423828125
-250.8544921875
-254.5166015625
-248.10791015625
-236.2060546875
-224.30419921875
-222.47314453125
-210.5712890625
-194.091796875
-196.83837890625
-181.2744140625
-169.37255859375
-166.6259765625
-155.6396484375
-145.56884765625
-126.3427734375
-117.1875
-110.77880859375
-103.45458984375
-93.3837890625
-77.81982421875
-67.7490234375
-61.34033203125
-48.52294921875
-40.283203125
-30.21240234375
-25.634765625
-17.39501953125
-8.23974609375
-8.23974609375
0
0.91552734375
-0.91552734375
-4.57763671875
-10.07080078125
-16.4794921875
-27.4658203125
-40.283203125
-56.7626953125
-74.15771484375
-89.7216796875
-106.201171875
-133.6669921875
-152.89306640625
-171.20361328125
-197.75390625
-216.97998046875
-242.61474609375
-265.5029296875
-285.64453125
-310.36376953125
-329.58984375
-354.30908203125
-375.3662109375
-389.09912109375
-407.40966796875
-418.39599609375
-436.70654296875
-454.1015625
-461.42578125
-473.32763671875
-481.5673828125
-493.46923828125
-502.62451171875
-508.11767578125
-513.61083984375
-520.01953125
-520.93505859375
-526.42822265625
-527.34375
-532.8369140625
-534.66796875
-541.07666015625
-542.90771484375
-543.8232421875
-541.07666015625
-541.9921875
-541.07666015625
-544.73876953125
-543.8232421875
-545.654296875
-546.56982421875
-544.73876953125
-547.4853515625
-548.40087890625
-545.654296875
-544.73876953125
-546.56982421875
-548.40087890625
-550.23193359375
-547.4853515625
-545.654296875
-546.56982421875
-543.8232421875
-545.654296875
-541.9921875
-540.1611328125
-544.73876953125
-547.4853515625
-542.90771484375
-540.1611328125
-542.90771484375
-543.8232421875
-541.9921875
-536.4990234375
-538.330078125
-544.73876953125
-544.73876953125
-539.24560546875
-541.9921875
-544.73876953125
-540.1611328125
-540.1611328125
-542.90771484375
-541.07666015625
-540.1611328125
-540.1611328125
-545.654296875
-543.8232421875
-541.07666015625
-540.1611328125
-541.9921875
-540.1611328125
-540.1611328125
-543.8232421875
-539.24560546875
-541.07666015625
-538.330078125
-541.07666015625
-540.1611328125
-543.8232421875
-541.9921875
-541.07666015625
-544.73876953125
-540.1611328125
-541.07666015625
-541.07666015625
-542.90771484375
-545.654296875
-544.73876953125
-548.40087890625
-550.23193359375
-550.23193359375
-552.978515625
-553.89404296875
-548.40087890625
-551.1474609375
-553.89404296875
-554.8095703125
-555.72509765625
-557.55615234375
-559.38720703125
-559.38720703125
-563.04931640625
-555.72509765625
-558.4716796875
-554.8095703125
-557.55615234375
-561.21826171875
-572.20458984375
-577.69775390625
-579.52880859375
-583.19091796875
-584.1064453125
-582.275390625
-584.1064453125
-585.9375
-583.19091796875
-582.275390625
-587.7685546875
-585.02197265625
-585.02197265625
-586.85302734375
-588.68408203125
-587.7685546875
-587.7685546875
-585.9375
-589.599609375
-588.68408203125
-587.7685546875
-589.599609375
-590.51513671875
-587.7685546875
-596.00830078125
-596.00830078125
-594.17724609375
-591.4306640625
-594.17724609375
-591.4306640625
-592.34619140625
-591.4306640625
-595.0927734375
-595.0927734375
-595.0927734375
-600.5859375
-593.26171875
-594.17724609375
-587.7685546875
-596.00830078125
-594.17724609375
-598.7548828125
-596.923828125
-596.923828125
-596.00830078125
-597.83935546875
-602.4169921875
-599.67041015625
-600.5859375
-597.83935546875
-597.83935546875
-596.00830078125
-598.7548828125
-597.83935546875
-599.67041015625
-600.5859375
-599.67041015625
-596.923828125
-598.7548828125
-594.17724609375
-595.0927734375
-593.26171875
-594.17724609375
-594.17724609375
-593.26171875
-591.4306640625
-593.26171875
-592.34619140625
-590.51513671875
-593.26171875
-593.26171875
-592.34619140625
-590.51513671875
-593.26171875
-589.599609375
-590.51513671875
-587.7685546875
-586.85302734375
-587.7685546875
-590.51513671875
-593.26171875
-597.83935546875
-595.0927734375
-594.17724609375
-596.00830078125
-593.26171875
-594.17724609375
-591.4306640625
-589.599609375
-593.26171875
-588.68408203125
-591.4306640625
-589.599609375
-594.17724609375
-596.00830078125
-593.26171875
-596.923828125
-595.0927734375
-591.4306640625
-596.00830078125
-594.17724609375
-597.83935546875
-591.4306640625
-592.34619140625
-597.83935546875
-598.7548828125
-591.4306640625
-595.0927734375
-595.0927734375
-596.00830078125
-594.17724609375
-589.599609375
-587.7685546875
-590.51513671875
-589.599609375
-595.0927734375
-591.4306640625
-595.0927734375
-595.0927734375
-592.34619140625
-594.17724609375
-585.02197265625
-588.68408203125
-587.7685546875
-592.34619140625
-591.4306640625
-594.17724609375
-593.26171875
-589.599609375
-592.34619140625
-591.4306640625
-584.1064453125
-585.9375
-592.34619140625
-587.7685546875
-589.599609375
-595.0927734375
-592.34619140625
-588.68408203125
-587.7685546875
-585.9375
-589.599609375
-590.51513671875
-588.68408203125
-592.34619140625
-586.85302734375
-585.9375
-587.7685546875
-589.599609375
-593.26171875
-588.68408203125
-591.4306640625
-588.68408203125
-589.599609375
-593.26171875
-585.9375
-588.68408203125
-589.599609375
-590.51513671875
-590.51513671875
-589.599609375
-592.34619140625
-595.0927734375
-592.34619140625
-592.34619140625
-591.4306640625
-586.85302734375
-583.19091796875
-592.34619140625
-586.85302734375
-589.599609375
-586.85302734375
-583.19091796875
-582.275390625
-585.02197265625
-582.275390625
-584.1064453125
-584.1064453125
-581.35986328125
-580.4443359375
-583.19091796875
-581.35986328125
-577.69775390625
-576.7822265625
-577.69775390625
-577.69775390625
-577.69775390625
