ECG
-20.1416015625
-15.56396484375
-15.56396484375
-24.71923828125
-28.38134765625
-35.70556640625
-32.04345703125
-31.1279296875
-32.04345703125
-31.1279296875
-26.55029296875
-24.71923828125
-29.296875
-34.7900390625
-42.1142578125
-30.21240234375
-31.1279296875
-41.19873046875
-38.4521484375
-27.4658203125
-34.7900390625
-39.36767578125
-32.04345703125
-36.62109375
-39.36767578125
-38.4521484375
-45.7763671875
-50.35400390625
-48.52294921875
-56.7626953125
-57.67822265625
-53.1005859375
-58.59375
-62.255859375
-54.01611328125
-63.17138671875
-66.83349609375
-71.4111328125
-80.56640625
-82.3974609375
-90.63720703125
-92.46826171875
-86.97509765625
-86.0595703125
-88.80615234375
-91.552734375
-93.3837890625
-92.46826171875
-91.552734375
-91.552734375
-93.3837890625
-85.14404296875
-84.228515625
-90.63720703125
-89.7216796875
-84.228515625
-90.63720703125
-89.7216796875
-80.56640625
-80.56640625
-74.15771484375
-73.2421875
-75.0732421875
-82.3974609375
-97.0458984375
-115.3564453125
-124.51171875
-99.79248046875
-61.34033203125
42.1142578125
167.54150390625
302.1240234375
415.6494140625
552.06298828125
708.6181640625
874.32861328125
1024.47509765625
1162.7197265625
1278.99169921875
1323.8525390625
1302.79541015625
1211.24267578125
1001.5869140625
726.01318359375
548.40087890625
436.70654296875
314.94140625
224.30419921875
162.04833984375
128.173828125
95.21484375
74.15771484375
72.32666015625
66.83349609375
45.7763671875
29.296875
23.8037109375
14.6484375
33.87451171875
63.17138671875
72.32666015625
71.4111328125
61.34033203125
55.84716796875
44.86083984375
29.296875
31.1279296875
31.1279296875
25.634765625
26.55029296875
25.634765625
23.8037109375
26.55029296875
17.39501953125
15.56396484375
14.6484375
21.97265625
21.97265625
22.88818359375
21.97265625
20.1416015625
27.4658203125
23.8037109375
26.55029296875
32.958984375
29.296875
32.958984375
36.62109375
40.283203125
43.02978515625
41.19873046875
49.4384765625
48.52294921875
51.26953125
55.84716796875
42.1142578125
51.26953125
60.4248046875
66.83349609375
65.00244140625
72.32666015625
73.2421875
81.48193359375
79.65087890625
80.56640625
84.228515625
88.80615234375
94.29931640625
94.29931640625
105.28564453125
106.201171875
108.0322265625
108.0322265625
108.94775390625
119.0185546875
125.42724609375
121.76513671875
124.51171875
133.6669921875
137.3291015625
148.3154296875
151.06201171875
161.1328125
163.87939453125
160.21728515625
167.54150390625
176.69677734375
182.18994140625
184.9365234375
188.5986328125
197.75390625
209.65576171875
216.97998046875
221.5576171875
218.81103515625
230.712890625
242.61474609375
251.77001953125
253.60107421875
267.333984375
281.06689453125
286.56005859375
294.7998046875
306.70166015625
317.68798828125
328.67431640625
337.82958984375
351.5625
358.88671875
367.12646484375
386.3525390625
388.18359375
399.169921875
411.07177734375
421.142578125
438.53759765625
451.35498046875
464.17236328125
465.087890625
482.48291015625
490.72265625
502.62451171875
511.77978515625
511.77978515625
515.44189453125
522.76611328125
521.8505859375
520.01953125
517.27294921875
504.45556640625
495.30029296875
487.060546875
473.32763671875
455.9326171875
436.70654296875
413.818359375
394.59228515625
367.12646484375
346.98486328125
327.7587890625
301.20849609375
277.40478515625
252.685546875
223.388671875
204.16259765625
179.443359375
158.38623046875
132.75146484375
116.27197265625
103.45458984375
81.48193359375
60.4248046875
48.52294921875
32.958984375
22.88818359375
11.90185546875
6.40869140625
-3.662109375
-16.4794921875
-29.296875
-32.04345703125
-32.958984375
-40.283203125
-46.69189453125
-51.26953125
-54.931640625
-59.50927734375
-64.0869140625
-63.17138671875
-61.34033203125
-58.59375
-64.0869140625
-63.17138671875
-59.50927734375
-63.17138671875
-65.91796875
-66.83349609375
-69.580078125
-73.2421875
-72.32666015625
-64.0869140625
-69.580078125
-62.255859375
-65.91796875
-70.49560546875
-73.2421875
-76.904296875
-74.15771484375
-65.91796875
-71.4111328125
-70.49560546875
-69.580078125
-68.66455078125
-68.66455078125
-66.83349609375
-66.83349609375
-63.17138671875
-63.17138671875
-67.7490234375
-65.91796875
-66.83349609375
-69.580078125
-54.01611328125
-66.83349609375
-67.7490234375
-63.17138671875
-67.7490234375
-68.66455078125
-59.50927734375
-60.4248046875
-60.4248046875
-56.7626953125
-57.67822265625
-60.4248046875
-52.18505859375
-45.7763671875
-64.0869140625
-67.7490234375
-57.67822265625
-62.255859375
-64.0869140625
-60.4248046875
-58.59375
-65.00244140625
-67.7490234375
-63.17138671875
-60.4248046875
-60.4248046875
-68.66455078125
-68.66455078125
-65.91796875
-63.17138671875
-61.34033203125
-67.7490234375
-64.0869140625
-71.4111328125
-75.98876953125
-70.49560546875
-72.32666015625
-74.15771484375
-68.66455078125
-75.98876953125
-73.2421875
-70.49560546875
-73.2421875
-76.904296875
-77.81982421875
-79.65087890625
-73.2421875
-70.49560546875
-82.3974609375
-81.48193359375
-83.31298828125
-86.97509765625
-83.31298828125
-80.56640625
-76.904296875
-81.48193359375
-81.48193359375
-81.48193359375
-85.14404296875
-85.14404296875
-87.890625
-86.0595703125
-86.97509765625
-86.97509765625
-85.14404296875
-83.31298828125
-90.63720703125
-91.552734375
-88.80615234375
-85.14404296875
-85.14404296875
-91.552734375
-91.552734375
-87.890625
-81.48193359375
-86.0595703125
-87.890625
-93.3837890625
-94.29931640625
-92.46826171875
-89.7216796875
-88.80615234375
-88.80615234375
-92.46826171875
-95.21484375
-94.29931640625
-88.80615234375
-90.63720703125
-91.552734375
-88.80615234375
-91.552734375
-97.0458984375
-96.13037109375
-92.46826171875
-95.21484375
-97.96142578125
-98.876953125
-93.3837890625
-95.21484375
-100.7080078125
-97.0458984375
-88.80615234375
-93.3837890625
-91.552734375
-99.79248046875
-100.7080078125
-96.13037109375
-94.29931640625
-93.3837890625
-93.3837890625
-92.46826171875
-99.79248046875
-101.62353515625
-100.7080078125
-94.29931640625
-89.7216796875
-97.0458984375
-98.876953125
-90.63720703125
-89.7216796875
-84.228515625
-90.63720703125
-97.0458984375
-94.29931640625
-97.96142578125
-96.13037109375
-89.7216796875
-94.29931640625
-95.21484375
-93.3837890625
-97.96142578125
-99.79248046875
-91.552734375
-91.552734375
-97.0458984375
-103.45458984375
-91.552734375
-98.876953125
-103.45458984375
-94.29931640625
-90.63720703125
-93.3837890625
-92.46826171875
-92.46826171875
-94.29931640625
-93.3837890625
-91.552734375
-97.0458984375
-96.13037109375
-100.7080078125
-97.96142578125
-94.29931640625
-96.13037109375
-93.3837890625
-96.13037109375
-97.0458984375
-93.3837890625
-99.79248046875
-99.79248046875
-98.876953125
-94.29931640625
-92.46826171875
-91.552734375
-92.46826171875
-93.3837890625
-89.7216796875
-87.890625
-86.97509765625
-82.3974609375
-73.2421875
-77.81982421875
-79.65087890625
-83.31298828125
-79.65087890625
-66.83349609375
-70.49560546875
-63.17138671875
-53.1005859375
-44.86083984375
-42.1142578125
-41.19873046875
-36.62109375
-34.7900390625
-47.607421875
-55.84716796875
-54.931640625
-57.67822265625
-64.0869140625
-62.255859375
-51.26953125
-55.84716796875
-62.255859375
-54.01611328125
-50.35400390625
-48.52294921875
-57.67822265625
-65.91796875
-56.7626953125
-48.52294921875
-45.7763671875
-64.0869140625
-64.0869140625
-63.17138671875
-63.17138671875
-69.580078125
-66.83349609375
-71.4111328125
-76.904296875
-74.15771484375
-75.0732421875
-77.81982421875
-72.32666015625
-75.0732421875
-80.56640625
-86.97509765625
-82.3974609375
-91.552734375
-99.79248046875
-95.21484375
-104.3701171875
-117.1875
-112.60986328125
-108.0322265625
-115.3564453125
-121.76513671875
-117.1875
-111.6943359375
-105.28564453125
-109.86328125
-104.3701171875
-111.6943359375
-116.27197265625
-119.0185546875
-112.60986328125
-100.7080078125
-99.79248046875
-100.7080078125
-102.5390625
-94.29931640625
-97.96142578125
-93.3837890625
-98.876953125
-98.876953125
-108.0322265625
-123.59619140625
-134.58251953125
-134.58251953125
-103.45458984375
-40.283203125
70.49560546875
198.66943359375
322.265625
444.9462890625
600.5859375
754.39453125
916.44287109375
1054.6875
1203.0029296875
1293.64013671875
1324.76806640625
1273.49853515625
1137.0849609375
900.87890625
689.39208984375
564.88037109375
444.03076171875
344.23828125
256.34765625
197.75390625
143.73779296875
99.79248046875
85.14404296875
77.81982421875
66.83349609375
52.18505859375
20.1416015625
8.23974609375
31.1279296875
54.01611328125
58.59375
59.50927734375
54.01611328125
45.7763671875
39.36767578125
24.71923828125
13.73291015625
2.74658203125
3.662109375
5.4931640625
4.57763671875
5.4931640625
9.1552734375
7.32421875
2.74658203125
4.57763671875
8.23974609375
7.32421875
0.91552734375
5.4931640625
5.4931640625
5.4931640625
12.8173828125
10.986328125
12.8173828125
12.8173828125
20.1416015625
20.1416015625
18.310546875
16.4794921875
23.8037109375
24.71923828125
17.39501953125
26.55029296875
34.7900390625
34.7900390625
33.87451171875
36.62109375
43.02978515625
46.69189453125
55.84716796875
50.35400390625
54.931640625
70.49560546875
66.83349609375
61.34033203125
69.580078125
75.0732421875
73.2421875
74.15771484375
79.65087890625
84.228515625
89.7216796875
92.46826171875
97.0458984375
95.21484375
102.5390625
108.0322265625
112.60986328125
117.1875
119.93408203125
122.6806640625
128.173828125
132.75146484375
145.56884765625
155.6396484375
151.06201171875
160.21728515625
160.21728515625
171.20361328125
170.2880859375
179.443359375
182.18994140625
185.85205078125
199.5849609375
209.65576171875
205.99365234375
212.40234375
222.47314453125
227.05078125
234.375
256.34765625
265.5029296875
270.99609375
280.1513671875
294.7998046875
302.1240234375
304.87060546875
316.7724609375
331.4208984375
336.9140625
347.900390625
360.7177734375
372.61962890625
387.26806640625
403.74755859375
407.40966796875
420.22705078125
427.55126953125
443.115234375
454.1015625
454.1015625
470.5810546875
477.9052734375
484.31396484375
495.30029296875
494.384765625
496.2158203125
498.96240234375
500.79345703125
487.97607421875
483.3984375
479.736328125
466.9189453125
451.35498046875
441.2841796875
417.48046875
390.93017578125
382.6904296875
357.0556640625
327.7587890625
310.36376953125
286.56005859375
265.5029296875
237.12158203125
211.48681640625
186.767578125
167.54150390625
143.73779296875
127.25830078125
112.60986328125
90.63720703125
74.15771484375
50.35400390625
33.87451171875
23.8037109375
10.07080078125
0
-6.40869140625
-6.40869140625
-28.38134765625
-32.958984375
-42.1142578125
-50.35400390625
-58.59375
-58.59375
-62.255859375
-69.580078125
-65.00244140625
-62.255859375
-65.00244140625
-66.83349609375
-68.66455078125
-76.904296875
-73.2421875
-68.66455078125
-73.2421875
-85.14404296875
-87.890625
-75.98876953125
-77.81982421875
-75.98876953125
-78.7353515625
-76.904296875
-81.48193359375
-78.7353515625
-76.904296875
-76.904296875
-74.15771484375
-74.15771484375
-73.2421875
-72.32666015625
-70.49560546875
-73.2421875
-72.32666015625
-66.83349609375
-60.4248046875
-63.17138671875
-69.580078125
-68.66455078125
-63.17138671875
-69.580078125
-71.4111328125
-71.4111328125
-69.580078125
-70.49560546875
-71.4111328125
-65.91796875
-65.91796875
-69.580078125
-73.2421875
-64.0869140625
-71.4111328125
-75.0732421875
-73.2421875
-66.83349609375
-63.17138671875
-69.580078125
-75.0732421875
-68.66455078125
-71.4111328125
-72.32666015625
-77.81982421875
-75.0732421875
-75.98876953125
-73.2421875
-71.4111328125
-70.49560546875
-74.15771484375
-67.7490234375
-74.15771484375
-78.7353515625
-78.7353515625
-79.65087890625
-76.904296875
-69.580078125
-76.904296875
-81.48193359375
-78.7353515625
-82.3974609375
-75.0732421875
-80.56640625
-75.0732421875
-86.0595703125
-79.65087890625
-83.31298828125
-81.48193359375
-81.48193359375
-80.56640625
-83.31298828125
-81.48193359375
-84.228515625
-91.552734375
-89.7216796875
-85.14404296875
-85.14404296875
-89.7216796875
-101.62353515625
-99.79248046875
-97.96142578125
-84.228515625
-88.80615234375
-86.0595703125
-90.63720703125
-87.890625
-87.890625
-86.97509765625
-88.80615234375
-87.890625
-86.0595703125
-89.7216796875
-90.63720703125
-96.13037109375
-90.63720703125
-85.14404296875
-93.3837890625
-97.0458984375
-97.0458984375
-95.21484375
-97.96142578125
-97.0458984375
-98.876953125
-96.13037109375
-98.876953125
-91.552734375
-86.97509765625
-82.3974609375
-93.3837890625
-93.3837890625
-74.15771484375
-69.580078125
-83.31298828125
-91.552734375
-96.13037109375
-89.7216796875
-91.552734375
-92.46826171875
-91.552734375
-90.63720703125
-87.890625
-88.80615234375
-90.63720703125
-94.29931640625
-92.46826171875
-97.0458984375
-99.79248046875
-96.13037109375
-89.7216796875
-92.46826171875
-91.552734375
-89.7216796875
-92.46826171875
-95.21484375
-94.29931640625
-91.552734375
-83.31298828125
-78.7353515625
-85.14404296875
-95.21484375
-92.46826171875
-97.0458984375
-93.3837890625
-87.890625
-92.46826171875
-86.97509765625
-81.48193359375
-83.31298828125
-89.7216796875
-86.0595703125
-86.0595703125
-86.97509765625
-97.0458984375
-92.46826171875
-94.29931640625
-93.3837890625
-86.0595703125
-91.552734375
-80.56640625
-85.14404296875
-84.228515625
-85.14404296875
-89.7216796875
-87.890625
-88.80615234375
-90.63720703125
-86.0595703125
-86.0595703125
-86.0595703125
-84.228515625
-86.0595703125
-92.46826171875
-90.63720703125
-88.80615234375
-95.21484375
-88.80615234375
-92.46826171875
-91.552734375
-91.552734375
-91.552734375
-85.14404296875
-81.48193359375
-83.31298828125
-86.97509765625
-88.80615234375
-83.31298828125
-90.63720703125
-91.552734375
-88.80615234375
-94.29931640625
-94.29931640625
-89.7216796875
-85.14404296875
-86.0595703125
-83.31298828125
-73.2421875
-75.0732421875
-75.98876953125
-73.2421875
-70.49560546875
-74.15771484375
-75.0732421875
-70.49560546875
-64.0869140625
-57.67822265625
-54.931640625
-41.19873046875
-33.87451171875
-31.1279296875
-33.87451171875
-40.283203125
-47.607421875
-50.35400390625
-44.86083984375
-40.283203125
-32.958984375
-46.69189453125
-46.69189453125
-41.19873046875
-39.36767578125
-36.62109375
-35.70556640625
-35.70556640625
-43.02978515625
-47.607421875
-49.4384765625
-42.1142578125
-35.70556640625
-45.7763671875
-41.19873046875
-46.69189453125
-53.1005859375
-51.26953125
-54.931640625
-54.931640625
-49.4384765625
-54.01611328125
-53.1005859375
-52.18505859375
-59.50927734375
-64.0869140625
-70.49560546875
-65.91796875
-65.91796875
-72.32666015625
-83.31298828125
-91.552734375
-91.552734375
-106.201171875
-100.7080078125
-90.63720703125
-80.56640625
-87.890625
-93.3837890625
-96.13037109375
-90.63720703125
-92.46826171875
-83.31298828125
-92.46826171875
-93.3837890625
-93.3837890625
-83.31298828125
-81.48193359375
-76.904296875
-80.56640625
-82.3974609375
-82.3974609375
-75.0732421875
-75.0732421875
-70.49560546875
-74.15771484375
-92.46826171875
-118.10302734375
-130.92041015625
-116.27197265625
-69.580078125
-5.4931640625
110.77880859375
246.27685546875
368.95751953125
504.45556640625
660.09521484375
813.90380859375
981.4453125
1112.36572265625
1240.53955078125
1314.697265625
1311.95068359375
1245.1171875
1071.1669921875
789.1845703125
564.88037109375
450.439453125
323.18115234375
225.2197265625
166.6259765625
130.0048828125
108.0322265625
81.48193359375
69.580078125
71.4111328125
44.86083984375
28.38134765625
23.8037109375
20.1416015625
32.958984375
54.931640625
71.4111328125
75.0732421875
73.2421875
65.91796875
57.67822265625
51.26953125
40.283203125
44.86083984375
34.7900390625
26.55029296875
26.55029296875
35.70556640625
31.1279296875
26.55029296875
30.21240234375
26.55029296875
29.296875
34.7900390625
31.1279296875
34.7900390625
32.04345703125
40.283203125
42.1142578125
33.87451171875
36.62109375
39.36767578125
41.19873046875
48.52294921875
51.26953125
60.4248046875
56.7626953125
54.01611328125
58.59375
65.00244140625
63.17138671875
70.49560546875
74.15771484375
75.0732421875
74.15771484375
78.7353515625
82.3974609375
92.46826171875
85.14404296875
88.80615234375
92.46826171875
98.876953125
103.45458984375
112.60986328125
113.525390625
115.3564453125
114.44091796875
117.1875
112.60986328125
124.51171875
132.75146484375
134.58251953125
140.07568359375
133.6669921875
141.90673828125
150.146484375
152.89306640625
152.89306640625
154.72412109375
164.794921875
167.54150390625
174.86572265625
174.86572265625
181.2744140625
197.75390625
207.82470703125
208.740234375
208.740234375
216.97998046875
224.30419921875
234.375
240.78369140625
245.361328125
249.93896484375
260.009765625
270.99609375
284.72900390625
285.64453125
289.306640625
302.1240234375
315.85693359375
327.7587890625
340.576171875
353.3935546875
362.548828125
369.873046875
378.11279296875
390.0146484375
396.42333984375
411.07177734375
418.39599609375
430.2978515625
447.69287109375
456.84814453125
466.00341796875
474.2431640625
487.060546875
488.8916015625
501.708984375
518.1884765625
517.27294921875
531.005859375
529.1748046875
531.92138671875
531.005859375
522.76611328125
519.10400390625
509.94873046875
500.79345703125
491.63818359375
477.9052734375
461.42578125
439.453125
418.39599609375
395.5078125
375.3662109375
356.14013671875
334.16748046875
304.87060546875
281.982421875
251.77001953125
227.96630859375
210.5712890625
190.4296875
169.37255859375
148.3154296875
127.25830078125
115.3564453125
97.0458984375
71.4111328125
59.50927734375
54.01611328125
33.87451171875
23.8037109375
11.90185546875
4.57763671875
-1.8310546875
-10.07080078125
-10.07080078125
-15.56396484375
-21.05712890625
-24.71923828125
-27.4658203125
-29.296875
-42.1142578125
-42.1142578125
-43.9453125
-43.9453125
-45.7763671875
-45.7763671875
-45.7763671875
-46.69189453125
-50.35400390625
-45.7763671875
-45.7763671875
-39.36767578125
-51.26953125
-52.18505859375
-52.18505859375
-48.52294921875
-51.26953125
-49.4384765625
-45.7763671875
-46.69189453125
-50.35400390625
-46.69189453125
-49.4384765625
-53.1005859375
-45.7763671875
-51.26953125
-46.69189453125
-48.52294921875
-46.69189453125
-47.607421875
-48.52294921875
-45.7763671875
-44.86083984375
-43.9453125
-46.69189453125
-51.26953125
-48.52294921875
-50.35400390625
-52.18505859375
-46.69189453125
-44.86083984375
-47.607421875
-42.1142578125
-44.86083984375
-51.26953125
-43.02978515625
-40.283203125
-48.52294921875
-44.86083984375
-50.35400390625
-54.01611328125
-51.26953125
-46.69189453125
-51.26953125
-50.35400390625
-46.69189453125
-49.4384765625
-52.18505859375
-54.931640625
-53.1005859375
-50.35400390625
-49.4384765625
-47.607421875
-46.69189453125
-55.84716796875
-53.1005859375
-51.26953125
-49.4384765625
-59.50927734375
-68.66455078125
-65.00244140625
-61.34033203125
-61.34033203125
-66.83349609375
-64.0869140625
-65.91796875
-59.50927734375
-55.84716796875
-63.17138671875
-66.83349609375
-65.91796875
-60.4248046875
-61.34033203125
-69.580078125
-67.7490234375
-62.255859375
-73.2421875
-73.2421875
-71.4111328125
-71.4111328125
-68.66455078125
-64.0869140625
-68.66455078125
-69.580078125
-73.2421875
-69.580078125
-68.66455078125
-75.0732421875
-81.48193359375
-79.65087890625
-70.49560546875
-70.49560546875
-68.66455078125
-77.81982421875
-73.2421875
-77.81982421875
-72.32666015625
-74.15771484375
-75.98876953125
-83.31298828125
-82.3974609375
-84.228515625
-74.15771484375
-86.97509765625
-79.65087890625
-82.3974609375
-82.3974609375
-79.65087890625
-73.2421875
-70.49560546875
-80.56640625
-79.65087890625
-75.0732421875
-80.56640625
-81.48193359375
-80.56640625
-80.56640625
-82.3974609375
-85.14404296875
-82.3974609375
-76.904296875
-76.904296875
-84.228515625
-84.228515625
-82.3974609375
-80.56640625
-84.228515625
-84.228515625
-83.31298828125
-85.14404296875
-91.552734375
-81.48193359375
-84.228515625
-86.97509765625
-85.14404296875
-81.48193359375
-79.65087890625
-82.3974609375
-88.80615234375
-84.228515625
-74.15771484375
-75.98876953125
-81.48193359375
-78.7353515625
-75.0732421875
-71.4111328125
-80.56640625
-93.3837890625
-91.552734375
-90.63720703125
-86.97509765625
-89.7216796875
-88.80615234375
-87.890625
-86.97509765625
-87.890625
-82.3974609375
-82.3974609375
-83.31298828125
-86.0595703125
-85.14404296875
-78.7353515625
-79.65087890625
-80.56640625
-81.48193359375
-72.32666015625
-75.0732421875
-80.56640625
-74.15771484375
-73.2421875
-66.83349609375
-58.59375
-52.18505859375
-47.607421875
-45.7763671875
-39.36767578125
-38.4521484375
-34.7900390625
-27.4658203125
-28.38134765625
-36.62109375
-41.19873046875
-40.283203125
-41.19873046875
-44.86083984375
-44.86083984375
-39.36767578125
-34.7900390625
-43.9453125
-43.9453125
-43.02978515625
-42.1142578125
-43.9453125
-49.4384765625
-43.02978515625
-39.36767578125
-35.70556640625
-45.7763671875
-51.26953125
-54.01611328125
-63.17138671875
-60.4248046875
-56.7626953125
-50.35400390625
-54.931640625
-54.01611328125
-54.931640625
-66.83349609375
-65.91796875
-61.34033203125
-64.0869140625
-65.00244140625
-68.66455078125
-75.0732421875
-82.3974609375
-81.48193359375
-97.0458984375
-98.876953125
-97.0458984375
-99.79248046875
-98.876953125
-95.21484375
-97.0458984375
-98.876953125
-93.3837890625
-91.552734375
-94.29931640625
-91.552734375
-98.876953125
-98.876953125
-97.96142578125
-97.0458984375
-90.63720703125
-90.63720703125
-92.46826171875
-89.7216796875
-87.890625
-88.80615234375
-86.97509765625
-84.228515625
-97.96142578125
-115.3564453125
-126.3427734375
-126.3427734375
-96.13037109375
-55.84716796875
27.4658203125
146.484375
283.8134765625
405.57861328125
552.06298828125
695.80078125
863.34228515625
1016.2353515625
1145.32470703125
1265.2587890625
1310.11962890625
1300.96435546875
1198.42529296875
985.107421875
724.18212890625
560.302734375
452.2705078125
335.0830078125
246.27685546875
183.10546875
141.90673828125
97.96142578125
73.2421875
74.15771484375
63.17138671875
42.1142578125
25.634765625
9.1552734375
12.8173828125
39.36767578125
58.59375
59.50927734375
64.0869140625
52.18505859375
40.283203125
28.38134765625
18.310546875
14.6484375
5.4931640625
7.32421875
13.73291015625
12.8173828125
8.23974609375
10.986328125
5.4931640625
8.23974609375
-3.662109375
6.40869140625
10.07080078125
15.56396484375
17.39501953125
15.56396484375
16.4794921875
18.310546875
21.05712890625
21.05712890625
26.55029296875
22.88818359375
17.39501953125
24.71923828125
25.634765625
27.4658203125
35.70556640625
35.70556640625
39.36767578125
41.19873046875
44.86083984375
47.607421875
48.52294921875
50.35400390625
58.59375
58.59375
64.0869140625
61.34033203125
73.2421875
75.0732421875
64.0869140625
74.15771484375
80.56640625
79.65087890625
80.56640625
86.97509765625
86.0595703125
95.21484375
103.45458984375
108.0322265625
106.201171875
106.201171875
114.44091796875
124.51171875
124.51171875
125.42724609375
140.9912109375
145.56884765625
147.39990234375
151.06201171875
158.38623046875
157.470703125
162.9638671875
173.03466796875
176.69677734375
180.35888671875
184.02099609375
193.17626953125
202.33154296875
208.740234375
222.47314453125
226.13525390625
228.8818359375
242.61474609375
253.60107421875
265.5029296875
273.74267578125
279.23583984375
292.96875
303.03955078125
307.6171875
313.1103515625
331.4208984375
342.4072265625
351.5625
362.548828125
373.53515625
386.3525390625
398.25439453125
412.90283203125
423.88916015625
427.55126953125
438.53759765625
452.2705078125
469.66552734375
472.412109375
475.15869140625
482.48291015625
495.30029296875
504.45556640625
509.033203125
507.2021484375
509.033203125
507.2021484375
500.79345703125
489.80712890625
476.07421875
458.67919921875
444.03076171875
430.2978515625
416.56494140625
396.42333984375
381.77490234375
352.47802734375
336.9140625
303.955078125
271.91162109375
252.685546875
227.05078125
202.33154296875
177.6123046875
162.04833984375
136.41357421875
118.10302734375
95.21484375
69.580078125
55.84716796875
43.02978515625
28.38134765625
11.90185546875
0
-10.986328125
-13.73291015625
-21.05712890625
-35.70556640625
-44.86083984375
-49.4384765625
-56.7626953125
-61.34033203125
-59.50927734375
-63.17138671875
-75.98876953125
-64.0869140625
-64.0869140625
-71.4111328125
-76.904296875
-80.56640625
-83.31298828125
-87.890625
-84.228515625
-78.7353515625
-81.48193359375
-77.81982421875
-74.15771484375
-83.31298828125
-83.31298828125
-83.31298828125
-86.0595703125
-86.97509765625
-82.3974609375
-79.65087890625
-80.56640625
-86.97509765625
-84.228515625
-85.14404296875
-87.890625
-82.3974609375
-78.7353515625
-77.81982421875
-75.0732421875
-87.890625
-85.14404296875
-79.65087890625
-76.904296875
-78.7353515625
-75.0732421875
-76.904296875
-77.81982421875
-73.2421875
-77.81982421875
-82.3974609375
-83.31298828125
-81.48193359375
-80.56640625
-81.48193359375
-83.31298828125
-79.65087890625
-71.4111328125
-77.81982421875
-79.65087890625
-79.65087890625
-72.32666015625
-77.81982421875
-73.2421875
-75.0732421875
-81.48193359375
-80.56640625
-83.31298828125
-82.3974609375
-79.65087890625
-76.904296875
-75.98876953125
-70.49560546875
-76.904296875
-79.65087890625
-82.3974609375
-85.14404296875
-88.80615234375
-86.0595703125
-80.56640625
-77.81982421875
-79.65087890625
-92.46826171875
-94.29931640625
-88.80615234375
-90.63720703125
-90.63720703125
-81.48193359375
-86.0595703125
-95.21484375
-92.46826171875
-92.46826171875
-87.890625
-92.46826171875
-99.79248046875
-92.46826171875
-94.29931640625
-94.29931640625
-93.3837890625
-96.13037109375
-83.31298828125
-95.21484375
-100.7080078125
-96.13037109375
-94.29931640625
-92.46826171875
-96.13037109375
-98.876953125
-103.45458984375
-98.876953125
-96.13037109375
-102.5390625
-97.96142578125
-95.21484375
-105.28564453125
-109.86328125
-106.201171875
-105.28564453125
-102.5390625
-96.13037109375
-93.3837890625
-100.7080078125
-107.11669921875
-98.876953125
-101.62353515625
-98.876953125
-99.79248046875
-101.62353515625
-100.7080078125
-108.0322265625
-102.5390625
-97.0458984375
-101.62353515625
-102.5390625
-105.28564453125
-102.5390625
-100.7080078125
-101.62353515625
-98.876953125
-96.13037109375
-102.5390625
-109.86328125
-103.45458984375
-95.21484375
-92.46826171875
-96.13037109375
-110.77880859375
-107.11669921875
-100.7080078125
-105.28564453125
-101.62353515625
-101.62353515625
-103.45458984375
-103.45458984375
-98.876953125
-99.79248046875
-105.28564453125
-104.3701171875
-99.79248046875
-103.45458984375
-98.876953125
-96.13037109375
-103.45458984375
-103.45458984375
-99.79248046875
-103.45458984375
-103.45458984375
-106.201171875
-101.62353515625
-92.46826171875
-108.0322265625
-112.60986328125
-105.28564453125
-102.5390625
-99.79248046875
-108.0322265625
-98.876953125
-99.79248046875
-110.77880859375
-107.11669921875
-108.0322265625
-108.94775390625
-103.45458984375
-101.62353515625
-103.45458984375
-104.3701171875
-110.77880859375
-106.201171875
-103.45458984375
-104.3701171875
-107.11669921875
-108.94775390625
-111.6943359375
-107.11669921875
-101.62353515625
-105.28564453125
-108.94775390625
-104.3701171875
-104.3701171875
-105.28564453125
-104.3701171875
-107.11669921875
-102.5390625
-102.5390625
-100.7080078125
-97.0458984375
-106.201171875
-101.62353515625
-94.29931640625
-97.96142578125
-103.45458984375
-103.45458984375
-103.45458984375
-107.11669921875
-102.5390625
-108.0322265625
-109.86328125
-109.86328125
-106.201171875
-108.94775390625
-106.201171875
-103.45458984375
-102.5390625
-102.5390625
-98.876953125
-96.13037109375
-91.552734375
-96.13037109375
-93.3837890625
-87.890625
-84.228515625
-83.31298828125
-79.65087890625
-75.98876953125
-67.7490234375
-62.255859375
-53.1005859375
-53.1005859375
-47.607421875
-44.86083984375
-56.7626953125
-64.0869140625
-66.83349609375
-61.34033203125
-65.91796875
-62.255859375
-62.255859375
-68.66455078125
-67.7490234375
-59.50927734375
-60.4248046875
-63.17138671875
-62.255859375
-65.91796875
-68.66455078125
-58.59375
-62.255859375
-66.83349609375
-69.580078125
-72.32666015625
-75.0732421875
-79.65087890625
-75.98876953125
-75.0732421875
-79.65087890625
-76.904296875
-85.14404296875
-82.3974609375
-81.48193359375
-75.98876953125
-78.7353515625
-86.0595703125
-80.56640625
-88.80615234375
-102.5390625
-98.876953125
-103.45458984375
-111.6943359375
-109.86328125
-109.86328125
-112.60986328125
-116.27197265625
-115.3564453125
-111.6943359375
-116.27197265625
-102.5390625
-102.5390625
-104.3701171875
-109.86328125
-113.525390625
-110.77880859375
-100.7080078125
-98.876953125
-96.13037109375
-100.7080078125
-107.11669921875
-97.96142578125
-94.29931640625
-86.97509765625
-99.79248046875
-107.11669921875
-121.76513671875
-148.3154296875
-147.39990234375
-113.525390625
-69.580078125
13.73291015625
137.3291015625
261.8408203125
378.11279296875
529.1748046875
676.57470703125
843.20068359375
991.51611328125
1134.33837890625
1254.2724609375
1303.7109375
1297.30224609375
1204.833984375
989.68505859375
743.408203125
588.68408203125
470.5810546875
352.47802734375
263.671875
195.9228515625
158.38623046875
106.201171875
81.48193359375
70.49560546875
58.59375
37.53662109375
20.1416015625
-0.91552734375
13.73291015625
40.283203125
49.4384765625
50.35400390625
50.35400390625
44.86083984375
32.04345703125
24.71923828125
13.73291015625
10.07080078125
8.23974609375
0
-1.8310546875
-5.4931640625
-0.91552734375
0.91552734375
-5.4931640625
-6.40869140625
-4.57763671875
-5.4931640625
-7.32421875
4.57763671875
5.4931640625
3.662109375
6.40869140625
6.40869140625
4.57763671875
11.90185546875
15.56396484375
21.05712890625
20.1416015625
16.4794921875
19.22607421875
22.88818359375
23.8037109375
28.38134765625
32.04345703125
30.21240234375
32.04345703125
44.86083984375
48.52294921875
46.69189453125
55.84716796875
61.34033203125
65.91796875
61.34033203125
56.7626953125
59.50927734375
62.255859375
69.580078125
68.66455078125
75.98876953125
79.65087890625
84.228515625
86.97509765625
95.21484375
99.79248046875
104.3701171875
103.45458984375
105.28564453125
113.525390625
115.3564453125
118.10302734375
124.51171875
129.08935546875
137.3291015625
144.6533203125
151.06201171875
154.72412109375
158.38623046875
163.87939453125
168.45703125
171.20361328125
174.86572265625
178.52783203125
184.9365234375
204.16259765625
206.9091796875
212.40234375
223.388671875
240.78369140625
247.1923828125
248.10791015625
255.43212890625
263.671875
273.74267578125
277.40478515625
292.96875
302.1240234375
312.19482421875
318.603515625
328.67431640625
341.49169921875
347.900390625
363.46435546875
379.94384765625
388.18359375
398.25439453125
412.90283203125
419.3115234375
430.2978515625
442.19970703125
458.67919921875
468.75
476.07421875
486.14501953125
495.30029296875
505.37109375
504.45556640625
508.11767578125
510.8642578125
505.37109375
507.2021484375
512.6953125
498.046875
482.48291015625
472.412109375
450.439453125
436.70654296875
424.8046875
402.83203125
378.11279296875
362.548828125
341.49169921875
316.7724609375
293.88427734375
260.009765625
232.5439453125
213.31787109375
196.83837890625
175.78125
148.3154296875
126.3427734375
108.94775390625
87.890625
69.580078125
61.34033203125
50.35400390625
36.62109375
24.71923828125
14.6484375
6.40869140625
-3.662109375
-16.4794921875
-25.634765625
-33.87451171875
-35.70556640625
-23.8037109375
-33.87451171875
-47.607421875
-51.26953125
-54.01611328125
-54.931640625
-48.52294921875
-52.18505859375
-47.607421875
-52.18505859375
-57.67822265625
-54.01611328125
-54.01611328125
-56.7626953125
-61.34033203125
-62.255859375
-59.50927734375
-57.67822265625
-61.34033203125
-58.59375
-59.50927734375
-54.01611328125
-54.931640625
-62.255859375
-59.50927734375
-52.18505859375
-54.01611328125
-60.4248046875
-57.67822265625
-62.255859375
-58.59375
-56.7626953125
-59.50927734375
-54.01611328125
-49.4384765625
-53.1005859375
-54.931640625
-53.1005859375
-54.931640625
-54.01611328125
-53.1005859375
-50.35400390625
-48.52294921875
-48.52294921875
-48.52294921875
-54.931640625
-53.1005859375
-52.18505859375
-54.931640625
-47.607421875
-51.26953125
-56.7626953125
-50.35400390625
-49.4384765625
-52.18505859375
-54.01611328125
-57.67822265625
-58.59375
-57.67822265625
-60.4248046875
-58.59375
-56.7626953125
-57.67822265625
-55.84716796875
-54.931640625
-57.67822265625
-55.84716796875
-59.50927734375
-63.17138671875
-62.255859375
-62.255859375
-60.4248046875
-59.50927734375
-65.91796875
-65.00244140625
-67.7490234375
-65.91796875
-65.91796875
-70.49560546875
-71.4111328125
-67.7490234375
-65.00244140625
-65.91796875
-70.49560546875
-71.4111328125
-64.0869140625
-66.83349609375
-75.98876953125
-76.904296875
-75.98876953125
-77.81982421875
-72.32666015625
-68.66455078125
-69.580078125
-66.83349609375
-71.4111328125
-77.81982421875
-73.2421875
-75.98876953125
-79.65087890625
-80.56640625
-78.7353515625
-78.7353515625
-73.2421875
-80.56640625
-82.3974609375
-77.81982421875
-81.48193359375
-83.31298828125
-73.2421875
-88.80615234375
-87.890625
-72.32666015625
-75.0732421875
-87.890625
-84.228515625
-75.0732421875
-77.81982421875
-71.4111328125
-77.81982421875
-86.0595703125
-84.228515625
-82.3974609375
-81.48193359375
-85.14404296875
-93.3837890625
-81.48193359375
-76.904296875
-79.65087890625
-84.228515625
-79.65087890625
-79.65087890625
-79.65087890625
-84.228515625
-83.31298828125
-83.31298828125
-76.904296875
-80.56640625
-80.56640625
-83.31298828125
-75.98876953125
-76.904296875
-82.3974609375
-80.56640625
-76.904296875
-82.3974609375
-85.14404296875
-72.32666015625
-81.48193359375
-88.80615234375
-83.31298828125
-88.80615234375
-86.97509765625
-81.48193359375
-82.3974609375
-86.97509765625
-86.97509765625
-83.31298828125
-86.0595703125
-87.890625
-91.552734375
-82.3974609375
-78.7353515625
-76.904296875
-82.3974609375
-86.97509765625
-83.31298828125
-88.80615234375
-84.228515625
-82.3974609375
-81.48193359375
-84.228515625
-76.904296875
-76.904296875
-83.31298828125
-88.80615234375
-84.228515625
-84.228515625
-83.31298828125
-93.3837890625
-90.63720703125
-82.3974609375
-81.48193359375
-79.65087890625
-77.81982421875
-82.3974609375
-82.3974609375
-86.0595703125
-84.228515625
-78.7353515625
-75.98876953125
-75.0732421875
-82.3974609375
-86.97509765625
-86.0595703125
-85.14404296875
-82.3974609375
-83.31298828125
-75.0732421875
-70.49560546875
-73.2421875
-61.34033203125
-71.4111328125
-62.255859375
-54.931640625
-55.84716796875
-46.69189453125
-28.38134765625
-28.38134765625
-34.7900390625
-36.62109375
-43.9453125
-44.86083984375
-42.1142578125
-48.52294921875
-41.19873046875
-37.53662109375
-35.70556640625
-43.9453125
-42.1142578125
-38.4521484375
-32.958984375
-29.296875
-40.283203125
-44.86083984375
-38.4521484375
-35.70556640625
-40.283203125
-46.69189453125
-48.52294921875
-52.18505859375
-48.52294921875
-52.18505859375
-53.1005859375
-48.52294921875
-54.931640625
-56.7626953125
-58.59375
-58.59375
-54.931640625
-65.00244140625
-66.83349609375
-66.83349609375
-74.15771484375
-79.65087890625
-84.228515625
-85.14404296875
-96.13037109375
-97.96142578125
-88.80615234375
-86.97509765625
-90.63720703125
-84.228515625
-86.97509765625
-94.29931640625
-96.13037109375
-93.3837890625
-95.21484375
-101.62353515625
-98.876953125
-86.97509765625
-84.228515625
-83.31298828125
-81.48193359375
-90.63720703125
-85.14404296875
-87.890625
-82.3974609375
-78.7353515625
-78.7353515625
-81.48193359375
-90.63720703125
-109.86328125
-128.173828125
-122.6806640625
-90.63720703125
-31.1279296875
74.15771484375
215.14892578125
349.7314453125
466.9189453125
617.0654296875
778.1982421875
945.73974609375
1093.1396484375
1226.806640625
1307.373046875
1323.8525390625
1268.9208984375
1136.16943359375
892.63916015625
613.4033203125
466.00341796875
343.32275390625
235.29052734375
173.03466796875
134.58251953125
116.27197265625
92.46826171875
71.4111328125
56.7626953125
43.9453125
21.97265625
7.32421875
2.74658203125
2.74658203125
24.71923828125
48.52294921875
60.4248046875
66.83349609375
61.34033203125
50.35400390625
43.9453125
34.7900390625
21.97265625
25.634765625
24.71923828125
22.88818359375
10.986328125
12.8173828125
12.8173828125
16.4794921875
12.8173828125
18.310546875
18.310546875
19.22607421875
18.310546875
22.88818359375
22.88818359375
26.55029296875
24.71923828125
32.958984375
29.296875
28.38134765625
32.04345703125
28.38134765625
34.7900390625
31.1279296875
41.19873046875
46.69189453125
51.26953125
53.1005859375
45.7763671875
48.52294921875
57.67822265625
71.4111328125
66.83349609375
64.0869140625
65.91796875
65.00244140625
75.0732421875
80.56640625
81.48193359375
85.14404296875
86.0595703125
86.97509765625
93.3837890625
94.29931640625
97.0458984375
106.201171875
112.60986328125
119.0185546875
120.849609375
120.849609375
129.08935546875
130.92041015625
136.41357421875
144.6533203125
139.16015625
141.90673828125
151.9775390625
159.3017578125
163.87939453125
166.6259765625
171.20361328125
178.52783203125
184.02099609375
185.85205078125
193.17626953125
201.416015625
213.31787109375
225.2197265625
231.62841796875
232.5439453125
233.45947265625
236.2060546875
253.60107421875
259.09423828125
262.75634765625
275.57373046875
286.56005859375
299.37744140625
310.36376953125
314.02587890625
325.927734375
345.15380859375
356.14013671875
362.548828125
368.95751953125
378.11279296875
394.59228515625
410.15625
422.9736328125
435.791015625
435.791015625
442.19970703125
456.84814453125
470.5810546875
481.5673828125
487.97607421875
488.8916015625
496.2158203125
507.2021484375
505.37109375
509.94873046875
512.6953125
512.6953125
502.62451171875
490.72265625
480.65185546875
467.83447265625
457.763671875
440.36865234375
413.818359375
395.5078125
376.28173828125
357.0556640625
335.0830078125
319.51904296875
285.64453125
258.1787109375
236.2060546875
208.740234375
187.68310546875
166.6259765625
144.6533203125
127.25830078125
105.28564453125
86.97509765625
73.2421875
57.67822265625
45.7763671875
23.8037109375
15.56396484375
-0.91552734375
-10.07080078125
-16.4794921875
-23.8037109375
-35.70556640625
-31.1279296875
-43.02978515625
-41.19873046875
-44.86083984375
-48.52294921875
-51.26953125
-55.84716796875
-62.255859375
-67.7490234375
-68.66455078125
-69.580078125
-75.0732421875
-71.4111328125
-65.91796875
-67.7490234375
-74.15771484375
-67.7490234375
-59.50927734375
-66.83349609375
-75.98876953125
-65.91796875
-72.32666015625
-68.66455078125
-68.66455078125
-71.4111328125
-67.7490234375
-70.49560546875
-69.580078125
-74.15771484375
-73.2421875
-67.7490234375
-67.7490234375
-65.00244140625
-58.59375
-67.7490234375
-75.98876953125
-72.32666015625
-64.0869140625
-65.91796875
-68.66455078125
-67.7490234375
-67.7490234375
-65.00244140625
-66.83349609375
-68.66455078125
-71.4111328125
-69.580078125
-66.83349609375
-60.4248046875
-58.59375
-61.34033203125
-63.17138671875
-60.4248046875
-63.17138671875
-61.34033203125
-56.7626953125
-61.34033203125
-71.4111328125
-70.49560546875
-68.66455078125
-66.83349609375
-65.91796875
-68.66455078125
-67.7490234375
-71.4111328125
-71.4111328125
-69.580078125
-70.49560546875
-71.4111328125
-74.15771484375
-74.15771484375
-73.2421875
-78.7353515625
-71.4111328125
-72.32666015625
-79.65087890625
-78.7353515625
-79.65087890625
-86.0595703125
-89.7216796875
-81.48193359375
-81.48193359375
-81.48193359375
-76.904296875
-78.7353515625
-81.48193359375
-83.31298828125
-84.228515625
-88.80615234375
-85.14404296875
-87.890625
-87.890625
-86.97509765625
-89.7216796875
-91.552734375
-90.63720703125
-86.0595703125
-83.31298828125
-100.7080078125
-101.62353515625
-96.13037109375
-98.876953125
-93.3837890625
-88.80615234375
-90.63720703125
-93.3837890625
-97.96142578125
-90.63720703125
-93.3837890625
-88.80615234375
-89.7216796875
-95.21484375
-95.21484375
-96.13037109375
-96.13037109375
-95.21484375
-94.29931640625
-98.876953125
-102.5390625
-98.876953125
-95.21484375
-101.62353515625
-97.96142578125
-95.21484375
-99.79248046875
-102.5390625
-99.79248046875
-90.63720703125
-89.7216796875
-98.876953125
-99.79248046875
-97.96142578125
-101.62353515625
-94.29931640625
-90.63720703125
-92.46826171875
-99.79248046875
-94.29931640625
-92.46826171875
-95.21484375
-97.96142578125
-100.7080078125
-103.45458984375
-92.46826171875
-91.552734375
-97.0458984375
-97.96142578125
-94.29931640625
-90.63720703125
-88.80615234375
-97.0458984375
-93.3837890625
-98.876953125
-104.3701171875
-104.3701171875
-107.11669921875
-110.77880859375
-107.11669921875
-108.0322265625
-104.3701171875
-102.5390625
-99.79248046875
-99.79248046875
-102.5390625
-95.21484375
-94.29931640625
-105.28564453125
-97.96142578125
-100.7080078125
-102.5390625
-110.77880859375
-115.3564453125
-109.86328125
-106.201171875
-108.0322265625
-106.201171875
-107.11669921875
-104.3701171875
-100.7080078125
-102.5390625
-101.62353515625
-99.79248046875
-100.7080078125
-101.62353515625
-104.3701171875
-108.94775390625
-110.77880859375
-109.86328125
-105.28564453125
-102.5390625
-106.201171875
-108.0322265625
-108.94775390625
-103.45458984375
-101.62353515625
-108.0322265625
-108.94775390625
-102.5390625
-97.96142578125
-89.7216796875
-96.13037109375
-98.876953125
-94.29931640625
-93.3837890625
-88.80615234375
-81.48193359375
-75.98876953125
-71.4111328125
-65.00244140625
-65.91796875
-56.7626953125
-57.67822265625
-54.931640625
-53.1005859375
-56.7626953125
-62.255859375
-64.0869140625
-60.4248046875
-55.84716796875
-65.91796875
-62.255859375
-65.00244140625
-62.255859375
-54.01611328125
-60.4248046875
-64.0869140625
-61.34033203125
-59.50927734375
-58.59375
-65.91796875
-63.17138671875
-62.255859375
-58.59375
-60.4248046875
-63.17138671875
-73.2421875
-73.2421875
-74.15771484375
-77.81982421875
-72.32666015625
-79.65087890625
-81.48193359375
-79.65087890625
-85.14404296875
-90.63720703125
-88.80615234375
-92.46826171875
-88.80615234375
-94.29931640625
-102.5390625
-105.28564453125
-108.0322265625
-114.44091796875
-113.525390625
-118.10302734375
-115.3564453125
-110.77880859375
-110.77880859375
-112.60986328125
-116.27197265625
-115.3564453125
-117.1875
-113.525390625
-110.77880859375
-108.94775390625
-108.0322265625
-106.201171875
-106.201171875
-106.201171875
-108.94775390625
-104.3701171875
-102.5390625
-104.3701171875
-100.7080078125
-108.0322265625
-123.59619140625
-140.07568359375
-145.56884765625
-130.92041015625
-90.63720703125
-15.56396484375
106.201171875
236.2060546875
360.7177734375
502.62451171875
653.6865234375
812.07275390625
961.3037109375
1102.294921875
1234.130859375
1292.724609375
1307.373046875
1223.14453125
1040.0390625
776.3671875
583.19091796875
471.49658203125
352.47802734375
259.09423828125
181.2744140625
137.3291015625
92.46826171875
63.17138671875
57.67822265625
53.1005859375
38.4521484375
24.71923828125
2.74658203125
0.91552734375
19.22607421875
31.1279296875
38.4521484375
50.35400390625
42.1142578125
31.1279296875
17.39501953125
10.986328125
5.4931640625
-4.57763671875
-5.4931640625
-3.662109375
-9.1552734375
-10.07080078125
-1.8310546875
-0.91552734375
-5.4931640625
-2.74658203125
-7.32421875
-9.1552734375
-5.4931640625
-4.57763671875
-5.4931640625
-3.662109375
-1.8310546875
1.8310546875
5.4931640625
7.32421875
6.40869140625
9.1552734375
16.4794921875
14.6484375
11.90185546875
18.310546875
17.39501953125
17.39501953125
22.88818359375
26.55029296875
29.296875
33.87451171875
39.36767578125
39.36767578125
41.19873046875
43.02978515625
50.35400390625
48.52294921875
48.52294921875
52.18505859375
59.50927734375
64.0869140625
67.7490234375
72.32666015625
75.98876953125
82.3974609375
91.552734375
79.65087890625
80.56640625
94.29931640625
97.0458984375
104.3701171875
105.28564453125
107.11669921875
108.0322265625
121.76513671875
127.25830078125
130.92041015625
134.58251953125
140.9912109375
142.822265625
145.56884765625
150.146484375
162.04833984375
167.54150390625
177.6123046875
184.9365234375
189.51416015625
202.33154296875
207.82470703125
206.9091796875
208.740234375
222.47314453125
234.375
244.44580078125
254.5166015625
258.1787109375
271.91162109375
276.4892578125
287.4755859375
300.29296875
314.94140625
319.51904296875
322.265625
341.49169921875
358.88671875
369.873046875
376.28173828125
384.521484375
395.5078125
405.57861328125
415.6494140625
427.55126953125
436.70654296875
447.69287109375
464.17236328125
469.66552734375
479.736328125
486.14501953125
486.14501953125
494.384765625
502.62451171875
493.46923828125
484.31396484375
485.2294921875
476.07421875
464.17236328125
449.52392578125
437.6220703125
419.3115234375
402.83203125
384.521484375
363.46435546875
337.82958984375
308.53271484375
283.8134765625
260.92529296875
239.8681640625
213.31787109375
188.5986328125
167.54150390625
141.90673828125
115.3564453125
93.3837890625
78.7353515625
60.4248046875
53.1005859375
47.607421875
27.4658203125
6.40869140625
-6.40869140625
-21.05712890625
-25.634765625
-37.53662109375
-42.1142578125
-49.4384765625
-54.931640625
-59.50927734375
-65.00244140625
-66.83349609375
-67.7490234375
-75.98876953125
-75.98876953125
-84.228515625
-84.228515625
-89.7216796875
-89.7216796875
-86.0595703125
-88.80615234375
-90.63720703125
-86.0595703125
-91.552734375
-90.63720703125
-92.46826171875
-90.63720703125
-86.0595703125
-83.31298828125
-97.96142578125
-87.890625
-92.46826171875
-97.96142578125
-97.0458984375
-90.63720703125
-92.46826171875
-91.552734375
-88.80615234375
-90.63720703125
-88.80615234375
-84.228515625
-85.14404296875
-88.80615234375
-86.97509765625
-74.15771484375
-80.56640625
-89.7216796875
-91.552734375
-87.890625
-87.890625
-87.890625
-89.7216796875
-86.97509765625
-85.14404296875
-86.0595703125
-87.890625
-87.890625
-86.97509765625
-90.63720703125
-86.97509765625
-80.56640625
-85.14404296875
-82.3974609375
-86.0595703125
-82.3974609375
-81.48193359375
-86.97509765625
-88.80615234375
-86.97509765625
-87.890625
-82.3974609375
-78.7353515625
-86.0595703125
-94.29931640625
-88.80615234375
-87.890625
-81.48193359375
-77.81982421875
-96.13037109375
-102.5390625
-93.3837890625
-95.21484375
-95.21484375
-92.46826171875
-92.46826171875
-91.552734375
-88.80615234375
-86.0595703125
-95.21484375
-100.7080078125
-92.46826171875
-98.876953125
-97.0458984375
-95.21484375
-108.94775390625
-106.201171875
-96.13037109375
-102.5390625
-109.86328125
-108.0322265625
-108.0322265625
-108.0322265625
-107.11669921875
-104.3701171875
-108.0322265625
-97.0458984375
-106.201171875
-112.60986328125
-108.94775390625
-103.45458984375
-105.28564453125
-110.77880859375
-109.86328125
-115.3564453125
-107.11669921875
-108.94775390625
-114.44091796875
-109.86328125
-118.10302734375
-111.6943359375
-114.44091796875
-111.6943359375
-114.44091796875
-117.1875
-114.44091796875
-104.3701171875
-116.27197265625
-114.44091796875
-116.27197265625
-111.6943359375
-110.77880859375
-119.93408203125
-115.3564453125
-109.86328125
-116.27197265625
-113.525390625
-109.86328125
-114.44091796875
-123.59619140625
-123.59619140625
-119.0185546875
-117.1875
-114.44091796875
-111.6943359375
-109.86328125
-113.525390625
-109.86328125
-105.28564453125
-112.60986328125
-119.93408203125
-113.525390625
-114.44091796875
-110.77880859375
-113.525390625
-119.0185546875
-119.93408203125
-110.77880859375
-110.77880859375
-110.77880859375
-119.93408203125
-120.849609375
-121.76513671875
-120.849609375
-119.0185546875
-119.0185546875
-117.1875
-114.44091796875
-126.3427734375
-126.3427734375
-125.42724609375
-120.849609375
-122.6806640625
-120.849609375
-124.51171875
-124.51171875
-126.3427734375
-128.173828125
-124.51171875
-117.1875
-121.76513671875
-128.173828125
-125.42724609375
-124.51171875
-128.173828125
-132.75146484375
-125.42724609375
-111.6943359375
-120.849609375
-122.6806640625
-131.8359375
-134.58251953125
-133.6669921875
-142.822265625
-128.173828125
-116.27197265625
-130.0048828125
-128.173828125
-126.3427734375
-125.42724609375
-124.51171875
-124.51171875
-124.51171875
-129.08935546875
-129.08935546875
-131.8359375
-126.3427734375
-124.51171875
-129.08935546875
-131.8359375
-129.08935546875
-127.25830078125
-132.75146484375
-123.59619140625
-124.51171875
-126.3427734375
-130.92041015625
-130.0048828125
-129.08935546875
-125.42724609375
-126.3427734375
-130.0048828125
-123.59619140625
-127.25830078125
-122.6806640625
-123.59619140625
-130.92041015625
-127.25830078125
-126.3427734375
-120.849609375
-120.849609375
-119.93408203125
-112.60986328125
-116.27197265625
-112.60986328125
-108.0322265625
-95.21484375
-88.80615234375
-95.21484375
-86.97509765625
-80.56640625
-71.4111328125
-75.0732421875
-72.32666015625
-75.98876953125
-81.48193359375
-82.3974609375
-77.81982421875
-77.81982421875
-85.14404296875
-84.228515625
-88.80615234375
-93.3837890625
-82.3974609375
-75.98876953125
-83.31298828125
-92.46826171875
-88.80615234375
-86.97509765625
-86.0595703125
-85.14404296875
-87.890625
-88.80615234375
-87.890625
-91.552734375
-97.96142578125
-97.96142578125
-108.0322265625
-103.45458984375
-102.5390625
-99.79248046875
-99.79248046875
-102.5390625
-102.5390625
-110.77880859375
-115.3564453125
-117.1875
-112.60986328125
-122.6806640625
-132.75146484375
-139.16015625
-141.90673828125
-142.822265625
-143.73779296875
-134.58251953125
-141.90673828125
-141.90673828125
-142.822265625
-139.16015625
-136.41357421875
-135.498046875
-139.16015625
-143.73779296875
-132.75146484375
-135.498046875
-137.3291015625
-134.58251953125
-138.24462890625
-132.75146484375
-132.75146484375
-134.58251953125
-135.498046875
-133.6669921875
-130.0048828125
-132.75146484375
-149.23095703125
-172.119140625
-176.69677734375
-151.06201171875
-108.94775390625
-23.8037109375
101.62353515625
224.30419921875
341.49169921875
487.060546875
645.44677734375
809.326171875
959.47265625
1112.36572265625
1234.130859375
1280.82275390625
1289.97802734375
1207.58056640625
1021.728515625
773.62060546875
603.33251953125
487.97607421875
373.53515625
281.982421875
198.66943359375
145.56884765625
95.21484375
77.81982421875
59.50927734375
46.69189453125
24.71923828125
5.4931640625
-21.05712890625
-15.56396484375
14.6484375
33.87451171875
32.958984375
30.21240234375
18.310546875
5.4931640625
3.662109375
-2.74658203125
-18.310546875
-19.22607421875
-19.22607421875
-21.97265625
-24.71923828125
-26.55029296875
-26.55029296875
-28.38134765625
-28.38134765625
-25.634765625
-21.05712890625
-15.56396484375
-16.4794921875
-10.986328125
-16.4794921875
-20.1416015625
-15.56396484375
-5.4931640625
-8.23974609375
-9.1552734375
-12.8173828125
-21.05712890625
-9.1552734375
-4.57763671875
0
-0.91552734375
0
10.07080078125
10.07080078125
8.23974609375
8.23974609375
16.4794921875
22.88818359375
23.8037109375
22.88818359375
31.1279296875
29.296875
32.958984375
37.53662109375
45.7763671875
45.7763671875
50.35400390625
48.52294921875
57.67822265625
60.4248046875
57.67822265625
68.66455078125
73.2421875
74.15771484375
75.98876953125
85.14404296875
88.80615234375
90.63720703125
86.0595703125
96.13037109375
105.28564453125
103.45458984375
116.27197265625
121.76513671875
125.42724609375
130.0048828125
134.58251953125
139.16015625
140.9912109375
149.23095703125
154.72412109375
161.1328125
172.119140625
175.78125
184.9365234375
184.9365234375
197.75390625
202.33154296875
206.9091796875
216.064453125
238.95263671875
246.27685546875
247.1923828125
252.685546875
260.009765625
274.658203125
287.4755859375
294.7998046875
307.6171875
322.265625
328.67431640625
336.9140625
345.15380859375
360.7177734375
364.3798828125
381.77490234375
396.42333984375
409.24072265625
415.6494140625
430.2978515625
434.87548828125
443.115234375
449.52392578125
460.51025390625
470.5810546875
474.2431640625
473.32763671875
479.736328125
473.32763671875
472.412109375
465.087890625
456.84814453125
444.03076171875
422.05810546875
414.73388671875
392.76123046875
375.3662109375
362.548828125
339.66064453125
306.70166015625
271.91162109375
257.26318359375
239.8681640625
213.31787109375
184.9365234375
170.2880859375
138.24462890625
115.3564453125
102.5390625
86.0595703125
65.00244140625
43.9453125
32.04345703125
10.986328125
0.91552734375
-4.57763671875
-20.1416015625
-32.958984375
-38.4521484375
-52.18505859375
-60.4248046875
-60.4248046875
-59.50927734375
-71.4111328125
-76.904296875
-82.3974609375
-83.31298828125
-91.552734375
-98.876953125
-86.97509765625
-85.14404296875
-96.13037109375
-84.228515625
-93.3837890625
-97.96142578125
-97.0458984375
-94.29931640625
-93.3837890625
-94.29931640625
-95.21484375
-93.3837890625
-92.46826171875
-89.7216796875
-92.46826171875
-97.96142578125
-100.7080078125
-99.79248046875
-97.0458984375
-98.876953125
-99.79248046875
-96.13037109375
-97.0458984375
-91.552734375
-87.890625
-86.97509765625
-80.56640625
-85.14404296875
-92.46826171875
-97.96142578125
-92.46826171875
-89.7216796875
-94.29931640625
-89.7216796875
-93.3837890625
-96.13037109375
-87.890625
-86.97509765625
-85.14404296875
-88.80615234375
-91.552734375
-81.48193359375
-78.7353515625
-98.876953125
-92.46826171875
-85.14404296875
-88.80615234375
-83.31298828125
-88.80615234375
-89.7216796875
-90.63720703125
-92.46826171875
-93.3837890625
-97.0458984375
-96.13037109375
-97.0458984375
-98.876953125
-94.29931640625
-93.3837890625
-90.63720703125
-93.3837890625
-98.876953125
-94.29931640625
-96.13037109375
-91.552734375
-87.890625
-94.29931640625
-96.13037109375
-97.96142578125
-106.201171875
-105.28564453125
-100.7080078125
-100.7080078125
-95.21484375
-96.13037109375
-102.5390625
-99.79248046875
-97.96142578125
-97.0458984375
-102.5390625
-99.79248046875
-92.46826171875
-97.96142578125
-107.11669921875
-106.201171875
-101.62353515625
-103.45458984375
-102.5390625
-107.11669921875
-108.0322265625
-102.5390625
-100.7080078125
-108.0322265625
-107.11669921875
-102.5390625
-103.45458984375
-108.0322265625
-108.94775390625
-107.11669921875
-108.0322265625
-114.44091796875
-107.11669921875
-105.28564453125
-109.86328125
-109.86328125
-108.0322265625
-108.0322265625
-110.77880859375
-114.44091796875
-116.27197265625
-117.1875
-117.1875
-117.1875
-117.1875
-118.10302734375
-119.0185546875
-117.1875
-112.60986328125
-114.44091796875
-114.44091796875
-112.60986328125
-108.0322265625
-110.77880859375
-117.1875
-113.525390625
-105.28564453125
-99.79248046875
-119.0185546875
-118.10302734375
-115.3564453125
-114.44091796875
-114.44091796875
-116.27197265625
-117.1875
-119.0185546875
-117.1875
-103.45458984375
-110.77880859375
-114.44091796875
-108.94775390625
-116.27197265625
-108.94775390625
-109.86328125
-119.93408203125
-119.93408203125
-118.10302734375
-123.59619140625
-118.10302734375
-117.1875
-122.6806640625
-116.27197265625
-114.44091796875
-117.1875
-114.44091796875
-112.60986328125
-115.3564453125
-111.6943359375
-110.77880859375
-114.44091796875
-113.525390625
-110.77880859375
-116.27197265625
-113.525390625
-116.27197265625
-122.6806640625
-119.93408203125
-110.77880859375
-106.201171875
-112.60986328125
-113.525390625
-114.44091796875
-114.44091796875
-111.6943359375
-108.0322265625
-106.201171875
-102.5390625
-111.6943359375
-117.1875
-119.93408203125
-118.10302734375
-115.3564453125
-116.27197265625
-112.60986328125
-108.94775390625
-118.10302734375
-117.1875
-114.44091796875
-109.86328125
-115.3564453125
-119.93408203125
-115.3564453125
-114.44091796875
-111.6943359375
-101.62353515625
-108.94775390625
-111.6943359375
-111.6943359375
-106.201171875
-101.62353515625
-103.45458984375
-97.96142578125
-91.552734375
-85.14404296875
-80.56640625
-75.98876953125
-79.65087890625
-64.0869140625
-52.18505859375
-55.84716796875
-66.83349609375
-72.32666015625
-75.0732421875
-69.580078125
-75.0732421875
-64.0869140625
-68.66455078125
-68.66455078125
-73.2421875
-66.83349609375
-66.83349609375
-68.66455078125
-66.83349609375
-72.32666015625
-59.50927734375
-65.00244140625
-65.00244140625
-64.0869140625
-67.7490234375
-65.91796875
-65.91796875
-75.0732421875
-85.14404296875
-85.14404296875
-81.48193359375
-85.14404296875
-89.7216796875
-93.3837890625
-82.3974609375
-89.7216796875
-108.0322265625
-92.46826171875
-86.0595703125
-97.96142578125
-102.5390625
-113.525390625
-116.27197265625
-114.44091796875
-119.0185546875
-125.42724609375
-119.93408203125
-115.3564453125
-115.3564453125
-121.76513671875
-119.93408203125
-119.93408203125
-117.1875
-120.849609375
-117.1875
-105.28564453125
-106.201171875
-108.0322265625
-102.5390625
-106.201171875
-103.45458984375
-101.62353515625
-108.0322265625
-97.96142578125
-96.13037109375
-100.7080078125
-116.27197265625
-135.498046875
-151.9775390625
-149.23095703125
-121.76513671875
-70.49560546875
21.05712890625
155.6396484375
293.88427734375
411.9873046875
554.8095703125
715.02685546875
878.90625
1020.81298828125
1152.64892578125
1266.17431640625
1293.64013671875
1268.9208984375
1170.0439453125
951.23291015625
661.92626953125
483.3984375
372.61962890625
254.5166015625
181.2744140625
127.25830078125
103.45458984375
82.3974609375
56.7626953125
52.18505859375
33.87451171875
8.23974609375
-10.986328125
-7.32421875
-9.1552734375
0
23.8037109375
49.4384765625
49.4384765625
35.70556640625
34.7900390625
36.62109375
10.07080078125
10.07080078125
10.07080078125
1.8310546875
0.91552734375
1.8310546875
0.91552734375
-1.8310546875
5.4931640625
9.1552734375
-0.91552734375
3.662109375
-0.91552734375
0.91552734375
1.8310546875
0.91552734375
0.91552734375
5.4931640625
8.23974609375
10.986328125
18.310546875
20.1416015625
21.97265625
25.634765625
27.4658203125
25.634765625
27.4658203125
32.04345703125
33.87451171875
35.70556640625
31.1279296875
29.296875
38.4521484375
47.607421875
43.9453125
47.607421875
52.18505859375
61.34033203125
57.67822265625
54.931640625
64.0869140625
74.15771484375
75.98876953125
73.2421875
78.7353515625
84.228515625
81.48193359375
79.65087890625
86.97509765625
96.13037109375
99.79248046875
104.3701171875
95.21484375
109.86328125
124.51171875
120.849609375
122.6806640625
127.25830078125
138.24462890625
146.484375
153.80859375
154.72412109375
156.55517578125
157.470703125
166.6259765625
178.52783203125
175.78125
181.2744140625
185.85205078125
198.66943359375
205.99365234375
216.064453125
228.8818359375
229.79736328125
240.78369140625
247.1923828125
250.8544921875
260.92529296875
265.5029296875
280.1513671875
291.1376953125
306.70166015625
308.53271484375
322.265625
335.99853515625
349.7314453125
359.80224609375
366.2109375
373.53515625
386.3525390625
401.0009765625
414.73388671875
427.55126953125
442.19970703125
451.35498046875
458.67919921875
466.9189453125
476.98974609375
483.3984375
487.97607421875
493.46923828125
494.384765625
500.79345703125
497.13134765625
496.2158203125
487.060546875
478.82080078125
467.83447265625
453.18603515625
438.53759765625
417.48046875
398.25439453125
379.94384765625
354.30908203125
335.99853515625
311.279296875
291.1376953125
261.8408203125
245.361328125
208.740234375
189.51416015625
169.37255859375
146.484375
124.51171875
101.62353515625
86.97509765625
71.4111328125
58.59375
43.9453125
28.38134765625
21.05712890625
8.23974609375
-9.1552734375
-16.4794921875
-21.97265625
-34.7900390625
-46.69189453125
-49.4384765625
-47.607421875
-58.59375
-55.84716796875
-61.34033203125
-70.49560546875
-70.49560546875
-65.00244140625
-65.91796875
-73.2421875
-75.98876953125
-81.48193359375
-82.3974609375
-78.7353515625
-77.81982421875
-83.31298828125
-76.904296875
-77.81982421875
-76.904296875
-75.0732421875
-78.7353515625
-78.7353515625
-78.7353515625
-74.15771484375
-75.0732421875
-75.0732421875
-82.3974609375
-82.3974609375
-77.81982421875
-78.7353515625
-86.0595703125
-83.31298828125
-80.56640625
-79.65087890625
-78.7353515625
-75.98876953125
-74.15771484375
-72.32666015625
-69.580078125
-71.4111328125
-72.32666015625
-70.49560546875
-68.66455078125
-72.32666015625
-67.7490234375
-64.0869140625
-64.0869140625
-65.00244140625
-66.83349609375
-70.49560546875
-72.32666015625
-72.32666015625
-65.91796875
-64.0869140625
-67.7490234375
-72.32666015625
-71.4111328125
-69.580078125
-66.83349609375
-65.91796875
-72.32666015625
-74.15771484375
-71.4111328125
-71.4111328125
-75.0732421875
-72.32666015625
-74.15771484375
-75.0732421875
-76.904296875
-79.65087890625
-81.48193359375
-73.2421875
-70.49560546875
-77.81982421875
-85.14404296875
-81.48193359375
-85.14404296875
-82.3974609375
-81.48193359375
-82.3974609375
-83.31298828125
-90.63720703125
-88.80615234375
-86.0595703125
-84.228515625
-89.7216796875
-98.876953125
-82.3974609375
-85.14404296875
-93.3837890625
-99.79248046875
-97.0458984375
-97.96142578125
-97.96142578125
-93.3837890625
-91.552734375
-97.0458984375
-96.13037109375
-89.7216796875
-93.3837890625
-97.96142578125
-96.13037109375
-91.552734375
-93.3837890625
-94.29931640625
-94.29931640625
-99.79248046875
-99.79248046875
-97.96142578125
-89.7216796875
-95.21484375
-93.3837890625
-91.552734375
-99.79248046875
-102.5390625
-106.201171875
-107.11669921875
-96.13037109375
-93.3837890625
-93.3837890625
-90.63720703125
-99.79248046875
-104.3701171875
-93.3837890625
-97.0458984375
-104.3701171875
-106.201171875
-104.3701171875
-102.5390625
-100.7080078125
-106.201171875
-103.45458984375
-95.21484375
-93.3837890625
-102.5390625
-103.45458984375
-107.11669921875
-105.28564453125
-103.45458984375
-102.5390625
-105.28564453125
-108.0322265625
-105.28564453125
-103.45458984375
-99.79248046875
-105.28564453125
-106.201171875
-105.28564453125
-102.5390625
-106.201171875
-108.94775390625
-114.44091796875
-106.201171875
-101.62353515625
-102.5390625
-101.62353515625
-106.201171875
-99.79248046875
-98.876953125
-96.13037109375
-97.96142578125
-95.21484375
-104.3701171875
-105.28564453125
-94.29931640625
-96.13037109375
-97.0458984375
-94.29931640625
-91.552734375
-91.552734375
-88.80615234375
-93.3837890625
-84.228515625
-65.91796875
-63.17138671875
-66.83349609375
-60.4248046875
-47.607421875
-43.02978515625
-42.1142578125
-59.50927734375
-59.50927734375
-56.7626953125
-56.7626953125
-60.4248046875
-58.59375
-59.50927734375
-58.59375
-65.91796875
-62.255859375
-56.7626953125
-62.255859375
-62.255859375
-63.17138671875
-65.91796875
-50.35400390625
-59.50927734375
-66.83349609375
-58.59375
-59.50927734375
-65.91796875
-76.904296875
-75.98876953125
-74.15771484375
-75.98876953125
-76.904296875
-74.15771484375
-78.7353515625
-74.15771484375
-80.56640625
-87.890625
-85.14404296875
-85.14404296875
-85.14404296875
-97.96142578125
-106.201171875
-117.1875
-117.1875
-112.60986328125
-116.27197265625
-117.1875
-116.27197265625
-119.0185546875
-124.51171875
-119.0185546875
-111.6943359375
-112.60986328125
-117.1875
-110.77880859375
-105.28564453125
-112.60986328125
-112.60986328125
-119.93408203125
-119.93408203125
-112.60986328125
-116.27197265625
-108.0322265625
-108.0322265625
-97.96142578125
-97.96142578125
-111.6943359375
-122.6806640625
-138.24462890625
-147.39990234375
-130.0048828125
-86.0595703125
-14.6484375
87.890625
235.29052734375
368.95751953125
489.80712890625
640.869140625
802.91748046875
964.05029296875
1096.8017578125
1220.39794921875
1290.8935546875
1297.30224609375
1231.38427734375
1067.5048828125
794.677734375
575.86669921875
454.1015625
333.251953125
230.712890625
160.21728515625
116.27197265625
80.56640625
55.84716796875
54.01611328125
51.26953125
33.87451171875
14.6484375
0
-3.662109375
9.1552734375
32.958984375
46.69189453125
47.607421875
43.02978515625
29.296875
25.634765625
17.39501953125
7.32421875
3.662109375
-1.8310546875
-6.40869140625
-4.57763671875
-2.74658203125
-3.662109375
-3.662109375
-5.4931640625
-4.57763671875
-4.57763671875
-4.57763671875
0
-0.91552734375
0
1.8310546875
4.57763671875
8.23974609375
1.8310546875
6.40869140625
6.40869140625
15.56396484375
14.6484375
19.22607421875
22.88818359375
23.8037109375
30.21240234375
26.55029296875
30.21240234375
32.958984375
34.7900390625
41.19873046875
37.53662109375
44.86083984375
58.59375
58.59375
50.35400390625
54.01611328125
61.34033203125
65.91796875
67.7490234375
68.66455078125
74.15771484375
82.3974609375
85.14404296875
86.97509765625
92.46826171875
100.7080078125
100.7080078125
99.79248046875
109.86328125
119.0185546875
117.1875
117.1875
117.1875
124.51171875
130.92041015625
135.498046875
140.07568359375
144.6533203125
156.55517578125
161.1328125
170.2880859375
178.52783203125
184.02099609375
188.5986328125
193.17626953125
194.091796875
201.416015625
209.65576171875
221.5576171875
227.96630859375
237.12158203125
240.78369140625
253.60107421875
261.8408203125
266.41845703125
281.982421875
292.96875
303.955078125
309.4482421875
317.68798828125
329.58984375
343.32275390625
362.548828125
361.63330078125
369.873046875
376.28173828125
395.5078125
412.90283203125
420.22705078125
433.9599609375
450.439453125
459.5947265625
464.17236328125
473.32763671875
476.98974609375
492.5537109375
495.30029296875
497.13134765625
506.28662109375
504.45556640625
488.8916015625
490.72265625
481.5673828125
474.2431640625
460.51025390625
443.115234375
427.55126953125
413.818359375
398.25439453125
369.873046875
347.900390625
321.35009765625
294.7998046875
270.99609375
247.1923828125
228.8818359375
201.416015625
175.78125
158.38623046875
137.3291015625
108.0322265625
97.0458984375
72.32666015625
56.7626953125
38.4521484375
28.38134765625
17.39501953125
-4.57763671875
-13.73291015625
-24.71923828125
-24.71923828125
-35.70556640625
-48.52294921875
-54.01611328125
-55.84716796875
-61.34033203125
-69.580078125
-73.2421875
-78.7353515625
-78.7353515625
-75.98876953125
-82.3974609375
-89.7216796875
-79.65087890625
-75.98876953125
-88.80615234375
-84.228515625
-86.0595703125
-85.14404296875
-82.3974609375
-82.3974609375
-91.552734375
-89.7216796875
-79.65087890625
-75.0732421875
-83.31298828125
-79.65087890625
-86.0595703125
-92.46826171875
-86.97509765625
-84.228515625
-89.7216796875
-90.63720703125
-86.97509765625
-83.31298828125
-86.0595703125
-90.63720703125
-87.890625
-84.228515625
-85.14404296875
-80.56640625
-85.14404296875
-80.56640625
-79.65087890625
-79.65087890625
-82.3974609375
-83.31298828125
-86.0595703125
-81.48193359375
-84.228515625
-83.31298828125
-81.48193359375
-81.48193359375
-79.65087890625
-79.65087890625
-80.56640625
-77.81982421875
-86.0595703125
-91.552734375
-81.48193359375
-81.48193359375
-85.14404296875
-74.15771484375
-68.66455078125
-83.31298828125
-79.65087890625
-79.65087890625
-84.228515625
-82.3974609375
-86.97509765625
-88.80615234375
-90.63720703125
-78.7353515625
-80.56640625
-86.97509765625
-89.7216796875
-87.890625
-90.63720703125
-84.228515625
-83.31298828125
-85.14404296875
-86.97509765625
-94.29931640625
-95.21484375
-92.46826171875
-97.96142578125
-95.21484375
-95.21484375
-91.552734375
-93.3837890625
-95.21484375
-97.96142578125
-92.46826171875
-100.7080078125
-102.5390625
-98.876953125
-105.28564453125
-100.7080078125
-101.62353515625
-103.45458984375
-106.201171875
-107.11669921875
-98.876953125
-101.62353515625
-99.79248046875
-101.62353515625
-101.62353515625
-99.79248046875
-104.3701171875
-101.62353515625
-104.3701171875
-109.86328125
-101.62353515625
-95.21484375
-102.5390625
-103.45458984375
-99.79248046875
-99.79248046875
-105.28564453125
-102.5390625
-106.201171875
-116.27197265625
-108.94775390625
-101.62353515625
-101.62353515625
-104.3701171875
-109.86328125
-104.3701171875
-104.3701171875
-114.44091796875
-111.6943359375
-114.44091796875
-107.11669921875
-103.45458984375
-108.0322265625
-103.45458984375
-102.5390625
-104.3701171875
-99.79248046875
-104.3701171875
-108.0322265625
-108.0322265625
-100.7080078125
-111.6943359375
-108.94775390625
-109.86328125
-114.44091796875
-111.6943359375
-108.0322265625
-110.77880859375
-113.525390625
-110.77880859375
-108.94775390625
-110.77880859375
-108.94775390625
-117.1875
-111.6943359375
-109.86328125
-106.201171875
-102.5390625
-116.27197265625
-110.77880859375
-107.11669921875
-107.11669921875
-113.525390625
-113.525390625
-110.77880859375
-115.3564453125
-115.3564453125
-113.525390625
-115.3564453125
-116.27197265625
-111.6943359375
-112.60986328125
-108.94775390625
-106.201171875
-110.77880859375
-112.60986328125
-117.1875
-114.44091796875
-107.11669921875
-109.86328125
-111.6943359375
-112.60986328125
-108.94775390625
-109.86328125
-109.86328125
-112.60986328125
-104.3701171875
-111.6943359375
-113.525390625
-118.10302734375
-113.525390625
-110.77880859375
-112.60986328125
-115.3564453125
-115.3564453125
-117.1875
-115.3564453125
-113.525390625
-114.44091796875
-115.3564453125
-114.44091796875
-109.86328125
-106.201171875
-116.27197265625
-114.44091796875
-110.77880859375
-122.6806640625
-129.08935546875
-123.59619140625
-116.27197265625
-109.86328125
-112.60986328125
-108.94775390625
-118.10302734375
-115.3564453125
-118.10302734375
-115.3564453125
-119.93408203125
-113.525390625
-111.6943359375
-102.5390625
-105.28564453125
-103.45458984375
-102.5390625
-102.5390625
-99.79248046875
-86.97509765625
-81.48193359375
-79.65087890625
-69.580078125
-59.50927734375
-65.00244140625
-65.00244140625
-54.931640625
-50.35400390625
-58.59375
-70.49560546875
-70.49560546875
-73.2421875
-75.0732421875
-71.4111328125
-65.91796875
-70.49560546875
-74.15771484375
-68.66455078125
-57.67822265625
-61.34033203125
-67.7490234375
-72.32666015625
-70.49560546875
-65.00244140625
-67.7490234375
-75.98876953125
-81.48193359375
-86.0595703125
-90.63720703125
-83.31298828125
-78.7353515625
-85.14404296875
-88.80615234375
-91.552734375
-85.14404296875
-82.3974609375
-78.7353515625
-93.3837890625
-108.0322265625
-99.79248046875
-97.96142578125
-105.28564453125
-110.77880859375
-113.525390625
-119.0185546875
-130.0048828125
-127.25830078125
-129.08935546875
-125.42724609375
-128.173828125
-127.25830078125
-118.10302734375
-118.10302734375
-124.51171875
-124.51171875
-123.59619140625
-118.10302734375
-116.27197265625
-116.27197265625
-113.525390625
-124.51171875
-118.10302734375
-118.10302734375
-116.27197265625
-108.0322265625
-113.525390625
-110.77880859375
-119.0185546875
-140.9912109375
-153.80859375
-157.470703125
-139.16015625
-99.79248046875
-18.310546875
103.45458984375
238.037109375
353.3935546875
504.45556640625
660.09521484375
816.650390625
975.03662109375
1114.19677734375
1240.53955078125
1300.96435546875
1305.5419921875
1224.06005859375
1035.46142578125
773.62060546875
608.82568359375
496.2158203125
375.3662109375
281.982421875
205.99365234375
152.89306640625
101.62353515625
72.32666015625
58.59375
48.52294921875
33.87451171875
13.73291015625
-6.40869140625
0.91552734375
29.296875
44.86083984375
43.02978515625
39.36767578125
29.296875
21.05712890625
4.57763671875
0
-0.91552734375
-2.74658203125
-4.57763671875
-6.40869140625
-13.73291015625
-8.23974609375
-6.40869140625
-15.56396484375
-13.73291015625
-11.90185546875
-5.4931640625
-16.4794921875
-17.39501953125
-14.6484375
-6.40869140625
-7.32421875
-1.8310546875
0.91552734375
1.8310546875
0.91552734375
0
3.662109375
0.91552734375
7.32421875
13.73291015625
16.4794921875
19.22607421875
21.05712890625
12.8173828125
20.1416015625
21.05712890625
21.97265625
32.04345703125
42.1142578125
43.02978515625
44.86083984375
43.9453125
36.62109375
52.18505859375
59.50927734375
58.59375
59.50927734375
64.0869140625
68.66455078125
64.0869140625
68.66455078125
74.15771484375
73.2421875
79.65087890625
86.0595703125
82.3974609375
94.29931640625
108.0322265625
102.5390625
107.11669921875
117.1875
118.10302734375
117.1875
124.51171875
131.8359375
135.498046875
136.41357421875
148.3154296875
154.72412109375
159.3017578125
170.2880859375
172.119140625
170.2880859375
181.2744140625
191.34521484375
201.416015625
203.2470703125
217.8955078125
224.30419921875
227.96630859375
240.78369140625
239.8681640625
249.0234375
261.8408203125
268.24951171875
280.1513671875
291.1376953125
306.70166015625
325.01220703125
318.603515625
331.4208984375
348.81591796875
357.97119140625
374.45068359375
377.197265625
388.18359375
401.0009765625
410.15625
423.88916015625
433.9599609375
445.86181640625
452.2705078125
463.2568359375
468.75
474.2431640625
484.31396484375
487.97607421875
483.3984375
477.9052734375
478.82080078125
474.2431640625
455.01708984375
445.86181640625
444.9462890625
428.466796875
404.6630859375
382.6904296875
363.46435546875
347.900390625
324.0966796875
305.7861328125
280.1513671875
253.60107421875
227.05078125
203.2470703125
180.35888671875
155.6396484375
137.3291015625
112.60986328125
96.13037109375
75.98876953125
58.59375
44.86083984375
25.634765625
14.6484375
-2.74658203125
-15.56396484375
-23.8037109375
-31.1279296875
-32.958984375
-39.36767578125
-53.1005859375
-61.34033203125
-67.7490234375
-64.0869140625
-63.17138671875
-63.17138671875
-68.66455078125
-83.31298828125
-80.56640625
-78.7353515625
-82.3974609375
-92.46826171875
-81.48193359375
-83.31298828125
-87.890625
-91.552734375
-87.890625
-86.0595703125
-81.48193359375
-93.3837890625
-91.552734375
-84.228515625
-82.3974609375
-83.31298828125
-86.97509765625
-86.0595703125
-86.97509765625
-85.14404296875
-80.56640625
-85.14404296875
-90.63720703125
-89.7216796875
-87.890625
-88.80615234375
-81.48193359375
-84.228515625
-91.552734375
-83.31298828125
-89.7216796875
-85.14404296875
-75.0732421875
-80.56640625
-78.7353515625
-92.46826171875
-90.63720703125
-89.7216796875
-91.552734375
-87.890625
-86.97509765625
-92.46826171875
-100.7080078125
-96.13037109375
-89.7216796875
-89.7216796875
-92.46826171875
-87.890625
-92.46826171875
-87.890625
-80.56640625
-86.97509765625
-99.79248046875
-91.552734375
-86.97509765625
-96.13037109375
-97.96142578125
-95.21484375
-102.5390625
-103.45458984375
-101.62353515625
-97.96142578125
-97.0458984375
-98.876953125
-94.29931640625
-102.5390625
-99.79248046875
-98.876953125
-106.201171875
-105.28564453125
-104.3701171875
-108.0322265625
-97.96142578125
-107.11669921875
-111.6943359375
-104.3701171875
-102.5390625
-107.11669921875
-108.0322265625
-112.60986328125
-113.525390625
-106.201171875
-109.86328125
-113.525390625
-114.44091796875
-115.3564453125
-103.45458984375
-104.3701171875
-109.86328125
-113.525390625
-114.44091796875
-111.6943359375
-112.60986328125
-115.3564453125
-114.44091796875
-120.849609375
-119.0185546875
-118.10302734375
-122.6806640625
-118.10302734375
-110.77880859375
-120.849609375
-113.525390625
-113.525390625
-124.51171875
-119.0185546875
-122.6806640625
-118.10302734375
-119.0185546875
-119.93408203125
-118.10302734375
-115.3564453125
-115.3564453125
-115.3564453125
-116.27197265625
-119.0185546875
-121.76513671875
-125.42724609375
-121.76513671875
-119.93408203125
-108.94775390625
-117.1875
-128.173828125
-128.173828125
-128.173828125
-127.25830078125
-130.92041015625
-133.6669921875
-130.0048828125
-123.59619140625
-120.849609375
-130.92041015625
-127.25830078125
-129.08935546875
-131.8359375
-126.3427734375
-127.25830078125
-123.59619140625
-125.42724609375
-125.42724609375
-122.6806640625
-121.76513671875
-122.6806640625
-128.173828125
-130.0048828125
-128.173828125
-128.173828125
-129.08935546875
-128.173828125
-129.08935546875
-123.59619140625
-119.0185546875
-126.3427734375
-128.173828125
-123.59619140625
-123.59619140625
-130.0048828125
-128.173828125
-133.6669921875
-128.173828125
-125.42724609375
-120.849609375
-129.08935546875
-135.498046875
-129.08935546875
-125.42724609375
-128.173828125
-125.42724609375
-131.8359375
-128.173828125
-128.173828125
-130.92041015625
-138.24462890625
-132.75146484375
-128.173828125
-127.25830078125
-126.3427734375
-130.0048828125
-130.0048828125
-129.08935546875
-130.0048828125
-130.0048828125
-130.0048828125
-132.75146484375
-129.08935546875
-121.76513671875
-134.58251953125
-134.58251953125
-132.75146484375
-129.08935546875
-133.6669921875
-135.498046875
-134.58251953125
-133.6669921875
-130.0048828125
-131.8359375
-128.173828125
-130.92041015625
-131.8359375
-132.75146484375
-126.3427734375
-128.173828125
-132.75146484375
-136.41357421875
-135.498046875
-124.51171875
-123.59619140625
-131.8359375
-130.0048828125
-124.51171875
-125.42724609375
-130.92041015625
-127.25830078125
-135.498046875
-124.51171875
-119.93408203125
-126.3427734375
-122.6806640625
-118.10302734375
-117.1875
-109.86328125
-103.45458984375
-108.94775390625
-99.79248046875
-89.7216796875
-88.80615234375
-83.31298828125
-72.32666015625
-71.4111328125
-75.98876953125
-80.56640625
-86.0595703125
-88.80615234375
-92.46826171875
-89.7216796875
-88.80615234375
-87.890625
-86.0595703125
-86.97509765625
-88.80615234375
-89.7216796875
-86.0595703125
-80.56640625
-89.7216796875
-89.7216796875
-95.21484375
-85.14404296875
-72.32666015625
-82.3974609375
-92.46826171875
-91.552734375
-97.0458984375
-105.28564453125
-97.0458984375
-97.0458984375
-97.96142578125
-94.29931640625
-108.94775390625
-112.60986328125
-108.0322265625
-116.27197265625
-118.10302734375
-119.0185546875
-126.3427734375
-136.41357421875
-139.16015625
-130.92041015625
-138.24462890625
-140.07568359375
-140.9912109375
-140.07568359375
-144.6533203125
-147.39990234375
-135.498046875
-131.8359375
-139.16015625
-142.822265625
-140.07568359375
-142.822265625
-140.9912109375
-136.41357421875
-135.498046875
-133.6669921875
-140.9912109375
-140.9912109375
-130.0048828125
-132.75146484375
-131.8359375
-122.6806640625
-122.6806640625
-131.8359375
-145.56884765625
-161.1328125
-173.03466796875
-173.03466796875
-136.41357421875
-61.34033203125
54.01611328125
193.17626953125
315.85693359375
449.52392578125
595.0927734375
757.14111328125
922.8515625
1059.26513671875
1189.27001953125
1267.08984375
1268.00537109375
1201.171875
1054.6875
778.1982421875
545.654296875
416.56494140625
292.96875
189.51416015625
120.849609375
77.81982421875
53.1005859375
27.4658203125
16.4794921875
7.32421875
-3.662109375
-32.04345703125
-41.19873046875
-44.86083984375
-34.7900390625
-3.662109375
7.32421875
8.23974609375
14.6484375
4.57763671875
-2.74658203125
-17.39501953125
-27.4658203125
-24.71923828125
-27.4658203125
-26.55029296875
-33.87451171875
-37.53662109375
-44.86083984375
-41.19873046875
-35.70556640625
-35.70556640625
-33.87451171875
-36.62109375
-27.4658203125
-38.4521484375
-32.04345703125
-32.958984375
-34.7900390625
-28.38134765625
-26.55029296875
-22.88818359375
-18.310546875
-14.6484375
-14.6484375
-11.90185546875
-11.90185546875
-9.1552734375
-3.662109375
-2.74658203125
-4.57763671875
4.57763671875
0
-8.23974609375
2.74658203125
6.40869140625
15.56396484375
18.310546875
20.1416015625
19.22607421875
23.8037109375
26.55029296875
32.958984375
34.7900390625
36.62109375
49.4384765625
42.1142578125
40.283203125
47.607421875
55.84716796875
53.1005859375
59.50927734375
60.4248046875
70.49560546875
86.97509765625
82.3974609375
81.48193359375
86.97509765625
89.7216796875
92.46826171875
98.876953125
101.62353515625
97.96142578125
106.201171875
116.27197265625
123.59619140625
126.3427734375
139.16015625
137.3291015625
148.3154296875
147.39990234375
160.21728515625
165.71044921875
174.86572265625
177.6123046875
187.68310546875
195.9228515625
204.16259765625
210.5712890625
222.47314453125
237.12158203125
249.93896484375
257.26318359375
260.92529296875
270.99609375
279.23583984375
293.88427734375
307.6171875
317.68798828125
325.01220703125
329.58984375
341.49169921875
357.97119140625
372.61962890625
386.3525390625
403.74755859375
402.83203125
406.494140625
433.9599609375
433.9599609375
428.466796875
433.9599609375
450.439453125
447.69287109375
438.53759765625
445.86181640625
445.86181640625
444.9462890625
432.12890625
422.05810546875
405.57861328125
394.59228515625
370.78857421875
352.47802734375
332.33642578125
305.7861328125
289.306640625
270.08056640625
247.1923828125
226.13525390625
201.416015625
176.69677734375
156.55517578125
130.92041015625
108.94775390625
80.56640625
60.4248046875
46.69189453125
30.21240234375
13.73291015625
0
-15.56396484375
-30.21240234375
-39.36767578125
-49.4384765625
-51.26953125
-65.91796875
-75.98876953125
-76.904296875
-89.7216796875
-92.46826171875
-94.29931640625
-104.3701171875
-108.0322265625
-108.0322265625
-118.10302734375
-119.93408203125
-102.5390625
-112.60986328125
-121.76513671875
-119.0185546875
-114.44091796875
-108.94775390625
-112.60986328125
-115.3564453125
-116.27197265625
-123.59619140625
-117.1875
-117.1875
-132.75146484375
-130.0048828125
-121.76513671875
-124.51171875
-121.76513671875
-116.27197265625
-119.0185546875
-119.0185546875
-118.10302734375
-120.849609375
-119.93408203125
-119.93408203125
-120.849609375
-111.6943359375
-113.525390625
-115.3564453125
-116.27197265625
-123.59619140625
-124.51171875
-117.1875
-115.3564453125
-125.42724609375
-123.59619140625
-118.10302734375
-113.525390625
-118.10302734375
-120.849609375
-127.25830078125
-121.76513671875
-119.93408203125
-123.59619140625
-118.10302734375
-114.44091796875
-117.1875
-116.27197265625
-121.76513671875
-129.08935546875
-128.173828125
-130.0048828125
-129.08935546875
-123.59619140625
-126.3427734375
-130.92041015625
-130.0048828125
-126.3427734375
-124.51171875
-128.173828125
-130.92041015625
-125.42724609375
-129.08935546875
-130.0048828125
-130.0048828125
-135.498046875
-140.07568359375
-136.41357421875
-132.75146484375
-139.16015625
-141.90673828125
-137.3291015625
-130.0048828125
-139.16015625
-139.16015625
-136.41357421875
-135.498046875
-141.90673828125
-140.07568359375
-136.41357421875
-139.16015625
-141.90673828125
-147.39990234375
-149.23095703125
-151.9775390625
-145.56884765625
-149.23095703125
-151.06201171875
-140.07568359375
-141.90673828125
-143.73779296875
-151.06201171875
-157.470703125
-149.23095703125
-141.90673828125
-151.06201171875
-149.23095703125
-146.484375
-149.23095703125
-155.6396484375
-151.06201171875
-149.23095703125
-156.55517578125
-159.3017578125
-151.06201171875
-148.3154296875
-151.9775390625
-155.6396484375
-154.72412109375
-155.6396484375
-155.6396484375
-156.55517578125
-159.3017578125
-160.21728515625
-155.6396484375
-148.3154296875
-161.1328125
-162.04833984375
-154.72412109375
-151.9775390625
-151.9775390625
-153.80859375
-150.146484375
-147.39990234375
-150.146484375
-152.89306640625
-160.21728515625
-163.87939453125
-164.794921875
-160.21728515625
-159.3017578125
-161.1328125
-159.3017578125
-155.6396484375
-159.3017578125
-160.21728515625
-164.794921875
-163.87939453125
-165.71044921875
-160.21728515625
-154.72412109375
-155.6396484375
-163.87939453125
-163.87939453125
-167.54150390625
-163.87939453125
-155.6396484375
-151.9775390625
-151.9775390625
-151.9775390625
-151.9775390625
-149.23095703125
-155.6396484375
-154.72412109375
-150.146484375
-143.73779296875
-130.92041015625
-123.59619140625
-129.08935546875
-128.173828125
-123.59619140625
-113.525390625
-100.7080078125
-101.62353515625
-108.0322265625
-119.93408203125
-118.10302734375
-112.60986328125
-113.525390625
-110.77880859375
-115.3564453125
-113.525390625
-119.0185546875
-114.44091796875
-110.77880859375
-119.93408203125
-119.93408203125
-119.93408203125
-120.849609375
-126.3427734375
-108.94775390625
-110.77880859375
-119.93408203125
-125.42724609375
-127.25830078125
-128.173828125
-121.76513671875
-127.25830078125
-136.41357421875
-140.9912109375
-145.56884765625
-144.6533203125
-143.73779296875
-143.73779296875
-152.89306640625
-156.55517578125
-141.90673828125
-141.90673828125
-162.9638671875
-176.69677734375
-171.20361328125
-174.86572265625
-173.9501953125
-177.6123046875
-183.10546875
-178.52783203125
-180.35888671875
-180.35888671875
-175.78125
-175.78125
-169.37255859375
-173.03466796875
-170.2880859375
-175.78125
-177.6123046875
-174.86572265625
-173.9501953125
-175.78125
-170.2880859375
-168.45703125
-162.9638671875
-167.54150390625
-162.04833984375
-162.04833984375
-163.87939453125
-172.119140625
-196.83837890625
-218.81103515625
-209.65576171875
-168.45703125
-109.86328125
2.74658203125
137.3291015625
269.1650390625
399.169921875
548.40087890625
704.9560546875
875.244140625
1014.404296875
1148.98681640625
1229.55322265625
1243.2861328125
1192.93212890625
1061.09619140625
800.1708984375
553.89404296875
426.6357421875
295.71533203125
187.68310546875
105.28564453125
56.7626953125
33.87451171875
11.90185546875
3.662109375
-6.40869140625
-31.1279296875
-54.931640625
-64.0869140625
-72.32666015625
-64.0869140625
-42.1142578125
-22.88818359375
-12.8173828125
-17.39501953125
-17.39501953125
-28.38134765625
-42.1142578125
-54.01611328125
-60.4248046875
-68.66455078125
-69.580078125
-68.66455078125
-65.00244140625
-58.59375
-56.7626953125
-59.50927734375
-64.0869140625
-65.91796875
-56.7626953125
-57.67822265625
-62.255859375
-59.50927734375
-58.59375
-60.4248046875
-57.67822265625
-59.50927734375
-49.4384765625
-47.607421875
-49.4384765625
-50.35400390625
-45.7763671875
-48.52294921875
-32.04345703125
-34.7900390625
-36.62109375
-33.87451171875
-32.04345703125
-18.310546875
-15.56396484375
-15.56396484375
-17.39501953125
-19.22607421875
-15.56396484375
-8.23974609375
-6.40869140625
-3.662109375
-0.91552734375
-4.57763671875
2.74658203125
13.73291015625
14.6484375
13.73291015625
20.1416015625
32.04345703125
23.8037109375
30.21240234375
35.70556640625
47.607421875
50.35400390625
53.1005859375
56.7626953125
54.931640625
58.59375
65.91796875
71.4111328125
70.49560546875
76.904296875
82.3974609375
97.96142578125
106.201171875
105.28564453125
112.60986328125
118.10302734375
123.59619140625
126.3427734375
136.41357421875
144.6533203125
159.3017578125
162.04833984375
170.2880859375
179.443359375
195.9228515625
197.75390625
204.16259765625
216.064453125
234.375
238.037109375
244.44580078125
256.34765625
261.8408203125
270.99609375
283.8134765625
300.29296875
308.53271484375
327.7587890625
344.23828125
348.81591796875
359.80224609375
371.7041015625
372.61962890625
385.43701171875
393.6767578125
405.57861328125
413.818359375
418.39599609375
424.8046875
430.2978515625
432.12890625
433.04443359375
432.12890625
422.05810546875
413.818359375
410.15625
397.3388671875
382.6904296875
362.548828125
347.900390625
333.251953125
303.03955078125
280.1513671875
264.58740234375
227.05078125
205.078125
188.5986328125
162.04833984375
130.92041015625
107.11669921875
89.7216796875
65.00244140625
50.35400390625
26.55029296875
13.73291015625
-4.57763671875
-19.22607421875
-36.62109375
-54.01611328125
-66.83349609375
-82.3974609375
-90.63720703125
-97.96142578125
-108.0322265625
-116.27197265625
-119.0185546875
-119.0185546875
-133.6669921875
-136.41357421875
-132.75146484375
-138.24462890625
-139.16015625
-139.16015625
-149.23095703125
-140.07568359375
-147.39990234375
-148.3154296875
-154.72412109375
-153.80859375
-153.80859375
-153.80859375
-151.06201171875
-159.3017578125
-160.21728515625
-159.3017578125
-155.6396484375
-149.23095703125
-157.470703125
-157.470703125
-155.6396484375
-150.146484375
-151.06201171875
-151.9775390625
-151.06201171875
-156.55517578125
-153.80859375
-155.6396484375
-151.9775390625
-147.39990234375
-148.3154296875
-151.06201171875
-147.39990234375
-148.3154296875
-152.89306640625
-155.6396484375
-150.146484375
-153.80859375
-155.6396484375
-152.89306640625
-153.80859375
-151.06201171875
-139.16015625
-143.73779296875
-142.822265625
-150.146484375
-150.146484375
-154.72412109375
-156.55517578125
-156.55517578125
-156.55517578125
-155.6396484375
-149.23095703125
-146.484375
-147.39990234375
-151.06201171875
-147.39990234375
-144.6533203125
-149.23095703125
-151.06201171875
-150.146484375
-152.89306640625
-157.470703125
-162.9638671875
-162.04833984375
-164.794921875
-166.6259765625
-160.21728515625
-157.470703125
-157.470703125
-159.3017578125
-156.55517578125
-157.470703125
-161.1328125
-162.04833984375
-164.794921875
-159.3017578125
-163.87939453125
-164.794921875
-173.9501953125
-170.2880859375
-166.6259765625
-173.03466796875
-176.69677734375
-173.03466796875
-161.1328125
-162.9638671875
-166.6259765625
-173.03466796875
-184.02099609375
-176.69677734375
-173.9501953125
-171.20361328125
-173.03466796875
-171.20361328125
-171.20361328125
-181.2744140625
-179.443359375
-176.69677734375
-180.35888671875
-180.35888671875
-176.69677734375
-178.52783203125
-176.69677734375
-183.10546875
-178.52783203125
-170.2880859375
-180.35888671875
-189.51416015625
-186.767578125
-179.443359375
-184.9365234375
-177.6123046875
-179.443359375
-178.52783203125
-182.18994140625
-184.02099609375
-183.10546875
-184.02099609375
-183.10546875
-182.18994140625
-178.52783203125
-181.2744140625
-186.767578125
-182.18994140625
-182.18994140625
-181.2744140625
-178.52783203125
-183.10546875
-191.34521484375
-191.34521484375
-184.02099609375
-182.18994140625
-185.85205078125
-186.767578125
-182.18994140625
-179.443359375
-174.86572265625
-178.52783203125
-184.9365234375
-195.9228515625
-192.2607421875
-186.767578125
-188.5986328125
-189.51416015625
-187.68310546875
-190.4296875
-194.091796875
-195.9228515625
-194.091796875
-187.68310546875
-184.02099609375
-192.2607421875
-192.2607421875
-188.5986328125
-187.68310546875
-184.9365234375
-185.85205078125
-188.5986328125
-194.091796875
-193.17626953125
-187.68310546875
-186.767578125
-189.51416015625
-194.091796875
-189.51416015625
-186.767578125
-188.5986328125
-185.85205078125
-189.51416015625
-184.9365234375
-184.02099609375
-184.9365234375
-193.17626953125
-184.9365234375
-179.443359375
-187.68310546875
-197.75390625
-199.5849609375
-195.00732421875
-187.68310546875
-183.10546875
-183.10546875
-185.85205078125
-186.767578125
-181.2744140625
-182.18994140625
-179.443359375
-177.6123046875
-176.69677734375
-174.86572265625
-171.20361328125
-162.04833984375
-158.38623046875
-155.6396484375
-147.39990234375
-140.9912109375
-139.16015625
-132.75146484375
-136.41357421875
-130.92041015625
-143.73779296875
-149.23095703125
-145.56884765625
-154.72412109375
-151.9775390625
-145.56884765625
-148.3154296875
-153.80859375
-149.23095703125
-147.39990234375
-145.56884765625
-146.484375
-151.06201171875
-157.470703125
-148.3154296875
-140.07568359375
-140.07568359375
-142.822265625
-145.56884765625
-156.55517578125
-166.6259765625
-164.794921875
-163.87939453125
-162.04833984375
-162.9638671875
-167.54150390625
-166.6259765625
-158.38623046875
-151.9775390625
-173.9501953125
-190.4296875
-184.02099609375
-184.02099609375
-184.9365234375
-189.51416015625
-192.2607421875
-201.416015625
-206.9091796875
-198.66943359375
-203.2470703125
-200.50048828125
-206.9091796875
-209.65576171875
-206.9091796875
-195.9228515625
-194.091796875
-197.75390625
-200.50048828125
-199.5849609375
-194.091796875
-197.75390625
-199.5849609375
-197.75390625
-196.83837890625
-195.00732421875
-193.17626953125
-193.17626953125
-188.5986328125
-188.5986328125
-192.2607421875
-202.33154296875
-225.2197265625
-239.8681640625
-225.2197265625
-191.34521484375
-121.76513671875
-4.57763671875
131.8359375
259.09423828125
398.25439453125
541.07666015625
707.70263671875
871.58203125
1012.5732421875
1147.15576171875
1209.41162109375
1220.39794921875
1158.14208984375
995.17822265625
744.32373046875
552.06298828125
429.38232421875
314.02587890625
221.5576171875
140.9912109375
87.890625
36.62109375
0
-10.986328125
-24.71923828125
-34.7900390625
-55.84716796875
-74.15771484375
-77.81982421875
-64.0869140625
-43.02978515625
-45.7763671875
-41.19873046875
-43.9453125
-55.84716796875
-65.00244140625
-65.00244140625
-72.32666015625
-78.7353515625
-80.56640625
-88.80615234375
-88.80615234375
-86.97509765625
-94.29931640625
-91.552734375
-85.14404296875
-89.7216796875
-94.29931640625
-86.97509765625
-86.97509765625
-86.97509765625
-83.31298828125
-77.81982421875
-80.56640625
-79.65087890625
-75.0732421875
-69.580078125
-70.49560546875
-73.2421875
-68.66455078125
-74.15771484375
-67.7490234375
-66.83349609375
-60.4248046875
-53.1005859375
-59.50927734375
-59.50927734375
-54.931640625
-51.26953125
-50.35400390625
-35.70556640625
-36.62109375
-40.283203125
-37.53662109375
-29.296875
-18.310546875
-24.71923828125
-23.8037109375
-16.4794921875
-14.6484375
-13.73291015625
-13.73291015625
-6.40869140625
-4.57763671875
7.32421875
10.986328125
11.90185546875
10.986328125
17.39501953125
29.296875
33.87451171875
32.958984375
44.86083984375
34.7900390625
39.36767578125
49.4384765625
59.50927734375
67.7490234375
67.7490234375
70.49560546875
79.65087890625
86.97509765625
89.7216796875
95.21484375
99.79248046875
108.94775390625
120.849609375
135.498046875
135.498046875
130.0048828125
141.90673828125
156.55517578125
161.1328125
173.03466796875
178.52783203125
187.68310546875
199.5849609375
210.5712890625
212.40234375
234.375
251.77001953125
251.77001953125
259.09423828125
270.99609375
279.23583984375
292.05322265625
300.29296875
314.94140625
328.67431640625
336.9140625
345.15380859375
355.224609375
367.12646484375
379.0283203125
384.521484375
395.5078125
401.0009765625
403.74755859375
401.0009765625
402.83203125
402.83203125
394.59228515625
388.18359375
377.197265625
357.0556640625
342.4072265625
335.99853515625
313.1103515625
293.88427734375
270.99609375
249.93896484375
233.45947265625
208.740234375
184.02099609375
155.6396484375
140.07568359375
118.10302734375
87.890625
65.91796875
45.7763671875
30.21240234375
17.39501953125
-4.57763671875
-32.04345703125
-43.9453125
-52.18505859375
-65.91796875
-75.98876953125
-93.3837890625
-109.86328125
-114.44091796875
-119.93408203125
-126.3427734375
-134.58251953125
-132.75146484375
-130.0048828125
-133.6669921875
-143.73779296875
-151.06201171875
-151.06201171875
-163.87939453125
-159.3017578125
-163.87939453125
-164.794921875
-165.71044921875
-165.71044921875
-158.38623046875
-163.87939453125
-173.03466796875
-164.794921875
-162.9638671875
-164.794921875
-161.1328125
-159.3017578125
-159.3017578125
-166.6259765625
-173.03466796875
-173.03466796875
-167.54150390625
-171.20361328125
-164.794921875
-163.87939453125
-156.55517578125
-154.72412109375
-156.55517578125
-159.3017578125
-166.6259765625
-160.21728515625
-159.3017578125
-159.3017578125
-162.04833984375
-161.1328125
-163.87939453125
-162.04833984375
-159.3017578125
-155.6396484375
-154.72412109375
-162.04833984375
-164.794921875
-162.9638671875
-159.3017578125
-161.1328125
-166.6259765625
-160.21728515625
-158.38623046875
-159.3017578125
-162.04833984375
-165.71044921875
-163.87939453125
-168.45703125
-160.21728515625
-163.87939453125
-166.6259765625
-167.54150390625
-167.54150390625
-159.3017578125
-161.1328125
-165.71044921875
-168.45703125
-164.794921875
-161.1328125
-163.87939453125
-169.37255859375
-171.20361328125
-175.78125
-168.45703125
-171.20361328125
-170.2880859375
-173.03466796875
-171.20361328125
-166.6259765625
-166.6259765625
-171.20361328125
-178.52783203125
-176.69677734375
-172.119140625
-175.78125
-177.6123046875
-174.86572265625
-165.71044921875
-173.9501953125
-180.35888671875
-176.69677734375
-176.69677734375
-183.10546875
-186.767578125
-177.6123046875
-184.9365234375
-183.10546875
-180.35888671875
-177.6123046875
-186.767578125
-189.51416015625
-187.68310546875
-185.85205078125
-184.02099609375
-182.18994140625
-186.767578125
-190.4296875
-181.2744140625
-180.35888671875
-180.35888671875
-176.69677734375
-178.52783203125
-184.9365234375
-189.51416015625
-188.5986328125
-189.51416015625
-192.2607421875
-186.767578125
-186.767578125
-185.85205078125
-184.02099609375
-179.443359375
-177.6123046875
-180.35888671875
-180.35888671875
-177.6123046875
-189.51416015625
-189.51416015625
-185.85205078125
-180.35888671875
-180.35888671875
-177.6123046875
-183.10546875
-179.443359375
-179.443359375
-185.85205078125
-185.85205078125
-186.767578125
-185.85205078125
-184.9365234375
-186.767578125
-187.68310546875
-179.443359375
-176.69677734375
-183.10546875
-179.443359375
-181.2744140625
-177.6123046875
-182.18994140625
-185.85205078125
-186.767578125
-184.9365234375
-173.03466796875
-177.6123046875
-179.443359375
-176.69677734375
-184.9365234375
-187.68310546875
-188.5986328125
-186.767578125
-187.68310546875
-181.2744140625
-185.85205078125
-183.10546875
-183.10546875
-188.5986328125
-184.02099609375
-188.5986328125
-184.02099609375
-173.9501953125
-177.6123046875
-190.4296875
-184.02099609375
-185.85205078125
-184.02099609375
-182.18994140625
-182.18994140625
-183.10546875
-181.2744140625
-181.2744140625
-191.34521484375
-190.4296875
-192.2607421875
-183.10546875
-187.68310546875
-186.767578125
-185.85205078125
-184.02099609375
-185.85205078125
-186.767578125
-178.52783203125
-174.86572265625
-179.443359375
-179.443359375
-183.10546875
-181.2744140625
-177.6123046875
-178.52783203125
-176.69677734375
-175.78125
-173.03466796875
-173.03466796875
-178.52783203125
-173.03466796875
-160.21728515625
-157.470703125
-157.470703125
-151.06201171875
-137.3291015625
-127.25830078125
-127.25830078125
-129.08935546875
-135.498046875
-140.07568359375
-140.9912109375
-146.484375
-138.24462890625
-142.822265625
-144.6533203125
-142.822265625
-140.07568359375
-134.58251953125
-135.498046875
-136.41357421875
-131.8359375
-140.9912109375
-144.6533203125
-137.3291015625
-131.8359375
-140.07568359375
-150.146484375
-141.90673828125
-142.822265625
-142.822265625
-144.6533203125
-157.470703125
-160.21728515625
-152.89306640625
-161.1328125
-158.38623046875
-152.89306640625
-157.470703125
-166.6259765625
-160.21728515625
-156.55517578125
-167.54150390625
-180.35888671875
-184.02099609375
-186.767578125
-195.00732421875
-191.34521484375
-187.68310546875
-189.51416015625
-190.4296875
-190.4296875
-196.83837890625
-195.00732421875
-185.85205078125
-182.18994140625
-186.767578125
-183.10546875
-180.35888671875
-182.18994140625
-179.443359375
-173.03466796875
-168.45703125
-179.443359375
-180.35888671875
-174.86572265625
-166.6259765625
-171.20361328125
-181.2744140625
-184.02099609375
-198.66943359375
-221.5576171875
-227.05078125
-197.75390625
-150.146484375
-71.4111328125
52.18505859375
190.4296875
309.4482421875
447.69287109375
600.5859375
763.5498046875
918.27392578125
1051.94091796875
1166.3818359375
1212.158203125
1207.58056640625
1113.28125
904.541015625
619.81201171875
440.36865234375
320.4345703125
192.2607421875
107.11669921875
53.1005859375
20.1416015625
-3.662109375
-22.88818359375
-26.55029296875
-35.70556640625
-52.18505859375
-72.32666015625
-83.31298828125
-89.7216796875
-63.17138671875
-34.7900390625
-23.8037109375
-29.296875
-30.21240234375
-36.62109375
-51.26953125
-50.35400390625
-62.255859375
-79.65087890625
-74.15771484375
-72.32666015625
-78.7353515625
-85.14404296875
-81.48193359375
-78.7353515625
-75.98876953125
-75.0732421875
-75.0732421875
-74.15771484375
-67.7490234375
-63.17138671875
-61.34033203125
-65.00244140625
-68.66455078125
-63.17138671875
-60.4248046875
-54.01611328125
-50.35400390625
-43.02978515625
-54.931640625
-47.607421875
-41.19873046875
-47.607421875
-46.69189453125
-32.958984375
-27.4658203125
-25.634765625
-27.4658203125
-22.88818359375
-27.4658203125
-32.958984375
-26.55029296875
-27.4658203125
-14.6484375
-10.986328125
-6.40869140625
7.32421875
8.23974609375
21.05712890625
21.05712890625
16.4794921875
20.1416015625
30.21240234375
28.38134765625
30.21240234375
38.4521484375
42.1142578125
41.19873046875
40.283203125
43.9453125
58.59375
60.4248046875
72.32666015625
65.91796875
69.580078125
77.81982421875
78.7353515625
86.0595703125
92.46826171875
93.3837890625
91.552734375
101.62353515625
119.0185546875
121.76513671875
131.8359375
145.56884765625
155.6396484375
154.72412109375
157.470703125
174.86572265625
186.767578125
190.4296875
195.9228515625
205.078125
217.8955078125
227.96630859375
222.47314453125
229.79736328125
246.27685546875
261.8408203125
270.99609375
277.40478515625
292.05322265625
302.1240234375
309.4482421875
321.35009765625
331.4208984375
351.5625
357.97119140625
371.7041015625
379.0283203125
390.93017578125
399.169921875
411.07177734375
416.56494140625
422.9736328125
427.55126953125
425.72021484375
424.8046875
430.2978515625
423.88916015625
421.142578125
405.57861328125
392.76123046875
379.94384765625
363.46435546875
346.0693359375
326.84326171875
306.70166015625
287.4755859375
263.671875
242.61474609375
216.064453125
193.17626953125
170.2880859375
149.23095703125
124.51171875
100.7080078125
80.56640625
61.34033203125
43.02978515625
21.05712890625
-2.74658203125
-19.22607421875
-33.87451171875
-43.9453125
-50.35400390625
-64.0869140625
-76.904296875
-90.63720703125
-95.21484375
-97.96142578125
-106.201171875
-111.6943359375
-112.60986328125
-122.6806640625
-126.3427734375
-130.92041015625
-136.41357421875
-139.16015625
-142.822265625
-146.484375
-144.6533203125
-146.484375
-141.90673828125
-142.822265625
-149.23095703125
-149.23095703125
-149.23095703125
-146.484375
-146.484375
-138.24462890625
-147.39990234375
-144.6533203125
-144.6533203125
-148.3154296875
-147.39990234375
-145.56884765625
-151.06201171875
-145.56884765625
-147.39990234375
-146.484375
-141.90673828125
-129.08935546875
-131.8359375
-133.6669921875
-133.6669921875
-139.16015625
-135.498046875
-139.16015625
-138.24462890625
-140.07568359375
-137.3291015625
-130.0048828125
-134.58251953125
-136.41357421875
-132.75146484375
-134.58251953125
-135.498046875
-133.6669921875
-126.3427734375
-128.173828125
-135.498046875
-141.90673828125
-139.16015625
-140.07568359375
-140.9912109375
-139.16015625
-136.41357421875
-140.07568359375
-139.16015625
-140.07568359375
-140.9912109375
-140.07568359375
-141.90673828125
-142.822265625
-140.07568359375
-138.24462890625
-140.07568359375
-137.3291015625
-132.75146484375
-140.9912109375
-146.484375
-151.06201171875
-151.06201171875
-145.56884765625
-152.89306640625
-142.822265625
-134.58251953125
-139.16015625
-145.56884765625
-141.90673828125
-143.73779296875
-143.73779296875
-144.6533203125
-154.72412109375
-164.794921875
-160.21728515625
-152.89306640625
-158.38623046875
-156.55517578125
-152.89306640625
-156.55517578125
-154.72412109375
-156.55517578125
-160.21728515625
-157.470703125
-157.470703125
-163.87939453125
-162.04833984375
-162.9638671875
-161.1328125
-165.71044921875
-152.89306640625
-160.21728515625
-166.6259765625
-163.87939453125
-162.9638671875
-162.9638671875
-158.38623046875
-165.71044921875
-167.54150390625
-168.45703125
-164.794921875
-158.38623046875
-162.9638671875
-165.71044921875
-166.6259765625
-167.54150390625
-171.20361328125
-169.37255859375
-167.54150390625
-168.45703125
-168.45703125
-173.9501953125
-174.86572265625
-162.9638671875
-168.45703125
-165.71044921875
-162.04833984375
-170.2880859375
-173.9501953125
-174.86572265625
-168.45703125
-165.71044921875
-162.9638671875
-167.54150390625
-171.20361328125
-163.87939453125
-168.45703125
-169.37255859375
-173.03466796875
-179.443359375
-174.86572265625
-164.794921875
-173.9501953125
-172.119140625
-173.03466796875
-176.69677734375
-167.54150390625
-166.6259765625
-168.45703125
-169.37255859375
-158.38623046875
-151.9775390625
-157.470703125
-161.1328125
-160.21728515625
-151.9775390625
-145.56884765625
-141.90673828125
-138.24462890625
-134.58251953125
-124.51171875
-119.0185546875
-117.1875
-123.59619140625
-129.08935546875
-130.92041015625
-130.92041015625
-132.75146484375
-127.25830078125
-125.42724609375
-122.6806640625
-130.92041015625
-131.8359375
-132.75146484375
-132.75146484375
-129.08935546875
-124.51171875
-123.59619140625
-131.8359375
-130.92041015625
-126.3427734375
-127.25830078125
-128.173828125
-135.498046875
-132.75146484375
-136.41357421875
-133.6669921875
-136.41357421875
-138.24462890625
-146.484375
-156.55517578125
-157.470703125
-153.80859375
-159.3017578125
-157.470703125
-152.89306640625
-157.470703125
-161.1328125
-167.54150390625
-173.9501953125
-180.35888671875
-184.9365234375
-184.9365234375
-178.52783203125
-189.51416015625
-182.18994140625
-180.35888671875
-184.02099609375
-180.35888671875
-176.69677734375
-184.02099609375
-180.35888671875
-184.02099609375
-184.02099609375
-184.9365234375
-180.35888671875
-177.6123046875
-173.03466796875
-174.86572265625
-174.86572265625
-171.20361328125
-168.45703125
-164.794921875
-165.71044921875
-173.9501953125
-191.34521484375
-211.48681640625
-218.81103515625
-194.091796875
-161.1328125
-88.80615234375
28.38134765625
169.37255859375
289.306640625
426.6357421875
573.1201171875
741.5771484375
907.28759765625
1030.8837890625
1159.0576171875
1232.2998046875
1227.72216796875
1157.2265625
985.107421875
704.04052734375
485.2294921875
366.2109375
250.8544921875
148.3154296875
76.904296875
41.19873046875
17.39501953125
-4.57763671875
-11.90185546875
-27.4658203125
-48.52294921875
-64.0869140625
-75.98876953125
-90.63720703125
-65.91796875
-32.958984375
-19.22607421875
-28.38134765625
-30.21240234375
-37.53662109375
-41.19873046875
-48.52294921875
-59.50927734375
-65.91796875
-63.17138671875
-72.32666015625
-73.2421875
-71.4111328125
-69.580078125
-65.00244140625
-70.49560546875
-69.580078125
-68.66455078125
-75.0732421875
-69.580078125
-61.34033203125
-58.59375
-58.59375
-56.7626953125
-55.84716796875
-54.931640625
-58.59375
-55.84716796875
-54.931640625
-53.1005859375
-55.84716796875
-46.69189453125
-34.7900390625
-37.53662109375
-41.19873046875
-37.53662109375
-32.958984375
-32.04345703125
-27.4658203125
-22.88818359375
-19.22607421875
-12.8173828125
-5.4931640625
-12.8173828125
-8.23974609375
2.74658203125
0.91552734375
2.74658203125
4.57763671875
10.986328125
19.22607421875
20.1416015625
23.8037109375
26.55029296875
27.4658203125
35.70556640625
40.283203125
37.53662109375
44.86083984375
45.7763671875
49.4384765625
54.01611328125
68.66455078125
76.904296875
76.904296875
70.49560546875
86.0595703125
100.7080078125
98.876953125
98.876953125
109.86328125
115.3564453125
118.10302734375
128.173828125
132.75146484375
144.6533203125
144.6533203125
151.06201171875
159.3017578125
172.119140625
178.52783203125
190.4296875
200.50048828125
203.2470703125
211.48681640625
223.388671875
239.8681640625
248.10791015625
264.58740234375
274.658203125
282.89794921875
292.96875
310.36376953125
318.603515625
332.33642578125
351.5625
354.30908203125
359.80224609375
373.53515625
378.11279296875
393.6767578125
402.83203125
414.73388671875
427.55126953125
435.791015625
433.9599609375
429.38232421875
436.70654296875
432.12890625
419.3115234375
412.90283203125
401.91650390625
387.26806640625
373.53515625
366.2109375
344.23828125
322.265625
300.29296875
282.89794921875
250.8544921875
226.13525390625
209.65576171875
178.52783203125
154.72412109375
132.75146484375
110.77880859375
87.890625
61.34033203125
40.283203125
28.38134765625
0.91552734375
-21.97265625
-26.55029296875
-45.7763671875
-62.255859375
-70.49560546875
-81.48193359375
-96.13037109375
-111.6943359375
-119.93408203125
-111.6943359375
-122.6806640625
-130.0048828125
-129.08935546875
-127.25830078125
-139.16015625
-146.484375
-147.39990234375
-149.23095703125
-153.80859375
-158.38623046875
-154.72412109375
-162.9638671875
-159.3017578125
-158.38623046875
-155.6396484375
-154.72412109375
-156.55517578125
-159.3017578125
-154.72412109375
-160.21728515625
-162.04833984375
-155.6396484375
-161.1328125
-164.794921875
-162.04833984375
-161.1328125
-162.9638671875
-160.21728515625
-157.470703125
-160.21728515625
-162.04833984375
-163.87939453125
-168.45703125
-168.45703125
-162.9638671875
-155.6396484375
-151.06201171875
-156.55517578125
-159.3017578125
-157.470703125
-160.21728515625
-160.21728515625
-163.87939453125
-160.21728515625
-162.9638671875
-157.470703125
-161.1328125
-164.794921875
-159.3017578125
-160.21728515625
-154.72412109375
-162.9638671875
-161.1328125
-145.56884765625
-152.89306640625
-154.72412109375
-162.04833984375
-163.87939453125
-162.04833984375
-157.470703125
-160.21728515625
-162.04833984375
-161.1328125
-160.21728515625
-153.80859375
-153.80859375
-160.21728515625
-158.38623046875
-162.9638671875
-159.3017578125
-158.38623046875
-168.45703125
-168.45703125
-157.470703125
-161.1328125
-164.794921875
-168.45703125
-173.9501953125
-173.03466796875
-173.03466796875
-179.443359375
-168.45703125
-163.87939453125
-174.86572265625
-181.2744140625
-175.78125
-173.03466796875
-173.03466796875
-173.03466796875
-171.20361328125
-174.86572265625
-178.52783203125
-178.52783203125
-185.85205078125
-186.767578125
-181.2744140625
-174.86572265625
-176.69677734375
-171.20361328125
-177.6123046875
-177.6123046875
-182.18994140625
-174.86572265625
-180.35888671875
-188.5986328125
-180.35888671875
-184.02099609375
-184.02099609375
-179.443359375
-187.68310546875
-185.85205078125
-187.68310546875
-192.2607421875
-192.2607421875
-189.51416015625
-189.51416015625
-188.5986328125
-193.17626953125
-193.17626953125
-187.68310546875
-180.35888671875
-189.51416015625
-189.51416015625
-189.51416015625
-188.5986328125
-185.85205078125
-190.4296875
-192.2607421875
-189.51416015625
-195.00732421875
-194.091796875
-196.83837890625
-200.50048828125
-195.00732421875
-186.767578125
-184.02099609375
-193.17626953125
-195.9228515625
-199.5849609375
-195.9228515625
-189.51416015625
-189.51416015625
-191.34521484375
-195.9228515625
-195.9228515625
-201.416015625
-199.5849609375
-195.00732421875
-200.50048828125
-195.00732421875
-196.83837890625
-200.50048828125
-193.17626953125
-193.17626953125
-197.75390625
-202.33154296875
-197.75390625
-189.51416015625
-191.34521484375
-195.00732421875
-194.091796875
-189.51416015625
-194.091796875
-195.9228515625
-201.416015625
-195.9228515625
-200.50048828125
-200.50048828125
-192.2607421875
-195.00732421875
-199.5849609375
-199.5849609375
-192.2607421875
-195.00732421875
-194.091796875
-184.9365234375
-192.2607421875
-190.4296875
-195.00732421875
-199.5849609375
-201.416015625
-195.9228515625
-196.83837890625
-195.9228515625
-189.51416015625
-190.4296875
-199.5849609375
-195.00732421875
-193.17626953125
-186.767578125
-195.9228515625
-199.5849609375
-200.50048828125
-193.17626953125
-189.51416015625
-191.34521484375
-195.00732421875
-189.51416015625
-196.83837890625
-191.34521484375
-182.18994140625
-189.51416015625
-186.767578125
-186.767578125
-183.10546875
-184.02099609375
-179.443359375
-175.78125
-176.69677734375
-167.54150390625
-159.3017578125
-159.3017578125
-151.06201171875
-142.822265625
-141.90673828125
-142.822265625
-146.484375
-145.56884765625
-152.89306640625
-158.38623046875
-151.9775390625
-151.06201171875
-151.9775390625
-151.06201171875
-157.470703125
-153.80859375
-148.3154296875
-152.89306640625
-148.3154296875
-151.9775390625
-157.470703125
-157.470703125
-152.89306640625
-143.73779296875
-151.06201171875
-147.39990234375
-144.6533203125
-155.6396484375
-162.9638671875
-173.03466796875
-173.03466796875
-172.119140625
-165.71044921875
-168.45703125
-168.45703125
-169.37255859375
-173.03466796875
-177.6123046875
-182.18994140625
-179.443359375
-180.35888671875
-184.02099609375
-199.5849609375
-198.66943359375
-200.50048828125
-206.9091796875
-205.99365234375
-203.2470703125
-207.82470703125
-209.65576171875
-201.416015625
-201.416015625
-203.2470703125
-202.33154296875
-195.9228515625
-203.2470703125
-204.16259765625
-207.82470703125
-204.16259765625
-205.99365234375
-200.50048828125
-195.9228515625
-195.9228515625
-194.091796875
-187.68310546875
-195.00732421875
-195.00732421875
-202.33154296875
-216.97998046875
-248.10791015625
-241.69921875
-208.740234375
-156.55517578125
-71.4111328125
54.01611328125
182.18994140625
308.53271484375
460.51025390625
608.82568359375
779.11376953125
925.59814453125
1062.92724609375
1173.7060546875
1218.56689453125
1208.49609375
1100.4638671875
869.7509765625
641.78466796875
510.8642578125
387.26806640625
270.08056640625
190.4296875
117.1875
54.931640625
18.310546875
-3.662109375
-16.4794921875
-22.88818359375
-47.607421875
-77.81982421875
-93.3837890625
-81.48193359375
-54.01611328125
-39.36767578125
-28.38134765625
-33.87451171875
-50.35400390625
-60.4248046875
-63.17138671875
-78.7353515625
-84.228515625
-81.48193359375
-86.97509765625
-88.80615234375
-95.21484375
-85.14404296875
-89.7216796875
-104.3701171875
-100.7080078125
-94.29931640625
-90.63720703125
-91.552734375
-90.63720703125
-86.0595703125
-94.29931640625
-88.80615234375
-83.31298828125
-76.904296875
-77.81982421875
-81.48193359375
-67.7490234375
-71.4111328125
-76.904296875
-73.2421875
-71.4111328125
-69.580078125
-70.49560546875
-69.580078125
-62.255859375
-63.17138671875
-50.35400390625
-52.18505859375
-43.02978515625
-43.02978515625
-46.69189453125
-32.958984375
-37.53662109375
-34.7900390625
-35.70556640625
-27.4658203125
-25.634765625
-25.634765625
-23.8037109375
-13.73291015625
-5.4931640625
-2.74658203125
7.32421875
0.91552734375
-0.91552734375
6.40869140625
12.8173828125
18.310546875
28.38134765625
27.4658203125
28.38134765625
37.53662109375
45.7763671875
43.9453125
51.26953125
63.17138671875
54.01611328125
58.59375
66.83349609375
79.65087890625
84.228515625
93.3837890625
99.79248046875
99.79248046875
102.5390625
111.6943359375
118.10302734375
131.8359375
143.73779296875
150.146484375
152.89306640625
161.1328125
168.45703125
181.2744140625
195.00732421875
195.9228515625
214.2333984375
223.388671875
229.79736328125
240.78369140625
253.60107421875
273.74267578125
289.306640625
288.39111328125
298.4619140625
311.279296875
325.927734375
336.9140625
341.49169921875
356.14013671875
368.0419921875
375.3662109375
382.6904296875
388.18359375
395.5078125
399.169921875
406.494140625
405.57861328125
401.91650390625
398.25439453125
385.43701171875
378.11279296875
369.873046875
356.14013671875
335.99853515625
321.35009765625
303.03955078125
284.72900390625
260.92529296875
234.375
211.48681640625
190.4296875
169.37255859375
142.822265625
126.3427734375
100.7080078125
71.4111328125
50.35400390625
27.4658203125
1.8310546875
-14.6484375
-22.88818359375
-35.70556640625
-47.607421875
-71.4111328125
-86.0595703125
-87.890625
-99.79248046875
-106.201171875
-112.60986328125
-121.76513671875
-132.75146484375
-140.07568359375
-135.498046875
-142.822265625
-152.89306640625
-159.3017578125
-151.9775390625
-156.55517578125
-159.3017578125
-159.3017578125
-158.38623046875
-163.87939453125
-165.71044921875
-164.794921875
-168.45703125
-162.9638671875
-171.20361328125
-172.119140625
-166.6259765625
-166.6259765625
-163.87939453125
-167.54150390625
-166.6259765625
-173.9501953125
-170.2880859375
-166.6259765625
-168.45703125
-162.9638671875
-166.6259765625
-163.87939453125
-168.45703125
-173.9501953125
-168.45703125
-162.9638671875
-155.6396484375
-154.72412109375
-162.04833984375
-161.1328125
-159.3017578125
-160.21728515625
-162.04833984375
-162.04833984375
-166.6259765625
-158.38623046875
-158.38623046875
-160.21728515625
-164.794921875
-163.87939453125
-162.04833984375
-159.3017578125
-159.3017578125
-154.72412109375
-154.72412109375
-159.3017578125
-162.9638671875
-160.21728515625
-160.21728515625
-161.1328125
-158.38623046875
-162.9638671875
-162.04833984375
-161.1328125
-162.04833984375
-165.71044921875
-169.37255859375
-170.2880859375
-162.04833984375
-158.38623046875
-168.45703125
-175.78125
-167.54150390625
-166.6259765625
-166.6259765625
-168.45703125
-154.72412109375
-160.21728515625
-173.03466796875
-172.119140625
-171.20361328125
-161.1328125
-163.87939453125
-171.20361328125
-173.9501953125
-174.86572265625
-170.2880859375
-169.37255859375
-170.2880859375
-170.2880859375
-175.78125
-173.03466796875
-173.9501953125
-167.54150390625
-166.6259765625
-180.35888671875
-180.35888671875
-177.6123046875
-173.9501953125
-173.03466796875
-177.6123046875
-173.03466796875
-175.78125
-180.35888671875
-176.69677734375
-177.6123046875
-177.6123046875
-173.9501953125
-176.69677734375
-181.2744140625
-181.2744140625
-175.78125
-182.18994140625
-179.443359375
-177.6123046875
-183.10546875
-183.10546875
-176.69677734375
-179.443359375
-180.35888671875
-180.35888671875
-176.69677734375
-176.69677734375
-174.86572265625
-176.69677734375
-180.35888671875
-171.20361328125
-182.18994140625
-190.4296875
-184.9365234375
-188.5986328125
-185.85205078125
-174.86572265625
-178.52783203125
-173.9501953125
-169.37255859375
-180.35888671875
-181.2744140625
-173.9501953125
-176.69677734375
-178.52783203125
-179.443359375
-181.2744140625
-180.35888671875
-175.78125
-173.03466796875
-178.52783203125
-177.6123046875
-171.20361328125
-173.9501953125
-180.35888671875
-186.767578125
-184.9365234375
-181.2744140625
-177.6123046875
-180.35888671875
-180.35888671875
-178.52783203125
-178.52783203125
-179.443359375
-180.35888671875
-175.78125
-172.119140625
-173.03466796875
-175.78125
-182.18994140625
-177.6123046875
-179.443359375
-180.35888671875
-175.78125
-179.443359375
-175.78125
-173.03466796875
-176.69677734375
-177.6123046875
-181.2744140625
-174.86572265625
-179.443359375
-180.35888671875
-180.35888671875
-177.6123046875
-173.03466796875
-179.443359375
-179.443359375
-184.02099609375
-182.18994140625
-183.10546875
-176.69677734375
-180.35888671875
-176.69677734375
-172.119140625
-174.86572265625
-173.9501953125
-175.78125
-171.20361328125
-172.119140625
-172.119140625
-167.54150390625
-179.443359375
-184.02099609375
-177.6123046875
-183.10546875
-177.6123046875
-179.443359375
-180.35888671875
-173.9501953125
-173.03466796875
-169.37255859375
-164.794921875
-163.87939453125
-162.04833984375
-164.794921875
-164.794921875
-151.9775390625
-148.3154296875
-138.24462890625
-137.3291015625
-137.3291015625
-127.25830078125
-119.0185546875
-112.60986328125
-126.3427734375
-133.6669921875
-135.498046875
-130.92041015625
-129.08935546875
-130.92041015625
-138.24462890625
-129.08935546875
-130.0048828125
-124.51171875
-129.08935546875
-130.0048828125
-135.498046875
-125.42724609375
-125.42724609375
-124.51171875
-138.24462890625
-130.92041015625
-129.08935546875
-125.42724609375
-122.6806640625
-140.07568359375
-141.90673828125
-137.3291015625
-143.73779296875
-140.9912109375
-136.41357421875
-139.16015625
-143.73779296875
-136.41357421875
-143.73779296875
-155.6396484375
-154.72412109375
-152.89306640625
-171.20361328125
-176.69677734375
-178.52783203125
-182.18994140625
-186.767578125
-186.767578125
-178.52783203125
-180.35888671875
-179.443359375
-183.10546875
-180.35888671875
-181.2744140625
-184.9365234375
-184.02099609375
-180.35888671875
-180.35888671875
-170.2880859375
-169.37255859375
-171.20361328125
-168.45703125
-168.45703125
-170.2880859375
-167.54150390625
-162.9638671875
-162.9638671875
-163.87939453125
-173.9501953125
-173.9501953125
-183.10546875
-205.99365234375
-213.31787109375
-201.416015625
-155.6396484375
-89.7216796875
26.55029296875
161.1328125
274.658203125
415.6494140625
563.04931640625
710.44921875
884.3994140625
1027.2216796875
1153.564453125
1224.9755859375
1230.46875
1158.14208984375
987.85400390625
704.9560546875
480.65185546875
362.548828125
240.78369140625
141.90673828125
76.904296875
46.69189453125
22.88818359375
-12.8173828125
-21.97265625
-27.4658203125
-49.4384765625
-70.49560546875
-77.81982421875
-75.0732421875
-64.0869140625
-39.36767578125
-17.39501953125
-10.986328125
-8.23974609375
-19.22607421875
-33.87451171875
-44.86083984375
-51.26953125
-54.01611328125
-54.931640625
-59.50927734375
-62.255859375
-66.83349609375
-61.34033203125
-65.00244140625
-62.255859375
-65.91796875
-59.50927734375
-54.931640625
-60.4248046875
-51.26953125
-46.69189453125
-56.7626953125
-61.34033203125
-52.18505859375
-45.7763671875
-46.69189453125
-46.69189453125
-44.86083984375
-44.86083984375
-36.62109375
-34.7900390625
-38.4521484375
-32.958984375
-29.296875
-30.21240234375
-23.8037109375
-18.310546875
-15.56396484375
-8.23974609375
-3.662109375
-11.90185546875
-7.32421875
-2.74658203125
1.8310546875
10.986328125
6.40869140625
10.07080078125
16.4794921875
24.71923828125
24.71923828125
24.71923828125
24.71923828125
27.4658203125
34.7900390625
35.70556640625
38.4521484375
44.86083984375
52.18505859375
59.50927734375
66.83349609375
69.580078125
72.32666015625
86.0595703125
90.63720703125
84.228515625
92.46826171875
101.62353515625
107.11669921875
108.0322265625
108.0322265625
117.1875
121.76513671875
125.42724609375
137.3291015625
143.73779296875
148.3154296875
162.9638671875
170.2880859375
180.35888671875
195.00732421875
197.75390625
207.82470703125
218.81103515625
229.79736328125
236.2060546875
247.1923828125
260.009765625
265.5029296875
277.40478515625
290.22216796875
302.1240234375
314.94140625
324.0966796875
328.67431640625
342.4072265625
357.97119140625
365.29541015625
375.3662109375
389.09912109375
400.08544921875
408.3251953125
420.22705078125
432.12890625
439.453125
444.03076171875
447.69287109375
453.18603515625
457.763671875
448.6083984375
450.439453125
433.04443359375
433.9599609375
430.2978515625
405.57861328125
391.845703125
374.45068359375
352.47802734375
334.16748046875
316.7724609375
292.96875
264.58740234375
246.27685546875
216.97998046875
188.5986328125
173.03466796875
142.822265625
115.3564453125
98.876953125
80.56640625
57.67822265625
39.36767578125
21.97265625
11.90185546875
-4.57763671875
-21.97265625
-37.53662109375
-46.69189453125
-57.67822265625
-66.83349609375
-83.31298828125
-93.3837890625
-97.0458984375
-100.7080078125
-99.79248046875
-107.11669921875
-108.0322265625
-124.51171875
