ECG
-71.4111328125
-68.66455078125
-65.00244140625
-57.67822265625
-54.931640625
-68.66455078125
-71.4111328125
-70.49560546875
-72.32666015625
-70.49560546875
-69.580078125
-64.0869140625
-72.32666015625
-75.0732421875
-71.4111328125
-73.2421875
-72.32666015625
-74.15771484375
-66.83349609375
-67.7490234375
-69.580078125
-65.91796875
-73.2421875
-81.48193359375
-83.31298828125
-86.97509765625
-80.56640625
-82.3974609375
-88.80615234375
-95.21484375
-98.876953125
-87.890625
-96.13037109375
-97.96142578125
-97.0458984375
-89.7216796875
-80.56640625
-68.66455078125
-63.17138671875
-63.17138671875
-60.4248046875
-60.4248046875
-65.00244140625
-75.98876953125
-79.65087890625
-83.31298828125
-85.14404296875
-86.97509765625
-81.48193359375
-80.56640625
-80.56640625
-71.4111328125
-78.7353515625
-82.3974609375
-79.65087890625
-81.48193359375
-87.890625
-83.31298828125
-82.3974609375
-86.0595703125
-86.97509765625
-91.552734375
-91.552734375
-92.46826171875
-98.876953125
-96.13037109375
-90.63720703125
-95.21484375
-103.45458984375
-105.28564453125
-110.77880859375
-117.1875
-119.0185546875
-116.27197265625
-114.44091796875
-114.44091796875
-98.876953125
-87.890625
-80.56640625
-86.0595703125
-84.228515625
-94.29931640625
-97.0458984375
-97.96142578125
-93.3837890625
-91.552734375
-97.0458984375
-102.5390625
-105.28564453125
-97.96142578125
-97.96142578125
-97.96142578125
-103.45458984375
-98.876953125
-95.21484375
-86.0595703125
-85.14404296875
-86.0595703125
-90.63720703125
-90.63720703125
-88.80615234375
-97.0458984375
-108.0322265625
-107.11669921875
-113.525390625
-127.25830078125
-126.3427734375
-116.27197265625
-122.6806640625
-127.25830078125
-125.42724609375
-110.77880859375
-97.0458984375
-86.0595703125
-63.17138671875
-69.580078125
-76.904296875
-82.3974609375
-78.7353515625
-86.0595703125
-88.80615234375
-94.29931640625
-94.29931640625
-96.13037109375
-90.63720703125
-94.29931640625
-90.63720703125
-93.3837890625
-96.13037109375
-102.5390625
-95.21484375
-94.29931640625
-92.46826171875
-98.876953125
-91.552734375
-89.7216796875
-95.21484375
-92.46826171875
-87.890625
-86.97509765625
-82.3974609375
-76.904296875
-102.5390625
-102.5390625
-101.62353515625
-111.6943359375
-111.6943359375
-134.58251953125
-130.0048828125
-140.9912109375
-128.173828125
-122.6806640625
-109.86328125
-103.45458984375
-102.5390625
-104.3701171875
-104.3701171875
-121.76513671875
-131.8359375
-140.9912109375
-142.822265625
-124.51171875
-100.7080078125
-97.0458984375
-94.29931640625
-91.552734375
-94.29931640625
-85.14404296875
-86.0595703125
-83.31298828125
-89.7216796875
-85.14404296875
-73.2421875
-79.65087890625
-77.81982421875
-64.0869140625
-67.7490234375
-78.7353515625
-73.2421875
-69.580078125
-65.00244140625
-66.83349609375
-73.2421875
-73.2421875
-79.65087890625
-71.4111328125
-68.66455078125
-70.49560546875
-88.80615234375
-97.96142578125
-88.80615234375
-73.2421875
-73.2421875
-68.66455078125
-66.83349609375
-72.32666015625
-73.2421875
-65.00244140625
-61.34033203125
-71.4111328125
-72.32666015625
-69.580078125
-79.65087890625
-73.2421875
-60.4248046875
-71.4111328125
-85.14404296875
-107.11669921875
-117.1875
-129.08935546875
-130.92041015625
-128.173828125
-115.3564453125
-114.44091796875
-127.25830078125
-125.42724609375
-132.75146484375
-131.8359375
-141.90673828125
-162.04833984375
-155.6396484375
-144.6533203125
-132.75146484375
-125.42724609375
-103.45458984375
-94.29931640625
-95.21484375
-73.2421875
-94.29931640625
-100.7080078125
-96.13037109375
-108.94775390625
-105.28564453125
-102.5390625
-123.59619140625
-114.44091796875
-81.48193359375
-52.18505859375
5.4931640625
77.81982421875
145.56884765625
214.2333984375
308.53271484375
418.39599609375
505.37109375
570.37353515625
608.82568359375
633.544921875
539.24560546875
311.279296875
108.94775390625
-49.4384765625
-125.42724609375
-173.03466796875
-194.091796875
-225.2197265625
-252.685546875
-264.58740234375
-281.982421875
-295.71533203125
-307.6171875
-314.02587890625
-302.1240234375
-290.22216796875
-265.5029296875
-227.96630859375
-209.65576171875
-198.66943359375
-173.9501953125
-140.9912109375
-125.42724609375
-105.28564453125
-99.79248046875
-83.31298828125
-76.904296875
-78.7353515625
-75.0732421875
-75.98876953125
-76.904296875
-93.3837890625
-77.81982421875
-75.0732421875
-80.56640625
-87.890625
-85.14404296875
-86.0595703125
-86.97509765625
-82.3974609375
-75.0732421875
-72.32666015625
-72.32666015625
-66.83349609375
-59.50927734375
-55.84716796875
-43.9453125
-47.607421875
-46.69189453125
-47.607421875
-41.19873046875
-52.18505859375
-53.1005859375
-56.7626953125
-55.84716796875
-53.1005859375
-44.86083984375
-43.9453125
-39.36767578125
-36.62109375
-39.36767578125
-31.1279296875
-22.88818359375
-32.04345703125
-43.9453125
-57.67822265625
-58.59375
-65.91796875
-65.91796875
-66.83349609375
-50.35400390625
-56.7626953125
-57.67822265625
-26.55029296875
-32.958984375
-23.8037109375
-27.4658203125
-26.55029296875
-21.97265625
-36.62109375
-47.607421875
-54.931640625
-52.18505859375
-58.59375
-47.607421875
-32.04345703125
-32.958984375
-33.87451171875
-24.71923828125
-26.55029296875
-14.6484375
0
15.56396484375
24.71923828125
19.22607421875
22.88818359375
23.8037109375
23.8037109375
16.4794921875
18.310546875
30.21240234375
22.88818359375
21.97265625
11.90185546875
13.73291015625
19.22607421875
18.310546875
22.88818359375
26.55029296875
30.21240234375
45.7763671875
54.01611328125
61.34033203125
54.931640625
58.59375
74.15771484375
73.2421875
62.255859375
40.283203125
22.88818359375
46.69189453125
69.580078125
75.0732421875
82.3974609375
105.28564453125
122.6806640625
129.08935546875
143.73779296875
151.9775390625
149.23095703125
159.3017578125
168.45703125
162.9638671875
167.54150390625
161.1328125
150.146484375
168.45703125
166.6259765625
162.9638671875
172.119140625
180.35888671875
184.02099609375
185.85205078125
182.18994140625
198.66943359375
184.02099609375
179.443359375
193.17626953125
210.5712890625
209.65576171875
203.2470703125
199.5849609375
187.68310546875
203.2470703125
202.33154296875
197.75390625
181.2744140625
174.86572265625
184.02099609375
174.86572265625
168.45703125
148.3154296875
125.42724609375
111.6943359375
107.11669921875
102.5390625
65.91796875
71.4111328125
51.26953125
28.38134765625
30.21240234375
34.7900390625
31.1279296875
-10.07080078125
-23.8037109375
-39.36767578125
-25.634765625
-10.07080078125
-11.90185546875
-10.07080078125
-31.1279296875
-31.1279296875
-18.310546875
-22.88818359375
-25.634765625
-16.4794921875
-5.4931640625
9.1552734375
0.91552734375
-15.56396484375
-9.1552734375
-6.40869140625
-22.88818359375
-26.55029296875
-48.52294921875
-52.18505859375
-70.49560546875
-86.0595703125
-57.67822265625
-47.607421875
-40.283203125
-25.634765625
-43.02978515625
-29.296875
-14.6484375
-7.32421875
1.8310546875
-15.56396484375
-36.62109375
-41.19873046875
-35.70556640625
-37.53662109375
-28.38134765625
-18.310546875
-18.310546875
-24.71923828125
-19.22607421875
5.4931640625
2.74658203125
-7.32421875
-5.4931640625
-4.57763671875
-7.32421875
-1.8310546875
-9.1552734375
-14.6484375
-23.8037109375
-20.1416015625
-24.71923828125
-0.91552734375
-11.90185546875
-13.73291015625
-17.39501953125
-8.23974609375
-16.4794921875
-21.05712890625
-10.07080078125
-21.05712890625
-45.7763671875
-81.48193359375
-74.15771484375
-30.21240234375
-46.69189453125
-53.1005859375
-47.607421875
-21.05712890625
12.8173828125
25.634765625
39.36767578125
45.7763671875
19.22607421875
1.8310546875
-0.91552734375
6.40869140625
-8.23974609375
-32.958984375
-29.296875
-20.1416015625
-24.71923828125
-14.6484375
-21.97265625
-14.6484375
-5.4931640625
-25.634765625
-34.7900390625
-15.56396484375
-23.8037109375
-40.283203125
-41.19873046875
-39.36767578125
-40.283203125
-41.19873046875
-25.634765625
-54.01611328125
-75.0732421875
-62.255859375
-67.7490234375
-53.1005859375
-42.1142578125
-47.607421875
-54.931640625
-50.35400390625
-58.59375
-46.69189453125
-36.62109375
-38.4521484375
-54.931640625
-56.7626953125
-33.87451171875
-13.73291015625
-7.32421875
-7.32421875
1.8310546875
-10.986328125
-15.56396484375
-21.97265625
-28.38134765625
-17.39501953125
-15.56396484375
-11.90185546875
-25.634765625
-30.21240234375
-32.04345703125
-34.7900390625
-43.02978515625
-50.35400390625
-67.7490234375
-66.83349609375
-54.931640625
-46.69189453125
-39.36767578125
-49.4384765625
-59.50927734375
-55.84716796875
-58.59375
-70.49560546875
-69.580078125
-78.7353515625
-65.00244140625
-54.01611328125
-63.17138671875
-65.00244140625
-59.50927734375
-62.255859375
-61.34033203125
-46.69189453125
-26.55029296875
-21.97265625
-25.634765625
-27.4658203125
-7.32421875
0
-14.6484375
-21.97265625
-16.4794921875
-24.71923828125
-36.62109375
-29.296875
-25.634765625
-21.97265625
-33.87451171875
-38.4521484375
-40.283203125
-53.1005859375
-61.34033203125
-60.4248046875
-59.50927734375
-76.904296875
-66.83349609375
-62.255859375
-54.01611328125
-39.36767578125
-37.53662109375
-47.607421875
-33.87451171875
-31.1279296875
-36.62109375
-49.4384765625
-40.283203125
-42.1142578125
-41.19873046875
-51.26953125
-51.26953125
-50.35400390625
-55.84716796875
-57.67822265625
-61.34033203125
-61.34033203125
-54.931640625
-63.17138671875
-66.83349609375
-69.580078125
-51.26953125
-42.1142578125
-49.4384765625
-50.35400390625
-34.7900390625
-32.958984375
-32.958984375
-26.55029296875
-25.634765625
-16.4794921875
-9.1552734375
-9.1552734375
-14.6484375
-23.8037109375
-20.1416015625
-8.23974609375
-4.57763671875
-15.56396484375
-14.6484375
-21.05712890625
-23.8037109375
-24.71923828125
-21.97265625
-16.4794921875
-35.70556640625
-49.4384765625
-43.02978515625
-37.53662109375
-32.04345703125
-35.70556640625
-32.04345703125
-23.8037109375
-11.90185546875
-9.1552734375
-21.05712890625
-34.7900390625
-32.958984375
-34.7900390625
-49.4384765625
-58.59375
-70.49560546875
-66.83349609375
-65.00244140625
-68.66455078125
-68.66455078125
-65.00244140625
-68.66455078125
-67.7490234375
-65.91796875
-69.580078125
-50.35400390625
-45.7763671875
-54.01611328125
-54.931640625
-43.9453125
-59.50927734375
-57.67822265625
-63.17138671875
-61.34033203125
-65.00244140625
-75.0732421875
-94.29931640625
-94.29931640625
-104.3701171875
-88.80615234375
-88.80615234375
-64.0869140625
-25.634765625
24.71923828125
87.890625
159.3017578125
236.2060546875
330.50537109375
445.86181640625
570.37353515625
642.7001953125
682.9833984375
715.9423828125
701.2939453125
490.72265625
255.43212890625
96.13037109375
-12.8173828125
-68.66455078125
-68.66455078125
-109.86328125
-154.72412109375
-185.85205078125
-214.2333984375
-229.79736328125
-237.12158203125
-247.1923828125
-231.62841796875
-230.712890625
-203.2470703125
-166.6259765625
-151.9775390625
-144.6533203125
-108.0322265625
-89.7216796875
-73.2421875
-60.4248046875
-54.931640625
-77.81982421875
-65.91796875
-56.7626953125
-54.931640625
-72.32666015625
-80.56640625
-65.91796875
-66.83349609375
-54.931640625
-49.4384765625
-51.26953125
-55.84716796875
-46.69189453125
-57.67822265625
-58.59375
-48.52294921875
-48.52294921875
-43.9453125
-23.8037109375
-41.19873046875
-75.98876953125
-64.0869140625
-54.931640625
-50.35400390625
-50.35400390625
-63.17138671875
-53.1005859375
-32.04345703125
-48.52294921875
-34.7900390625
-37.53662109375
-47.607421875
-47.607421875
-22.88818359375
-41.19873046875
-39.36767578125
-45.7763671875
-55.84716796875
-43.02978515625
-57.67822265625
-46.69189453125
-42.1142578125
-64.0869140625
-65.00244140625
-67.7490234375
-71.4111328125
-61.34033203125
-44.86083984375
-38.4521484375
-49.4384765625
-52.18505859375
-54.931640625
-43.02978515625
-32.958984375
-26.55029296875
-0.91552734375
-10.07080078125
-15.56396484375
-2.74658203125
-13.73291015625
-17.39501953125
-20.1416015625
-8.23974609375
-11.90185546875
-10.07080078125
-7.32421875
2.74658203125
13.73291015625
-5.4931640625
-19.22607421875
-13.73291015625
-23.8037109375
-21.97265625
-16.4794921875
-16.4794921875
6.40869140625
19.22607421875
3.662109375
4.57763671875
27.4658203125
20.1416015625
-0.91552734375
3.662109375
4.57763671875
11.90185546875
30.21240234375
40.283203125
65.00244140625
56.7626953125
62.255859375
49.4384765625
56.7626953125
64.0869140625
75.0732421875
80.56640625
103.45458984375
128.173828125
123.59619140625
121.76513671875
109.86328125
118.10302734375
113.525390625
96.13037109375
117.1875
130.0048828125
128.173828125
142.822265625
120.849609375
143.73779296875
165.71044921875
164.794921875
152.89306640625
177.6123046875
186.767578125
184.9365234375
192.2607421875
196.83837890625
195.00732421875
164.794921875
175.78125
184.9365234375
176.69677734375
187.68310546875
199.5849609375
231.62841796875
230.712890625
203.2470703125
180.35888671875
151.9775390625
168.45703125
167.54150390625
183.10546875
172.119140625
99.79248046875
94.29931640625
107.11669921875
76.904296875
51.26953125
58.59375
27.4658203125
21.05712890625
37.53662109375
34.7900390625
29.296875
44.86083984375
45.7763671875
30.21240234375
-2.74658203125
-32.04345703125
-30.21240234375
-30.21240234375
-23.8037109375
-48.52294921875
-59.50927734375
-67.7490234375
-73.2421875
-35.70556640625
-26.55029296875
-69.580078125
-99.79248046875
-102.5390625
-75.98876953125
-55.84716796875
-53.1005859375
-71.4111328125
-83.31298828125
-90.63720703125
-83.31298828125
-86.0595703125
-81.48193359375
-93.3837890625
-97.96142578125
-77.81982421875
-92.46826171875
-101.62353515625
-74.15771484375
-77.81982421875
-79.65087890625
-77.81982421875
-64.0869140625
-61.34033203125
-84.228515625
-79.65087890625
-69.580078125
-82.3974609375
-71.4111328125
-83.31298828125
-108.0322265625
-97.0458984375
-104.3701171875
-96.13037109375
-75.0732421875
-90.63720703125
-106.201171875
-85.14404296875
-80.56640625
-98.876953125
-89.7216796875
-76.904296875
-106.201171875
-122.6806640625
-110.77880859375
-100.7080078125
-85.14404296875
-75.98876953125
-81.48193359375
-90.63720703125
-83.31298828125
-70.49560546875
-75.98876953125
-102.5390625
-106.201171875
-100.7080078125
-104.3701171875
-94.29931640625
-72.32666015625
-95.21484375
-109.86328125
-121.76513671875
-118.10302734375
-102.5390625
-113.525390625
-99.79248046875
-105.28564453125
-125.42724609375
-140.07568359375
-159.3017578125
-151.9775390625
-130.0048828125
-154.72412109375
-156.55517578125
-127.25830078125
-106.201171875
-104.3701171875
-106.201171875
-111.6943359375
-111.6943359375
-105.28564453125
-112.60986328125
-100.7080078125
-101.62353515625
-120.849609375
-121.76513671875
-122.6806640625
-121.76513671875
-128.173828125
-136.41357421875
-146.484375
-145.56884765625
-122.6806640625
-130.0048828125
-115.3564453125
-119.0185546875
-120.849609375
-124.51171875
-123.59619140625
-124.51171875
-139.16015625
-132.75146484375
-146.484375
-150.146484375
-146.484375
-136.41357421875
-135.498046875
-139.16015625
-147.39990234375
-161.1328125
-150.146484375
-144.6533203125
-135.498046875
-132.75146484375
-138.24462890625
-151.06201171875
-155.6396484375
-163.87939453125
-174.86572265625
-180.35888671875
-172.119140625
-168.45703125
-156.55517578125
-165.71044921875
-158.38623046875
-142.822265625
-140.07568359375
-147.39990234375
-154.72412109375
-148.3154296875
-145.56884765625
-146.484375
-152.89306640625
-154.72412109375
-175.78125
-186.767578125
-167.54150390625
-174.86572265625
-163.87939453125
-158.38623046875
-142.822265625
-138.24462890625
-140.07568359375
-150.146484375
-155.6396484375
-148.3154296875
-152.89306640625
-150.146484375
-152.89306640625
-154.72412109375
-158.38623046875
-162.04833984375
-169.37255859375
-162.9638671875
-152.89306640625
-151.9775390625
-166.6259765625
-169.37255859375
-165.71044921875
-154.72412109375
-151.9775390625
-143.73779296875
-146.484375
-124.51171875
-120.849609375
-126.3427734375
-147.39990234375
-147.39990234375
-145.56884765625
-151.9775390625
-156.55517578125
-141.90673828125
-152.89306640625
-156.55517578125
-121.76513671875
-100.7080078125
-97.0458984375
-95.21484375
-59.50927734375
-59.50927734375
-75.98876953125
-63.17138671875
-78.7353515625
-90.63720703125
-97.0458984375
-109.86328125
-110.77880859375
-101.62353515625
-99.79248046875
-93.3837890625
-84.228515625
-71.4111328125
-64.0869140625
-63.17138671875
-54.01611328125
-54.01611328125
-67.7490234375
-67.7490234375
-80.56640625
-83.31298828125
-70.49560546875
-46.69189453125
-39.36767578125
-54.931640625
-57.67822265625
-44.86083984375
-49.4384765625
-62.255859375
-89.7216796875
-104.3701171875
-92.46826171875
-101.62353515625
-95.21484375
-108.0322265625
-115.3564453125
-112.60986328125
-101.62353515625
-110.77880859375
-119.0185546875
-106.201171875
-114.44091796875
-104.3701171875
-98.876953125
-97.96142578125
-97.96142578125
-108.0322265625
-108.0322265625
-103.45458984375
-108.94775390625
-113.525390625
-113.525390625
-102.5390625
-112.60986328125
-99.79248046875
-82.3974609375
-103.45458984375
-90.63720703125
-94.29931640625
-103.45458984375
-75.98876953125
-43.02978515625
-34.7900390625
19.22607421875
107.11669921875
177.6123046875
256.34765625
378.11279296875
487.97607421875
570.37353515625
649.10888671875
694.88525390625
698.54736328125
581.35986328125
327.7587890625
137.3291015625
-20.1416015625
-86.97509765625
-98.876953125
-110.77880859375
-124.51171875
-155.6396484375
-177.6123046875
-221.5576171875
-237.12158203125
-242.61474609375
-253.60107421875
-260.009765625
-249.93896484375
-221.5576171875
-197.75390625
-181.2744140625
-159.3017578125
-130.92041015625
-100.7080078125
-98.876953125
-97.0458984375
-73.2421875
-59.50927734375
-71.4111328125
-64.0869140625
-58.59375
-60.4248046875
-70.49560546875
-69.580078125
-75.98876953125
-75.0732421875
-75.98876953125
-77.81982421875
-76.904296875
-88.80615234375
-104.3701171875
-100.7080078125
-106.201171875
-106.201171875
-76.904296875
-59.50927734375
-57.67822265625
-55.84716796875
-49.4384765625
-54.931640625
-44.86083984375
-36.62109375
-42.1142578125
-49.4384765625
-52.18505859375
-49.4384765625
-48.52294921875
-52.18505859375
-49.4384765625
-50.35400390625
-48.52294921875
-47.607421875
-55.84716796875
-58.59375
-61.34033203125
-60.4248046875
-55.84716796875
-61.34033203125
-61.34033203125
-60.4248046875
-61.34033203125
-54.931640625
-58.59375
-56.7626953125
-52.18505859375
-58.59375
-55.84716796875
-54.931640625
-56.7626953125
-54.931640625
-54.931640625
-58.59375
-60.4248046875
-58.59375
-58.59375
-56.7626953125
-44.86083984375
-45.7763671875
-42.1142578125
-36.62109375
-30.21240234375
-29.296875
-26.55029296875
-21.97265625
-19.22607421875
-14.6484375
-16.4794921875
-16.4794921875
-22.88818359375
-12.8173828125
-19.22607421875
-33.87451171875
-21.97265625
0.91552734375
3.662109375
10.07080078125
6.40869140625
14.6484375
22.88818359375
29.296875
30.21240234375
28.38134765625
29.296875
28.38134765625
39.36767578125
31.1279296875
44.86083984375
56.7626953125
64.0869140625
60.4248046875
60.4248046875
66.83349609375
80.56640625
85.14404296875
79.65087890625
85.14404296875
85.14404296875
92.46826171875
99.79248046875
113.525390625
132.75146484375
137.3291015625
142.822265625
145.56884765625
150.146484375
156.55517578125
164.794921875
156.55517578125
160.21728515625
158.38623046875
164.794921875
171.20361328125
178.52783203125
181.2744140625
189.51416015625
184.9365234375
193.17626953125
195.9228515625
188.5986328125
204.16259765625
205.078125
200.50048828125
194.091796875
180.35888671875
175.78125
177.6123046875
165.71044921875
160.21728515625
158.38623046875
140.07568359375
140.07568359375
142.822265625
129.08935546875
120.849609375
105.28564453125
80.56640625
70.49560546875
54.01611328125
40.283203125
24.71923828125
23.8037109375
14.6484375
11.90185546875
0.91552734375
-4.57763671875
-4.57763671875
-2.74658203125
-5.4931640625
-11.90185546875
-15.56396484375
-23.8037109375
-26.55029296875
-32.958984375
-46.69189453125
-56.7626953125
-63.17138671875
-63.17138671875
-65.00244140625
-62.255859375
-59.50927734375
-62.255859375
-50.35400390625
-49.4384765625
-62.255859375
-66.83349609375
-58.59375
-57.67822265625
-54.931640625
-47.607421875
-79.65087890625
-73.2421875
-65.00244140625
-73.2421875
-82.3974609375
-83.31298828125
-80.56640625
-77.81982421875
-75.98876953125
-79.65087890625
-77.81982421875
-79.65087890625
-69.580078125
-56.7626953125
-47.607421875
-35.70556640625
-40.283203125
-46.69189453125
-39.36767578125
-39.36767578125
-44.86083984375
-55.84716796875
-62.255859375
-64.0869140625
-61.34033203125
-59.50927734375
-59.50927734375
-54.01611328125
-56.7626953125
-64.0869140625
-54.931640625
-54.931640625
-54.931640625
-57.67822265625
-61.34033203125
-72.32666015625
-59.50927734375
-63.17138671875
-68.66455078125
-71.4111328125
-71.4111328125
-75.0732421875
-70.49560546875
-75.0732421875
-77.81982421875
-79.65087890625
-81.48193359375
-73.2421875
-63.17138671875
-60.4248046875
-62.255859375
-67.7490234375
-75.0732421875
-73.2421875
-76.904296875
-67.7490234375
-63.17138671875
-70.49560546875
-73.2421875
-77.81982421875
-91.552734375
-97.96142578125
-87.890625
-82.3974609375
-78.7353515625
-65.91796875
-65.91796875
-80.56640625
-82.3974609375
-91.552734375
-78.7353515625
-83.31298828125
-86.0595703125
-82.3974609375
-83.31298828125
-90.63720703125
-93.3837890625
-89.7216796875
-88.80615234375
-90.63720703125
-74.15771484375
-68.66455078125
-67.7490234375
-70.49560546875
-90.63720703125
-89.7216796875
-86.0595703125
-92.46826171875
-88.80615234375
-96.13037109375
-89.7216796875
-82.3974609375
-85.14404296875
-89.7216796875
-91.552734375
-89.7216796875
-86.97509765625
-86.97509765625
-91.552734375
-83.31298828125
-84.228515625
-93.3837890625
-107.11669921875
-117.1875
-113.525390625
-114.44091796875
-110.77880859375
-113.525390625
-104.3701171875
-100.7080078125
-105.28564453125
-101.62353515625
-97.0458984375
-88.80615234375
-89.7216796875
-92.46826171875
-93.3837890625
-81.48193359375
-78.7353515625
-84.228515625
-81.48193359375
-89.7216796875
-82.3974609375
-73.2421875
-75.0732421875
-75.98876953125
-94.29931640625
-88.80615234375
-92.46826171875
-87.890625
-103.45458984375
-105.28564453125
-98.876953125
-97.0458984375
-95.21484375
-88.80615234375
-93.3837890625
-94.29931640625
-90.63720703125
-96.13037109375
-86.97509765625
-79.65087890625
-90.63720703125
-97.0458984375
-95.21484375
-86.97509765625
-81.48193359375
-80.56640625
-76.904296875
-75.0732421875
-73.2421875
-85.14404296875
-73.2421875
-59.50927734375
-46.69189453125
-48.52294921875
-50.35400390625
-42.1142578125
-40.283203125
-37.53662109375
-39.36767578125
-37.53662109375
-34.7900390625
-43.9453125
-50.35400390625
-63.17138671875
-81.48193359375
-78.7353515625
-75.98876953125
-71.4111328125
-74.15771484375
-72.32666015625
-77.81982421875
-69.580078125
-64.0869140625
-74.15771484375
-93.3837890625
-102.5390625
-98.876953125
-103.45458984375
-110.77880859375
-118.10302734375
-118.10302734375
-120.849609375
-106.201171875
-106.201171875
-112.60986328125
-100.7080078125
-106.201171875
-108.94775390625
-101.62353515625
-99.79248046875
-97.0458984375
-103.45458984375
-108.94775390625
-109.86328125
-109.86328125
-117.1875
-119.93408203125
-111.6943359375
-118.10302734375
-108.94775390625
-110.77880859375
-124.51171875
-116.27197265625
-121.76513671875
-110.77880859375
-84.228515625
-81.48193359375
-38.4521484375
19.22607421875
101.62353515625
180.35888671875
270.08056640625
385.43701171875
487.97607421875
563.04931640625
617.98095703125
652.77099609375
586.85302734375
352.47802734375
131.8359375
-27.4658203125
-117.1875
-164.794921875
-168.45703125
-170.2880859375
-183.10546875
-197.75390625
-212.40234375
-229.79736328125
-246.27685546875
-256.34765625
-261.8408203125
-267.333984375
-258.1787109375
-238.95263671875
-211.48681640625
-189.51416015625
-174.86572265625
-156.55517578125
-155.6396484375
-142.822265625
-119.0185546875
-110.77880859375
-104.3701171875
-114.44091796875
-102.5390625
-94.29931640625
-94.29931640625
-76.904296875
-83.31298828125
-92.46826171875
-89.7216796875
-90.63720703125
-88.80615234375
-91.552734375
-84.228515625
-87.890625
-103.45458984375
-98.876953125
-99.79248046875
-90.63720703125
-87.890625
-92.46826171875
-91.552734375
-72.32666015625
-74.15771484375
-78.7353515625
-78.7353515625
-81.48193359375
-85.14404296875
-86.97509765625
-86.97509765625
-87.890625
-92.46826171875
-90.63720703125
-81.48193359375
-79.65087890625
-87.890625
-87.890625
-82.3974609375
-75.98876953125
-74.15771484375
-82.3974609375
-74.15771484375
-71.4111328125
-69.580078125
-68.66455078125
-68.66455078125
-72.32666015625
-64.0869140625
-57.67822265625
-50.35400390625
-60.4248046875
-66.83349609375
-57.67822265625
-57.67822265625
-60.4248046875
-55.84716796875
-48.52294921875
-58.59375
-68.66455078125
-62.255859375
-50.35400390625
-60.4248046875
-58.59375
-75.98876953125
-73.2421875
-72.32666015625
-65.00244140625
-44.86083984375
-38.4521484375
-34.7900390625
-21.97265625
-28.38134765625
-19.22607421875
-21.05712890625
-21.97265625
-22.88818359375
-32.958984375
-29.296875
-32.958984375
-32.958984375
-33.87451171875
-23.8037109375
-16.4794921875
-4.57763671875
-5.4931640625
9.1552734375
24.71923828125
13.73291015625
10.986328125
22.88818359375
19.22607421875
21.97265625
23.8037109375
35.70556640625
25.634765625
29.296875
19.22607421875
25.634765625
41.19873046875
46.69189453125
40.283203125
56.7626953125
58.59375
76.904296875
85.14404296875
87.890625
90.63720703125
97.0458984375
99.79248046875
101.62353515625
106.201171875
108.0322265625
112.60986328125
116.27197265625
113.525390625
124.51171875
128.173828125
124.51171875
127.25830078125
135.498046875
132.75146484375
128.173828125
111.6943359375
118.10302734375
117.1875
99.79248046875
97.96142578125
92.46826171875
86.97509765625
79.65087890625
79.65087890625
81.48193359375
79.65087890625
83.31298828125
67.7490234375
53.1005859375
44.86083984375
39.36767578125
20.1416015625
7.32421875
0.91552734375
-22.88818359375
-25.634765625
-37.53662109375
-53.1005859375
-49.4384765625
-65.91796875
-74.15771484375
-74.15771484375
-75.98876953125
-89.7216796875
-97.96142578125
-92.46826171875
-94.29931640625
-96.13037109375
-94.29931640625
-101.62353515625
-121.76513671875
-123.59619140625
-121.76513671875
-142.822265625
-136.41357421875
-114.44091796875
-124.51171875
-123.59619140625
-122.6806640625
-122.6806640625
-131.8359375
-120.849609375
-125.42724609375
-131.8359375
-130.92041015625
-135.498046875
-141.90673828125
-126.3427734375
-109.86328125
-107.11669921875
-120.849609375
-103.45458984375
-107.11669921875
-106.201171875
-106.201171875
-103.45458984375
-108.94775390625
-114.44091796875
-103.45458984375
-126.3427734375
-130.0048828125
-104.3701171875
-101.62353515625
-115.3564453125
-108.94775390625
-101.62353515625
-109.86328125
-97.96142578125
-102.5390625
-110.77880859375
-108.0322265625
-102.5390625
-103.45458984375
-112.60986328125
-117.1875
-106.201171875
-109.86328125
-122.6806640625
-123.59619140625
-119.0185546875
-115.3564453125
-117.1875
-119.0185546875
-127.25830078125
-136.41357421875
-125.42724609375
-122.6806640625
-121.76513671875
-114.44091796875
-123.59619140625
-119.93408203125
-114.44091796875
-95.21484375
-111.6943359375
-116.27197265625
-115.3564453125
-122.6806640625
-115.3564453125
-127.25830078125
-133.6669921875
-136.41357421875
-143.73779296875
-134.58251953125
-135.498046875
-131.8359375
-124.51171875
-133.6669921875
-122.6806640625
-135.498046875
-137.3291015625
-138.24462890625
-129.08935546875
-135.498046875
-130.0048828125
-142.822265625
-153.80859375
-140.9912109375
-143.73779296875
-153.80859375
-152.89306640625
-159.3017578125
-154.72412109375
-138.24462890625
-149.23095703125
-142.822265625
-148.3154296875
-149.23095703125
-148.3154296875
-141.90673828125
-143.73779296875
-155.6396484375
-156.55517578125
-151.06201171875
-148.3154296875
-141.90673828125
-148.3154296875
-154.72412109375
-160.21728515625
-157.470703125
-154.72412109375
-161.1328125
-159.3017578125
-173.9501953125
-173.03466796875
-178.52783203125
-171.20361328125
-173.03466796875
-168.45703125
-152.89306640625
-149.23095703125
-154.72412109375
-142.822265625
-137.3291015625
-147.39990234375
-172.119140625
-171.20361328125
-151.9775390625
-147.39990234375
-142.822265625
-154.72412109375
-133.6669921875
-115.3564453125
-119.93408203125
-126.3427734375
-122.6806640625
-129.08935546875
-137.3291015625
-144.6533203125
-135.498046875
-141.90673828125
-150.146484375
-140.9912109375
-125.42724609375
-117.1875
-116.27197265625
-110.77880859375
-119.0185546875
-134.58251953125
-143.73779296875
-134.58251953125
-157.470703125
-153.80859375
-138.24462890625
-129.08935546875
-135.498046875
-124.51171875
-127.25830078125
-133.6669921875
-135.498046875
-146.484375
-156.55517578125
-147.39990234375
-151.9775390625
-164.794921875
-173.03466796875
-173.9501953125
-171.20361328125
-177.6123046875
-173.9501953125
-178.52783203125
-184.02099609375
-185.85205078125
-174.86572265625
-180.35888671875
-162.04833984375
-158.38623046875
-151.06201171875
-156.55517578125
-159.3017578125
-160.21728515625
-157.470703125
-155.6396484375
-148.3154296875
-143.73779296875
-156.55517578125
-158.38623046875
-152.89306640625
-159.3017578125
-157.470703125
-180.35888671875
-186.767578125
-181.2744140625
-191.34521484375
-182.18994140625
-153.80859375
-125.42724609375
-78.7353515625
-7.32421875
69.580078125
132.75146484375
237.12158203125
321.35009765625
424.8046875
511.77978515625
552.06298828125
572.20458984375
531.92138671875
302.1240234375
67.7490234375
-61.34033203125
-151.06201171875
-180.35888671875
-173.9501953125
-171.20361328125
-176.69677734375
-178.52783203125
-194.091796875
-224.30419921875
-238.037109375
-263.671875
-280.1513671875
-310.36376953125
-301.20849609375
-295.71533203125
-285.64453125
-258.1787109375
-235.29052734375
-225.2197265625
-194.091796875
-193.17626953125
-178.52783203125
-164.794921875
-154.72412109375
-142.822265625
-139.16015625
-146.484375
-144.6533203125
-134.58251953125
-140.07568359375
-143.73779296875
-141.90673828125
-148.3154296875
-146.484375
-148.3154296875
-153.80859375
-146.484375
-138.24462890625
-141.90673828125
-142.822265625
-140.07568359375
-139.16015625
-146.484375
-134.58251953125
-124.51171875
-124.51171875
-119.93408203125
-127.25830078125
-134.58251953125
-129.08935546875
-127.25830078125
-121.76513671875
-130.92041015625
-139.16015625
-140.9912109375
-128.173828125
-120.849609375
-125.42724609375
-122.6806640625
-119.0185546875
-128.173828125
-137.3291015625
-130.92041015625
-127.25830078125
-130.92041015625
-126.3427734375
-124.51171875
-109.86328125
-104.3701171875
-109.86328125
-117.1875
-105.28564453125
-108.0322265625
-96.13037109375
-85.14404296875
-86.97509765625
-91.552734375
-92.46826171875
-95.21484375
-94.29931640625
-92.46826171875
-96.13037109375
-97.96142578125
-102.5390625
-93.3837890625
-92.46826171875
-95.21484375
-92.46826171875
-91.552734375
-86.97509765625
-77.81982421875
-65.00244140625
-65.00244140625
-64.0869140625
-61.34033203125
-52.18505859375
-48.52294921875
-49.4384765625
-51.26953125
-54.01611328125
-53.1005859375
-44.86083984375
-45.7763671875
-43.02978515625
-34.7900390625
-42.1142578125
-46.69189453125
-35.70556640625
-24.71923828125
-21.97265625
-15.56396484375
-4.57763671875
1.8310546875
-0.91552734375
0.91552734375
4.57763671875
10.986328125
16.4794921875
21.97265625
23.8037109375
32.04345703125
34.7900390625
39.36767578125
46.69189453125
51.26953125
46.69189453125
37.53662109375
42.1142578125
54.01611328125
61.34033203125
71.4111328125
75.0732421875
77.81982421875
77.81982421875
92.46826171875
91.552734375
92.46826171875
97.0458984375
105.28564453125
104.3701171875
114.44091796875
113.525390625
102.5390625
114.44091796875
110.77880859375
100.7080078125
100.7080078125
102.5390625
89.7216796875
79.65087890625
77.81982421875
69.580078125
65.00244140625
53.1005859375
46.69189453125
37.53662109375
29.296875
18.310546875
8.23974609375
2.74658203125
-15.56396484375
-21.97265625
-33.87451171875
-38.4521484375
-39.36767578125
-59.50927734375
-61.34033203125
-66.83349609375
-70.49560546875
-70.49560546875
-84.228515625
-91.552734375
-97.0458984375
-83.31298828125
-82.3974609375
-88.80615234375
-90.63720703125
-91.552734375
-93.3837890625
-98.876953125
-106.201171875
-111.6943359375
-108.0322265625
-108.0322265625
-102.5390625
-103.45458984375
-100.7080078125
-101.62353515625
-100.7080078125
-104.3701171875
-111.6943359375
-108.94775390625
-111.6943359375
-106.201171875
-109.86328125
-97.0458984375
-104.3701171875
-102.5390625
-103.45458984375
-101.62353515625
-106.201171875
-102.5390625
-98.876953125
-102.5390625
-97.0458984375
-97.0458984375
-105.28564453125
-110.77880859375
-121.76513671875
-117.1875
-112.60986328125
-107.11669921875
-105.28564453125
-103.45458984375
-98.876953125
-93.3837890625
-96.13037109375
-93.3837890625
-92.46826171875
-96.13037109375
-89.7216796875
-84.228515625
-87.890625
-94.29931640625
-91.552734375
-89.7216796875
-96.13037109375
-88.80615234375
-89.7216796875
-95.21484375
-99.79248046875
-97.0458984375
-98.876953125
-96.13037109375
-92.46826171875
-83.31298828125
-89.7216796875
-97.96142578125
-103.45458984375
-101.62353515625
-98.876953125
-109.86328125
-111.6943359375
-108.94775390625
-102.5390625
-99.79248046875
-100.7080078125
-104.3701171875
-101.62353515625
-98.876953125
-95.21484375
-92.46826171875
-92.46826171875
-94.29931640625
-95.21484375
-97.0458984375
-102.5390625
-98.876953125
-101.62353515625
-112.60986328125
-112.60986328125
-111.6943359375
-104.3701171875
-102.5390625
-107.11669921875
-108.94775390625
-111.6943359375
-111.6943359375
-115.3564453125
-119.93408203125
-123.59619140625
-114.44091796875
-111.6943359375
-110.77880859375
-108.0322265625
-103.45458984375
-107.11669921875
-110.77880859375
-116.27197265625
-113.525390625
-116.27197265625
-116.27197265625
-115.3564453125
-113.525390625
-108.94775390625
-112.60986328125
-106.201171875
-97.0458984375
-93.3837890625
-92.46826171875
-85.14404296875
-80.56640625
-78.7353515625
-79.65087890625
-70.49560546875
-64.0869140625
-70.49560546875
-63.17138671875
-48.52294921875
-40.283203125
-26.55029296875
-30.21240234375
-54.931640625
-54.01611328125
-55.84716796875
-59.50927734375
-58.59375
-47.607421875
-46.69189453125
-35.70556640625
-26.55029296875
-32.958984375
-34.7900390625
-35.70556640625
-36.62109375
-45.7763671875
-61.34033203125
-57.67822265625
-45.7763671875
-38.4521484375
-29.296875
-32.04345703125
-28.38134765625
-22.88818359375
-22.88818359375
-31.1279296875
-32.958984375
-38.4521484375
-46.69189453125
-53.1005859375
-53.1005859375
-57.67822265625
-65.91796875
-70.49560546875
-75.0732421875
-73.2421875
-73.2421875
-70.49560546875
-75.0732421875
-75.0732421875
-71.4111328125
-65.00244140625
-65.91796875
-67.7490234375
-62.255859375
-56.7626953125
-65.00244140625
-65.00244140625
-75.0732421875
-78.7353515625
-72.32666015625
-61.34033203125
-61.34033203125
-70.49560546875
-70.49560546875
-69.580078125
-70.49560546875
-74.15771484375
-77.81982421875
-53.1005859375
-26.55029296875
5.4931640625
68.66455078125
141.90673828125
208.740234375
288.39111328125
390.93017578125
498.046875
574.951171875
626.220703125
646.3623046875
620.7275390625
420.22705078125
187.68310546875
41.19873046875
-57.67822265625
-106.201171875
-113.525390625
-108.0322265625
-112.60986328125
-123.59619140625
-143.73779296875
-162.04833984375
-163.87939453125
-169.37255859375
-191.34521484375
-203.2470703125
-197.75390625
-187.68310546875
-169.37255859375
-142.822265625
-129.08935546875
-113.525390625
-105.28564453125
-88.80615234375
-75.0732421875
-67.7490234375
-53.1005859375
-46.69189453125
-44.86083984375
-37.53662109375
-35.70556640625
-39.36767578125
-39.36767578125
-39.36767578125
-39.36767578125
-36.62109375
-45.7763671875
-56.7626953125
-54.931640625
-39.36767578125
-32.958984375
-33.87451171875
-42.1142578125
-39.36767578125
-41.19873046875
-34.7900390625
-31.1279296875
-30.21240234375
-31.1279296875
-23.8037109375
-23.8037109375
-31.1279296875
-29.296875
-30.21240234375
-38.4521484375
-32.04345703125
-39.36767578125
-36.62109375
-32.958984375
-32.04345703125
-27.4658203125
-26.55029296875
-26.55029296875
-22.88818359375
-25.634765625
-19.22607421875
-18.310546875
-25.634765625
-28.38134765625
-29.296875
-20.1416015625
-11.90185546875
-11.90185546875
-7.32421875
-3.662109375
0
1.8310546875
3.662109375
4.57763671875
6.40869140625
3.662109375
1.8310546875
3.662109375
3.662109375
5.4931640625
6.40869140625
10.986328125
5.4931640625
5.4931640625
8.23974609375
14.6484375
25.634765625
26.55029296875
22.88818359375
24.71923828125
32.04345703125
43.02978515625
43.02978515625
41.19873046875
43.02978515625
42.1142578125
47.607421875
57.67822265625
57.67822265625
56.7626953125
62.255859375
68.66455078125
72.32666015625
65.91796875
66.83349609375
73.2421875
69.580078125
69.580078125
75.98876953125
78.7353515625
86.97509765625
97.96142578125
103.45458984375
108.94775390625
115.3564453125
120.849609375
121.76513671875
121.76513671875
124.51171875
126.3427734375
124.51171875
127.25830078125
131.8359375
142.822265625
156.55517578125
167.54150390625
171.20361328125
176.69677734375
185.85205078125
184.9365234375
194.091796875
197.75390625
203.2470703125
205.99365234375
205.99365234375
203.2470703125
205.99365234375
206.9091796875
208.740234375
209.65576171875
214.2333984375
208.740234375
207.82470703125
207.82470703125
205.078125
190.4296875
189.51416015625
176.69677734375
164.794921875
154.72412109375
150.146484375
144.6533203125
135.498046875
125.42724609375
122.6806640625
110.77880859375
97.0458984375
86.97509765625
70.49560546875
65.91796875
65.91796875
62.255859375
56.7626953125
52.18505859375
37.53662109375
27.4658203125
21.05712890625
2.74658203125
-4.57763671875
-7.32421875
-12.8173828125
-19.22607421875
-21.05712890625
-23.8037109375
-21.97265625
-28.38134765625
-35.70556640625
-32.958984375
-27.4658203125
-26.55029296875
-40.283203125
-34.7900390625
-32.04345703125
-37.53662109375
-41.19873046875
-33.87451171875
-28.38134765625
-30.21240234375
-28.38134765625
-27.4658203125
-25.634765625
-32.958984375
-35.70556640625
-33.87451171875
-40.283203125
-43.9453125
-47.607421875
-39.36767578125
-29.296875
-23.8037109375
-28.38134765625
-25.634765625
-18.310546875
-15.56396484375
-11.90185546875
-6.40869140625
-18.310546875
-19.22607421875
-11.90185546875
-17.39501953125
-15.56396484375
-14.6484375
-23.8037109375
-14.6484375
-9.1552734375
-2.74658203125
5.4931640625
2.74658203125
-19.22607421875
-25.634765625
-23.8037109375
-25.634765625
-26.55029296875
-25.634765625
-26.55029296875
-26.55029296875
-25.634765625
-22.88818359375
-22.88818359375
-31.1279296875
-35.70556640625
-38.4521484375
-44.86083984375
-33.87451171875
-23.8037109375
-14.6484375
-8.23974609375
-13.73291015625
-29.296875
-28.38134765625
-25.634765625
-23.8037109375
-21.97265625
-20.1416015625
-29.296875
-37.53662109375
-34.7900390625
-29.296875
-31.1279296875
-26.55029296875
-21.05712890625
-17.39501953125
-29.296875
-39.36767578125
-22.88818359375
-32.04345703125
-37.53662109375
-34.7900390625
-43.9453125
-44.86083984375
-48.52294921875
-51.26953125
-30.21240234375
-28.38134765625
-37.53662109375
-38.4521484375
-39.36767578125
-39.36767578125
-41.19873046875
-43.9453125
-49.4384765625
-40.283203125
-33.87451171875
-31.1279296875
-33.87451171875
-33.87451171875
-28.38134765625
-28.38134765625
-24.71923828125
-14.6484375
-19.22607421875
-25.634765625
-35.70556640625
-41.19873046875
-44.86083984375
-44.86083984375
-49.4384765625
-46.69189453125
-46.69189453125
-43.9453125
-39.36767578125
-25.634765625
-22.88818359375
-15.56396484375
-3.662109375
6.40869140625
10.986328125
22.88818359375
27.4658203125
20.1416015625
10.986328125
3.662109375
5.4931640625
0.91552734375
-10.986328125
-12.8173828125
-10.986328125
-10.986328125
-4.57763671875
1.8310546875
-1.8310546875
-6.40869140625
0
6.40869140625
7.32421875
0
-13.73291015625
-22.88818359375
-29.296875
-25.634765625
-24.71923828125
-24.71923828125
-19.22607421875
-25.634765625
-8.23974609375
-2.74658203125
-0.91552734375
-7.32421875
-22.88818359375
-29.296875
-40.283203125
-55.84716796875
-62.255859375
-59.50927734375
-53.1005859375
-67.7490234375
-72.32666015625
-65.00244140625
-50.35400390625
-43.02978515625
-28.38134765625
-34.7900390625
-46.69189453125
-43.02978515625
-35.70556640625
-28.38134765625
-29.296875
-32.958984375
-21.97265625
-21.97265625
-25.634765625
-19.22607421875
-19.22607421875
-25.634765625
-29.296875
-31.1279296875
-43.9453125
-37.53662109375
-26.55029296875
-10.07080078125
11.90185546875
51.26953125
115.3564453125
203.2470703125
274.658203125
365.29541015625
471.49658203125
571.2890625
643.61572265625
692.138671875
726.01318359375
659.1796875
431.21337890625
209.65576171875
43.9453125
-46.69189453125
-78.7353515625
-95.21484375
-110.77880859375
-147.39990234375
-175.78125
-191.34521484375
-209.65576171875
-217.8955078125
-216.97998046875
-209.65576171875
-184.02099609375
-163.87939453125
-136.41357421875
-106.201171875
-90.63720703125
-67.7490234375
-54.931640625
-41.19873046875
-33.87451171875
-32.04345703125
-30.21240234375
-30.21240234375
-23.8037109375
-18.310546875
-18.310546875
-18.310546875
-7.32421875
-0.91552734375
3.662109375
16.4794921875
22.88818359375
20.1416015625
27.4658203125
29.296875
19.22607421875
4.57763671875
-15.56396484375
-26.55029296875
-4.57763671875
-6.40869140625
-10.986328125
-20.1416015625
-9.1552734375
10.07080078125
7.32421875
13.73291015625
14.6484375
10.07080078125
10.07080078125
21.97265625
15.56396484375
15.56396484375
12.8173828125
13.73291015625
11.90185546875
17.39501953125
20.1416015625
23.8037109375
28.38134765625
19.22607421875
18.310546875
19.22607421875
7.32421875
7.32421875
6.40869140625
4.57763671875
10.986328125
11.90185546875
17.39501953125
25.634765625
36.62109375
34.7900390625
32.958984375
29.296875
35.70556640625
24.71923828125
20.1416015625
22.88818359375
32.04345703125
31.1279296875
36.62109375
42.1142578125
39.36767578125
61.34033203125
56.7626953125
50.35400390625
54.931640625
52.18505859375
54.931640625
60.4248046875
61.34033203125
65.91796875
77.81982421875
75.0732421875
79.65087890625
77.81982421875
82.3974609375
86.0595703125
90.63720703125
90.63720703125
87.890625
90.63720703125
107.11669921875
110.77880859375
117.1875
114.44091796875
118.10302734375
123.59619140625
129.08935546875
130.0048828125
135.498046875
135.498046875
138.24462890625
151.06201171875
164.794921875
168.45703125
172.119140625
177.6123046875
174.86572265625
184.9365234375
192.2607421875
193.17626953125
200.50048828125
202.33154296875
214.2333984375
218.81103515625
224.30419921875
229.79736328125
231.62841796875
238.037109375
249.93896484375
251.77001953125
254.5166015625
255.43212890625
250.8544921875
258.1787109375
261.8408203125
261.8408203125
272.8271484375
264.58740234375
252.685546875
244.44580078125
255.43212890625
253.60107421875
241.69921875
236.2060546875
221.5576171875
219.7265625
210.5712890625
208.740234375
206.9091796875
192.2607421875
185.85205078125
169.37255859375
147.39990234375
139.16015625
139.16015625
129.08935546875
121.76513671875
102.5390625
89.7216796875
88.80615234375
75.0732421875
74.15771484375
72.32666015625
68.66455078125
78.7353515625
62.255859375
58.59375
57.67822265625
59.50927734375
51.26953125
49.4384765625
50.35400390625
47.607421875
45.7763671875
44.86083984375
29.296875
37.53662109375
40.283203125
40.283203125
37.53662109375
29.296875
25.634765625
18.310546875
19.22607421875
18.310546875
11.90185546875
11.90185546875
3.662109375
-7.32421875
-3.662109375
3.662109375
-9.1552734375
-10.986328125
5.4931640625
6.40869140625
-7.32421875
-7.32421875
-11.90185546875
-10.07080078125
-8.23974609375
-10.07080078125
0.91552734375
9.1552734375
17.39501953125
10.07080078125
6.40869140625
8.23974609375
23.8037109375
30.21240234375
27.4658203125
21.05712890625
20.1416015625
11.90185546875
19.22607421875
28.38134765625
21.05712890625
20.1416015625
17.39501953125
30.21240234375
21.97265625
13.73291015625
11.90185546875
16.4794921875
22.88818359375
22.88818359375
23.8037109375
27.4658203125
24.71923828125
29.296875
34.7900390625
26.55029296875
17.39501953125
16.4794921875
10.986328125
5.4931640625
10.07080078125
-1.8310546875
3.662109375
10.07080078125
15.56396484375
16.4794921875
7.32421875
3.662109375
-0.91552734375
-0.91552734375
-3.662109375
-0.91552734375
-1.8310546875
-8.23974609375
1.8310546875
0
-7.32421875
10.07080078125
5.4931640625
-0.91552734375
0
-1.8310546875
-11.90185546875
-28.38134765625
-23.8037109375
-14.6484375
-25.634765625
-15.56396484375
-4.57763671875
3.662109375
6.40869140625
17.39501953125
11.90185546875
2.74658203125
-9.1552734375
-8.23974609375
-9.1552734375
-3.662109375
0
-3.662109375
-8.23974609375
4.57763671875
0
-5.4931640625
0
-11.90185546875
-11.90185546875
-22.88818359375
-21.97265625
-26.55029296875
-22.88818359375
-23.8037109375
-25.634765625
-22.88818359375
-12.8173828125
-10.986328125
-7.32421875
-10.07080078125
-18.310546875
-11.90185546875
-19.22607421875
-18.310546875
-14.6484375
-16.4794921875
-5.4931640625
6.40869140625
14.6484375
22.88818359375
29.296875
32.958984375
23.8037109375
10.986328125
4.57763671875
-5.4931640625
-14.6484375
-12.8173828125
-7.32421875
8.23974609375
20.1416015625
29.296875
46.69189453125
32.958984375
24.71923828125
30.21240234375
33.87451171875
29.296875
22.88818359375
16.4794921875
9.1552734375
9.1552734375
21.05712890625
19.22607421875
6.40869140625
22.88818359375
8.23974609375
-6.40869140625
-2.74658203125
6.40869140625
-0.91552734375
-8.23974609375
-15.56396484375
-15.56396484375
-21.05712890625
-29.296875
-32.958984375
-41.19873046875
-42.1142578125
-35.70556640625
-35.70556640625
-30.21240234375
-32.04345703125
-32.04345703125
-24.71923828125
-25.634765625
-16.4794921875
-6.40869140625
-23.8037109375
-12.8173828125
-16.4794921875
-15.56396484375
-13.73291015625
-20.1416015625
-15.56396484375
-21.97265625
-28.38134765625
-32.04345703125
-30.21240234375
-21.05712890625
-18.310546875
2.74658203125
29.296875
52.18505859375
93.3837890625
177.6123046875
248.10791015625
299.37744140625
395.5078125
508.11767578125
604.248046875
670.166015625
715.9423828125
725.09765625
568.54248046875
311.279296875
128.173828125
-10.07080078125
-76.904296875
-114.44091796875
-127.25830078125
-142.822265625
-162.04833984375
-181.2744140625
-194.091796875
-194.091796875
-189.51416015625
-195.9228515625
-193.17626953125
-181.2744140625
-158.38623046875
-124.51171875
-100.7080078125
-85.14404296875
-62.255859375
-47.607421875
-34.7900390625
-28.38134765625
-16.4794921875
-13.73291015625
-5.4931640625
-6.40869140625
-10.07080078125
-7.32421875
-0.91552734375
-0.91552734375
6.40869140625
10.986328125
13.73291015625
9.1552734375
8.23974609375
8.23974609375
7.32421875
13.73291015625
4.57763671875
6.40869140625
-2.74658203125
-5.4931640625
-5.4931640625
-2.74658203125
0.91552734375
0.91552734375
-6.40869140625
0.91552734375
9.1552734375
7.32421875
13.73291015625
18.310546875
14.6484375
13.73291015625
11.90185546875
10.07080078125
9.1552734375
11.90185546875
2.74658203125
7.32421875
-2.74658203125
0
7.32421875
-5.4931640625
-7.32421875
7.32421875
11.90185546875
16.4794921875
15.56396484375
20.1416015625
21.97265625
23.8037109375
21.97265625
12.8173828125
19.22607421875
14.6484375
8.23974609375
15.56396484375
20.1416015625
29.296875
33.87451171875
33.87451171875
40.283203125
41.19873046875
36.62109375
45.7763671875
42.1142578125
38.4521484375
38.4521484375
33.87451171875
37.53662109375
43.9453125
46.69189453125
45.7763671875
50.35400390625
59.50927734375
62.255859375
66.83349609375
71.4111328125
71.4111328125
74.15771484375
77.81982421875
79.65087890625
80.56640625
80.56640625
92.46826171875
97.96142578125
106.201171875
111.6943359375
103.45458984375
115.3564453125
125.42724609375
126.3427734375
130.92041015625
138.24462890625
144.6533203125
143.73779296875
140.9912109375
155.6396484375
157.470703125
162.9638671875
177.6123046875
175.78125
192.2607421875
197.75390625
195.9228515625
204.16259765625
208.740234375
210.5712890625
215.14892578125
216.064453125
224.30419921875
229.79736328125
242.61474609375
236.2060546875
227.96630859375
231.62841796875
243.5302734375
249.93896484375
246.27685546875
235.29052734375
237.12158203125
238.037109375
238.95263671875
236.2060546875
220.64208984375
217.8955078125
217.8955078125
213.31787109375
205.078125
200.50048828125
196.83837890625
176.69677734375
155.6396484375
146.484375
131.8359375
121.76513671875
111.6943359375
98.876953125
86.0595703125
83.31298828125
75.0732421875
72.32666015625
61.34033203125
53.1005859375
50.35400390625
38.4521484375
33.87451171875
24.71923828125
20.1416015625
17.39501953125
11.90185546875
-0.91552734375
-12.8173828125
-11.90185546875
-15.56396484375
-7.32421875
-4.57763671875
-20.1416015625
-32.958984375
-29.296875
-35.70556640625
-40.283203125
-52.18505859375
-44.86083984375
-40.283203125
-33.87451171875
-26.55029296875
-41.19873046875
-34.7900390625
-39.36767578125
-46.69189453125
-40.283203125
-38.4521484375
-34.7900390625
-39.36767578125
-34.7900390625
-32.958984375
-32.958984375
-37.53662109375
-35.70556640625
-36.62109375
-36.62109375
-33.87451171875
-38.4521484375
-32.958984375
-25.634765625
-21.97265625
-21.05712890625
-11.90185546875
-15.56396484375
-24.71923828125
-32.04345703125
-37.53662109375
-32.958984375
-28.38134765625
-23.8037109375
-29.296875
-19.22607421875
-27.4658203125
-23.8037109375
-32.958984375
-35.70556640625
-41.19873046875
-25.634765625
-13.73291015625
-9.1552734375
-4.57763671875
-15.56396484375
-20.1416015625
-21.05712890625
-21.05712890625
-40.283203125
-41.19873046875
-40.283203125
-25.634765625
-32.04345703125
-30.21240234375
-34.7900390625
-28.38134765625
-15.56396484375
-25.634765625
-31.1279296875
-21.97265625
-19.22607421875
-13.73291015625
-16.4794921875
-23.8037109375
-40.283203125
-38.4521484375
-37.53662109375
-39.36767578125
-38.4521484375
-49.4384765625
-41.19873046875
-32.04345703125
-39.36767578125
-31.1279296875
-44.86083984375
-39.36767578125
-54.01611328125
-65.00244140625
-63.17138671875
-65.00244140625
-63.17138671875
-54.01611328125
-54.01611328125
-53.1005859375
-39.36767578125
-29.296875
-29.296875
-22.88818359375
-21.05712890625
-32.958984375
-31.1279296875
-38.4521484375
-44.86083984375
-36.62109375
-38.4521484375
-35.70556640625
-38.4521484375
-45.7763671875
-43.9453125
-53.1005859375
-49.4384765625
-54.931640625
-49.4384765625
-43.9453125
-53.1005859375
-49.4384765625
-52.18505859375
-52.18505859375
-63.17138671875
-73.2421875
-71.4111328125
-62.255859375
-59.50927734375
-57.67822265625
-54.01611328125
-45.7763671875
-54.01611328125
-54.931640625
-56.7626953125
-46.69189453125
-59.50927734375
-63.17138671875
-65.91796875
-78.7353515625
-73.2421875
-85.14404296875
-77.81982421875
-62.255859375
-46.69189453125
-34.7900390625
-11.90185546875
-8.23974609375
-14.6484375
-14.6484375
-10.986328125
-9.1552734375
-17.39501953125
-19.22607421875
-33.87451171875
-28.38134765625
-11.90185546875
-9.1552734375
-10.07080078125
-31.1279296875
-21.97265625
-11.90185546875
-13.73291015625
-9.1552734375
-5.4931640625
-12.8173828125
-15.56396484375
-27.4658203125
-35.70556640625
-43.02978515625
-44.86083984375
-36.62109375
-40.283203125
-27.4658203125
-25.634765625
-26.55029296875
-26.55029296875
-18.310546875
-35.70556640625
-42.1142578125
-35.70556640625
-43.9453125
-45.7763671875
-48.52294921875
-50.35400390625
-65.91796875
-67.7490234375
-66.83349609375
-67.7490234375
-68.66455078125
-63.17138671875
-64.0869140625
-70.49560546875
-81.48193359375
-65.91796875
-64.0869140625
-69.580078125
-59.50927734375
-59.50927734375
-50.35400390625
-54.931640625
-65.91796875
-62.255859375
-68.66455078125
-78.7353515625
-71.4111328125
-50.35400390625
-56.7626953125
-54.01611328125
-32.958984375
-10.07080078125
5.4931640625
42.1142578125
103.45458984375
183.10546875
255.43212890625
337.82958984375
442.19970703125
542.90771484375
615.234375
651.85546875
665.58837890625
558.4716796875
296.630859375
113.525390625
-23.8037109375
-84.228515625
-114.44091796875
-113.525390625
-112.60986328125
-136.41357421875
-154.72412109375
-182.18994140625
-193.17626953125
-192.2607421875
-210.5712890625
-212.40234375
-205.078125
-191.34521484375
-190.4296875
-165.71044921875
-146.484375
-127.25830078125
-112.60986328125
-83.31298828125
-68.66455078125
-54.01611328125
-53.1005859375
-41.19873046875
-51.26953125
-45.7763671875
-40.283203125
-48.52294921875
-48.52294921875
-43.02978515625
-42.1142578125
-56.7626953125
-56.7626953125
-52.18505859375
-43.9453125
-35.70556640625
-25.634765625
-15.56396484375
-27.4658203125
-35.70556640625
-27.4658203125
-46.69189453125
-55.84716796875
-55.84716796875
-43.02978515625
-26.55029296875
-30.21240234375
-32.958984375
-29.296875
-24.71923828125
-16.4794921875
-9.1552734375
-18.310546875
-23.8037109375
-32.04345703125
-35.70556640625
-16.4794921875
-19.22607421875
-21.05712890625
-20.1416015625
-23.8037109375
-28.38134765625
-26.55029296875
-25.634765625
-25.634765625
-21.05712890625
-24.71923828125
-21.97265625
-18.310546875
-5.4931640625
-19.22607421875
-21.05712890625
-19.22607421875
-24.71923828125
-25.634765625
-14.6484375
0.91552734375
-3.662109375
-14.6484375
-11.90185546875
0.91552734375
-1.8310546875
4.57763671875
14.6484375
8.23974609375
6.40869140625
18.310546875
26.55029296875
19.22607421875
19.22607421875
17.39501953125
27.4658203125
21.97265625
31.1279296875
31.1279296875
38.4521484375
47.607421875
53.1005859375
46.69189453125
40.283203125
41.19873046875
33.87451171875
49.4384765625
62.255859375
66.83349609375
65.91796875
65.91796875
68.66455078125
66.83349609375
71.4111328125
79.65087890625
86.0595703125
91.552734375
87.890625
93.3837890625
100.7080078125
120.849609375
123.59619140625
119.93408203125
121.76513671875
132.75146484375
138.24462890625
142.822265625
152.89306640625
159.3017578125
161.1328125
170.2880859375
164.794921875
179.443359375
186.767578125
191.34521484375
195.00732421875
190.4296875
192.2607421875
202.33154296875
202.33154296875
211.48681640625
217.8955078125
222.47314453125
230.712890625
231.62841796875
226.13525390625
223.388671875
222.47314453125
207.82470703125
203.2470703125
198.66943359375
185.85205078125
170.2880859375
159.3017578125
165.71044921875
148.3154296875
140.07568359375
121.76513671875
113.525390625
108.94775390625
99.79248046875
85.14404296875
75.98876953125
71.4111328125
60.4248046875
42.1142578125
29.296875
30.21240234375
24.71923828125
16.4794921875
13.73291015625
2.74658203125
3.662109375
-3.662109375
-6.40869140625
-7.32421875
-8.23974609375
-15.56396484375
-27.4658203125
-32.04345703125
-39.36767578125
-48.52294921875
-64.0869140625
-55.84716796875
-50.35400390625
-63.17138671875
-58.59375
-47.607421875
-43.9453125
-52.18505859375
-50.35400390625
-55.84716796875
-54.01611328125
-44.86083984375
-54.931640625
-53.1005859375
-55.84716796875
-58.59375
-57.67822265625
-49.4384765625
-47.607421875
-46.69189453125
-50.35400390625
-54.931640625
-53.1005859375
-48.52294921875
-44.86083984375
-54.01611328125
-54.01611328125
-58.59375
-53.1005859375
-53.1005859375
-43.9453125
-43.02978515625
-42.1142578125
-28.38134765625
-32.04345703125
-38.4521484375
-33.87451171875
-31.1279296875
-24.71923828125
-29.296875
-34.7900390625
-28.38134765625
-25.634765625
-32.04345703125
-23.8037109375
-31.1279296875
-32.958984375
-22.88818359375
-24.71923828125
-35.70556640625
-43.02978515625
-45.7763671875
-42.1142578125
-32.958984375
-29.296875
-32.958984375
-39.36767578125
-31.1279296875
-31.1279296875
-34.7900390625
-29.296875
-32.958984375
-35.70556640625
-33.87451171875
-44.86083984375
-43.9453125
-43.9453125
-36.62109375
-37.53662109375
-45.7763671875
-51.26953125
-38.4521484375
-44.86083984375
-45.7763671875
-49.4384765625
-45.7763671875
-49.4384765625
-53.1005859375
-57.67822265625
-56.7626953125
-51.26953125
-50.35400390625
-41.19873046875
-43.02978515625
-41.19873046875
-43.9453125
-41.19873046875
-54.01611328125
-61.34033203125
-61.34033203125
-61.34033203125
-57.67822265625
-62.255859375
-61.34033203125
-63.17138671875
-45.7763671875
-48.52294921875
-39.36767578125
-49.4384765625
-52.18505859375
-42.1142578125
-44.86083984375
-47.607421875
-52.18505859375
-57.67822265625
-60.4248046875
-57.67822265625
-52.18505859375
-50.35400390625
-56.7626953125
-51.26953125
-53.1005859375
-58.59375
-61.34033203125
-64.0869140625
-55.84716796875
-65.91796875
-54.01611328125
-47.607421875
-39.36767578125
-32.04345703125
-20.1416015625
-12.8173828125
-10.986328125
-21.97265625
-27.4658203125
-24.71923828125
-31.1279296875
-32.958984375
-32.04345703125
-24.71923828125
-28.38134765625
-28.38134765625
-18.310546875
-16.4794921875
-28.38134765625
-32.04345703125
-25.634765625
-16.4794921875
-12.8173828125
-17.39501953125
-17.39501953125
-27.4658203125
-32.04345703125
-38.4521484375
-30.21240234375
-28.38134765625
-33.87451171875
-27.4658203125
-26.55029296875
-22.88818359375
-28.38134765625
-39.36767578125
-44.86083984375
-45.7763671875
-50.35400390625
-55.84716796875
-57.67822265625
-56.7626953125
-61.34033203125
-66.83349609375
-67.7490234375
-65.00244140625
-70.49560546875
-71.4111328125
-70.49560546875
-66.83349609375
-71.4111328125
-72.32666015625
-68.66455078125
-64.0869140625
-59.50927734375
-50.35400390625
-54.931640625
-47.607421875
-51.26953125
-54.931640625
-59.50927734375
-63.17138671875
-55.84716796875
-56.7626953125
-54.931640625
-55.84716796875
-34.7900390625
-12.8173828125
12.8173828125
64.0869140625
137.3291015625
211.48681640625
299.37744140625
388.18359375
476.98974609375
565.7958984375
617.0654296875
649.10888671875
611.572265625
409.24072265625
191.34521484375
47.607421875
-44.86083984375
-98.876953125
-117.1875
-110.77880859375
-134.58251953125
-151.9775390625
-162.04833984375
-179.443359375
-182.18994140625
-171.20361328125
-183.10546875
-203.2470703125
-209.65576171875
-186.767578125
-168.45703125
-151.9775390625
-122.6806640625
-108.0322265625
-92.46826171875
-73.2421875
-57.67822265625
-51.26953125
-43.9453125
-40.283203125
-34.7900390625
-24.71923828125
-30.21240234375
-30.21240234375
-27.4658203125
-22.88818359375
-24.71923828125
-26.55029296875
-32.958984375
-33.87451171875
-32.04345703125
-34.7900390625
-35.70556640625
-30.21240234375
-32.04345703125
-29.296875
-21.97265625
-18.310546875
-21.97265625
-21.97265625
-16.4794921875
-17.39501953125
-19.22607421875
-17.39501953125
-14.6484375
-15.56396484375
-22.88818359375
-22.88818359375
-30.21240234375
-39.36767578125
-32.04345703125
-32.04345703125
-37.53662109375
-42.1142578125
-43.02978515625
-31.1279296875
-28.38134765625
-23.8037109375
-15.56396484375
-10.07080078125
-10.07080078125
-4.57763671875
0.91552734375
8.23974609375
6.40869140625
-0.91552734375
4.57763671875
7.32421875
10.986328125
11.90185546875
10.07080078125
6.40869140625
2.74658203125
0.91552734375
3.662109375
12.8173828125
15.56396484375
12.8173828125
17.39501953125
20.1416015625
23.8037109375
24.71923828125
28.38134765625
23.8037109375
23.8037109375
31.1279296875
38.4521484375
35.70556640625
40.283203125
36.62109375
32.958984375
37.53662109375
43.9453125
47.607421875
50.35400390625
56.7626953125
64.0869140625
67.7490234375
68.66455078125
72.32666015625
67.7490234375
74.15771484375
84.228515625
93.3837890625
93.3837890625
93.3837890625
100.7080078125
105.28564453125
113.525390625
123.59619140625
136.41357421875
135.498046875
142.822265625
148.3154296875
152.89306640625
147.39990234375
145.56884765625
151.06201171875
154.72412109375
164.794921875
179.443359375
180.35888671875
188.5986328125
195.9228515625
206.9091796875
213.31787109375
219.7265625
223.388671875
226.13525390625
220.64208984375
221.5576171875
226.13525390625
223.388671875
231.62841796875
231.62841796875
223.388671875
223.388671875
219.7265625
207.82470703125
204.16259765625
201.416015625
194.091796875
192.2607421875
176.69677734375
168.45703125
159.3017578125
152.89306640625
144.6533203125
133.6669921875
119.0185546875
103.45458984375
97.96142578125
88.80615234375
83.31298828125
73.2421875
68.66455078125
61.34033203125
44.86083984375
32.04345703125
29.296875
28.38134765625
31.1279296875
22.88818359375
18.310546875
13.73291015625
10.07080078125
7.32421875
-4.57763671875
-10.986328125
-17.39501953125
-16.4794921875
-21.05712890625
-26.55029296875
-32.04345703125
-40.283203125
-38.4521484375
-38.4521484375
-32.04345703125
-32.958984375
-34.7900390625
-33.87451171875
-32.958984375
-31.1279296875
-32.958984375
-39.36767578125
-32.04345703125
-29.296875
-38.4521484375
-38.4521484375
-33.87451171875
-40.283203125
-46.69189453125
-39.36767578125
-36.62109375
-46.69189453125
-50.35400390625
-44.86083984375
-42.1142578125
-40.283203125
-38.4521484375
-32.958984375
-37.53662109375
-33.87451171875
-31.1279296875
-25.634765625
-27.4658203125
-24.71923828125
-21.05712890625
-23.8037109375
-29.296875
-34.7900390625
-40.283203125
-41.19873046875
-42.1142578125
-37.53662109375
-35.70556640625
-31.1279296875
-18.310546875
-14.6484375
-17.39501953125
-14.6484375
-10.07080078125
-10.07080078125
-15.56396484375
-19.22607421875
-19.22607421875
-26.55029296875
-28.38134765625
-29.296875
-32.04345703125
-24.71923828125
-16.4794921875
-21.05712890625
-23.8037109375
-29.296875
-36.62109375
-40.283203125
-33.87451171875
-40.283203125
-35.70556640625
-36.62109375
-38.4521484375
-37.53662109375
-35.70556640625
-37.53662109375
-38.4521484375
-30.21240234375
-29.296875
-29.296875
-30.21240234375
-31.1279296875
-33.87451171875
-36.62109375
-34.7900390625
-43.02978515625
-41.19873046875
-36.62109375
-40.283203125
-41.19873046875
-45.7763671875
-51.26953125
-55.84716796875
-53.1005859375
-51.26953125
-54.931640625
-48.52294921875
-43.02978515625
-43.9453125
-44.86083984375
-45.7763671875
-49.4384765625
-52.18505859375
-54.931640625
-55.84716796875
-57.67822265625
-63.17138671875
-66.83349609375
-69.580078125
-69.580078125
-61.34033203125
-55.84716796875
-55.84716796875
-61.34033203125
-52.18505859375
-54.931640625
-50.35400390625
-51.26953125
-56.7626953125
-64.0869140625
-65.91796875
-62.255859375
-57.67822265625
-57.67822265625
-52.18505859375
-41.19873046875
-34.7900390625
-45.7763671875
-49.4384765625
-47.607421875
-53.1005859375
-51.26953125
-49.4384765625
-49.4384765625
-51.26953125
-48.52294921875
-50.35400390625
-49.4384765625
-53.1005859375
-58.59375
-55.84716796875
-57.67822265625
-54.931640625
-54.931640625
-61.34033203125
-59.50927734375
-56.7626953125
-48.52294921875
-48.52294921875
-54.01611328125
-58.59375
-59.50927734375
-56.7626953125
-54.01611328125
-50.35400390625
-39.36767578125
-29.296875
-25.634765625
-21.97265625
-18.310546875
-21.97265625
-26.55029296875
-26.55029296875
-32.958984375
-34.7900390625
-32.958984375
-34.7900390625
-31.1279296875
-23.8037109375
-14.6484375
-17.39501953125
-21.97265625
-26.55029296875
-25.634765625
-14.6484375
-14.6484375
-28.38134765625
-33.87451171875
-45.7763671875
-50.35400390625
-39.36767578125
-38.4521484375
-32.04345703125
-28.38134765625
-22.88818359375
-18.310546875
-19.22607421875
-27.4658203125
-32.958984375
-39.36767578125
-51.26953125
-59.50927734375
-64.0869140625
-66.83349609375
-65.00244140625
-64.0869140625
-64.0869140625
-67.7490234375
-65.00244140625
-67.7490234375
-65.91796875
-65.91796875
-70.49560546875
-72.32666015625
-71.4111328125
-72.32666015625
-71.4111328125
-70.49560546875
-70.49560546875
-64.0869140625
-63.17138671875
-60.4248046875
-57.67822265625
-54.01611328125
-50.35400390625
-47.607421875
-48.52294921875
-49.4384765625
-44.86083984375
-26.55029296875
-3.662109375
16.4794921875
61.34033203125
133.6669921875
208.740234375
267.333984375
342.4072265625
452.2705078125
556.640625
625.30517578125
661.92626953125
679.3212890625
564.88037109375
324.0966796875
130.92041015625
-16.4794921875
-86.97509765625
-112.60986328125
-132.75146484375
-163.87939453125
-184.9365234375
-202.33154296875
-221.5576171875
-238.95263671875
-254.5166015625
-252.685546875
-238.95263671875
-221.5576171875
-195.00732421875
-158.38623046875
-148.3154296875
-130.92041015625
-108.94775390625
-89.7216796875
-74.15771484375
-58.59375
-48.52294921875
-40.283203125
-33.87451171875
-26.55029296875
-30.21240234375
-27.4658203125
-22.88818359375
-25.634765625
-23.8037109375
-26.55029296875
-34.7900390625
-37.53662109375
-36.62109375
-39.36767578125
-37.53662109375
-33.87451171875
-32.04345703125
-29.296875
-23.8037109375
-20.1416015625
-21.97265625
-21.05712890625
-17.39501953125
-18.310546875
-17.39501953125
-15.56396484375
-12.8173828125
-15.56396484375
-15.56396484375
-19.22607421875
-19.22607421875
-13.73291015625
-22.88818359375
-29.296875
-27.4658203125
-21.97265625
-24.71923828125
-23.8037109375
-21.97265625
-21.05712890625
-11.90185546875
-6.40869140625
-4.57763671875
-5.4931640625
-7.32421875
-11.90185546875
-13.73291015625
-15.56396484375
-17.39501953125
-15.56396484375
-18.310546875
-14.6484375
-18.310546875
-3.662109375
6.40869140625
0
8.23974609375
9.1552734375
5.4931640625
5.4931640625
9.1552734375
11.90185546875
6.40869140625
13.73291015625
13.73291015625
17.39501953125
21.97265625
19.22607421875
25.634765625
32.958984375
36.62109375
41.19873046875
40.283203125
40.283203125
35.70556640625
41.19873046875
41.19873046875
50.35400390625
54.931640625
61.34033203125
61.34033203125
67.7490234375
68.66455078125
67.7490234375
73.2421875
82.3974609375
91.552734375
93.3837890625
91.552734375
97.96142578125
97.0458984375
100.7080078125
103.45458984375
112.60986328125
128.173828125
136.41357421875
141.90673828125
152.89306640625
160.21728515625
168.45703125
171.20361328125
173.9501953125
181.2744140625
186.767578125
193.17626953125
205.078125
211.48681640625
214.2333984375
214.2333984375
214.2333984375
216.064453125
221.5576171875
227.05078125
230.712890625
237.12158203125
249.93896484375
254.5166015625
255.43212890625
253.60107421875
260.009765625
258.1787109375
255.43212890625
255.43212890625
242.61474609375
229.79736328125
231.62841796875
221.5576171875
205.078125
196.83837890625
189.51416015625
177.6123046875
169.37255859375
156.55517578125
149.23095703125
136.41357421875
119.0185546875
110.77880859375
104.3701171875
100.7080078125
88.80615234375
72.32666015625
58.59375
51.26953125
42.1142578125
41.19873046875
38.4521484375
26.55029296875
21.97265625
14.6484375
9.1552734375
4.57763671875
2.74658203125
-6.40869140625
-10.07080078125
-15.56396484375
-19.22607421875
-14.6484375
-13.73291015625
-21.97265625
-21.97265625
-22.88818359375
-25.634765625
-27.4658203125
-32.958984375
-40.283203125
-34.7900390625
-37.53662109375
-32.958984375
-27.4658203125
-37.53662109375
-40.283203125
-43.02978515625
-43.02978515625
-43.9453125
-41.19873046875
-36.62109375
-38.4521484375
-36.62109375
-40.283203125
-43.9453125
-45.7763671875
-38.4521484375
-46.69189453125
-51.26953125
-38.4521484375
-42.1142578125
-40.283203125
-37.53662109375
-37.53662109375
-26.55029296875
-17.39501953125
-18.310546875
-27.4658203125
-33.87451171875
-34.7900390625
-31.1279296875
-37.53662109375
-32.958984375
-29.296875
-32.958984375
-36.62109375
-35.70556640625
-31.1279296875
-34.7900390625
-31.1279296875
-26.55029296875
-27.4658203125
-27.4658203125
-27.4658203125
-29.296875
-27.4658203125
-25.634765625
-30.21240234375
-33.87451171875
-35.70556640625
-38.4521484375
-38.4521484375
-35.70556640625
-35.70556640625
-40.283203125
-46.69189453125
-43.02978515625
-37.53662109375
-32.04345703125
-28.38134765625
-32.04345703125
-29.296875
-29.296875
-32.958984375
-35.70556640625
-31.1279296875
-30.21240234375
-35.70556640625
-36.62109375
-44.86083984375
-42.1142578125
-38.4521484375
-35.70556640625
-39.36767578125
-43.02978515625
-43.02978515625
-38.4521484375
-44.86083984375
-42.1142578125
-41.19873046875
-40.283203125
-46.69189453125
-48.52294921875
-45.7763671875
-45.7763671875
-38.4521484375
-35.70556640625
-36.62109375
-32.958984375
-38.4521484375
-40.283203125
-38.4521484375
-46.69189453125
-50.35400390625
-46.69189453125
-47.607421875
-46.69189453125
-46.69189453125
-49.4384765625
-58.59375
-56.7626953125
-54.931640625
-51.26953125
-54.01611328125
-45.7763671875
-46.69189453125
-51.26953125
-50.35400390625
-44.86083984375
-43.02978515625
-42.1142578125
-44.86083984375
-44.86083984375
-49.4384765625
-54.01611328125
-56.7626953125
-56.7626953125
-50.35400390625
-54.931640625
-51.26953125
-43.02978515625
-42.1142578125
-45.7763671875
-48.52294921875
-48.52294921875
-47.607421875
-48.52294921875
-46.69189453125
-51.26953125
-58.59375
-47.607421875
-45.7763671875
-56.7626953125
-58.59375
-46.69189453125
-50.35400390625
-54.931640625
-55.84716796875
-54.01611328125
-48.52294921875
-50.35400390625
-51.26953125
-49.4384765625
-42.1142578125
-42.1142578125
-38.4521484375
-35.70556640625
-41.19873046875
-41.19873046875
-43.02978515625
-43.02978515625
-44.86083984375
-45.7763671875
-48.52294921875
-55.84716796875
-54.931640625
-61.34033203125
-60.4248046875
-43.9453125
-54.931640625
-54.01611328125
-49.4384765625
-44.86083984375
-39.36767578125
-37.53662109375
-37.53662109375
-39.36767578125
-35.70556640625
-36.62109375
-36.62109375
-37.53662109375
-40.283203125
-47.607421875
-46.69189453125
-43.9453125
-41.19873046875
-41.19873046875
-42.1142578125
-41.19873046875
-43.02978515625
-51.26953125
-50.35400390625
-38.4521484375
-42.1142578125
-47.607421875
-44.86083984375
-41.19873046875
-35.70556640625
-49.4384765625
-41.19873046875
-44.86083984375
-44.86083984375
-46.69189453125
-48.52294921875
-49.4384765625
-49.4384765625
-57.67822265625
-55.84716796875
-46.69189453125
-52.18505859375
-39.36767578125
-40.283203125
-46.69189453125
-55.84716796875
-54.01611328125
-48.52294921875
-48.52294921875
-41.19873046875
-38.4521484375
-37.53662109375
-34.7900390625
-20.1416015625
-18.310546875
-15.56396484375
-11.90185546875
-7.32421875
-11.90185546875
-24.71923828125
-25.634765625
-20.1416015625
-13.73291015625
-10.986328125
-18.310546875
-18.310546875
-10.986328125
-11.90185546875
-16.4794921875
-13.73291015625
-11.90185546875
-12.8173828125
-9.1552734375
-11.90185546875
-23.8037109375
-20.1416015625
-20.1416015625
-21.97265625
-26.55029296875
-32.04345703125
-30.21240234375
-27.4658203125
-24.71923828125
-20.1416015625
-23.8037109375
-28.38134765625
-37.53662109375
-49.4384765625
-46.69189453125
-50.35400390625
-55.84716796875
-65.00244140625
-63.17138671875
-64.0869140625
-65.00244140625
-65.91796875
-59.50927734375
-46.69189453125
-44.86083984375
-39.36767578125
-37.53662109375
-42.1142578125
-36.62109375
-40.283203125
-36.62109375
-40.283203125
-39.36767578125
-46.69189453125
-50.35400390625
-54.01611328125
-50.35400390625
-49.4384765625
-42.1142578125
-41.19873046875
-41.19873046875
-31.1279296875
0.91552734375
20.1416015625
47.607421875
98.876953125
179.443359375
251.77001953125
325.01220703125
422.05810546875
523.681640625
606.99462890625
658.26416015625
698.54736328125
672.91259765625
471.49658203125
242.61474609375
69.580078125
-54.931640625
-106.201171875
-132.75146484375
-159.3017578125
-173.9501953125
-195.00732421875
-214.2333984375
-225.2197265625
-231.62841796875
-239.8681640625
-231.62841796875
-204.16259765625
-184.9365234375
-155.6396484375
-132.75146484375
-112.60986328125
-95.21484375
-83.31298828125
-65.91796875
-48.52294921875
-37.53662109375
-35.70556640625
-32.04345703125
-16.4794921875
-24.71923828125
-21.97265625
-13.73291015625
-11.90185546875
-12.8173828125
-15.56396484375
-13.73291015625
-10.07080078125
-7.32421875
-11.90185546875
-5.4931640625
-4.57763671875
-6.40869140625
-6.40869140625
-10.986328125
-15.56396484375
-9.1552734375
-10.07080078125
-13.73291015625
-9.1552734375
-6.40869140625
-5.4931640625
-9.1552734375
-11.90185546875
-8.23974609375
-1.8310546875
0.91552734375
-0.91552734375
-9.1552734375
-7.32421875
-9.1552734375
-3.662109375
-4.57763671875
2.74658203125
2.74658203125
-2.74658203125
-3.662109375
0
-2.74658203125
-1.8310546875
0
-0.91552734375
-0.91552734375
6.40869140625
8.23974609375
5.4931640625
13.73291015625
17.39501953125
16.4794921875
9.1552734375
15.56396484375
19.22607421875
21.05712890625
23.8037109375
31.1279296875
26.55029296875
27.4658203125
30.21240234375
30.21240234375
27.4658203125
31.1279296875
35.70556640625
32.04345703125
40.283203125
45.7763671875
44.86083984375
57.67822265625
54.931640625
52.18505859375
58.59375
54.01611328125
49.4384765625
54.01611328125
54.931640625
62.255859375
67.7490234375
74.15771484375
79.65087890625
76.904296875
80.56640625
93.3837890625
100.7080078125
100.7080078125
109.86328125
113.525390625
115.3564453125
122.6806640625
127.25830078125
130.92041015625
139.16015625
139.16015625
145.56884765625
150.146484375
163.87939453125
171.20361328125
182.18994140625
189.51416015625
200.50048828125
205.078125
213.31787109375
224.30419921875
231.62841796875
229.79736328125
236.2060546875
237.12158203125
242.61474609375
251.77001953125
255.43212890625
261.8408203125
270.99609375
274.658203125
272.8271484375
277.40478515625
287.4755859375
288.39111328125
285.64453125
284.72900390625
285.64453125
292.96875
290.22216796875
295.71533203125
297.54638671875
288.39111328125
281.06689453125
267.333984375
253.60107421875
243.5302734375
218.81103515625
207.82470703125
197.75390625
194.091796875
189.51416015625
179.443359375
169.37255859375
162.04833984375
151.06201171875
139.16015625
127.25830078125
124.51171875
104.3701171875
94.29931640625
92.46826171875
82.3974609375
67.7490234375
62.255859375
54.01611328125
51.26953125
42.1142578125
32.04345703125
32.04345703125
30.21240234375
31.1279296875
22.88818359375
10.07080078125
5.4931640625
0
-2.74658203125
-12.8173828125
-8.23974609375
-5.4931640625
-7.32421875
-11.90185546875
-6.40869140625
-2.74658203125
0
-5.4931640625
-14.6484375
-14.6484375
-17.39501953125
-17.39501953125
-12.8173828125
-14.6484375
-14.6484375
-18.310546875
-25.634765625
-39.36767578125
-42.1142578125
-34.7900390625
-26.55029296875
-29.296875
-30.21240234375
-23.8037109375
-22.88818359375
-19.22607421875
-19.22607421875
-15.56396484375
-9.1552734375
-13.73291015625
-17.39501953125
-21.97265625
-21.97265625
-21.97265625
-23.8037109375
-27.4658203125
-22.88818359375
-19.22607421875
-24.71923828125
-32.04345703125
-31.1279296875
-35.70556640625
-32.958984375
-29.296875
-42.1142578125
-47.607421875
-32.04345703125
-21.97265625
-29.296875
-34.7900390625
-32.958984375
-32.958984375
-32.04345703125
-28.38134765625
-26.55029296875
-23.8037109375
-30.21240234375
-31.1279296875
-26.55029296875
-31.1279296875
-21.05712890625
-23.8037109375
-32.04345703125
-27.4658203125
-32.958984375
-42.1142578125
-41.19873046875
-38.4521484375
-32.958984375
-37.53662109375
-41.19873046875
-44.86083984375
-46.69189453125
-45.7763671875
-47.607421875
-39.36767578125
-43.02978515625
-46.69189453125
-52.18505859375
-52.18505859375
-51.26953125
-47.607421875
-43.9453125
-41.19873046875
-36.62109375
-43.02978515625
-43.02978515625
-44.86083984375
-43.9453125
-51.26953125
-52.18505859375
-54.931640625
-50.35400390625
-48.52294921875
-45.7763671875
-48.52294921875
-48.52294921875
-36.62109375
-44.86083984375
-49.4384765625
-43.02978515625
-43.02978515625
-50.35400390625
-49.4384765625
-46.69189453125
-55.84716796875
-63.17138671875
-61.34033203125
-59.50927734375
-63.17138671875
-69.580078125
-62.255859375
-56.7626953125
-60.4248046875
-58.59375
-60.4248046875
-54.931640625
-65.00244140625
-65.91796875
-58.59375
-54.931640625
-60.4248046875
-63.17138671875
-65.91796875
-62.255859375
-56.7626953125
-65.00244140625
-59.50927734375
-53.1005859375
-59.50927734375
-59.50927734375
-64.0869140625
-59.50927734375
-52.18505859375
-55.84716796875
-60.4248046875
-62.255859375
-65.00244140625
-72.32666015625
-71.4111328125
-69.580078125
-65.00244140625
-70.49560546875
-65.91796875
-59.50927734375
-61.34033203125
-65.91796875
-67.7490234375
-72.32666015625
-72.32666015625
-68.66455078125
-75.0732421875
-79.65087890625
-77.81982421875
-78.7353515625
-75.0732421875
-75.0732421875
-76.904296875
-77.81982421875
-65.91796875
-61.34033203125
-62.255859375
-60.4248046875
-56.7626953125
-52.18505859375
-60.4248046875
-58.59375
-61.34033203125
-64.0869140625
-64.0869140625
-71.4111328125
-69.580078125
-69.580078125
-69.580078125
-65.00244140625
-67.7490234375
-76.904296875
-70.49560546875
-65.91796875
-69.580078125
-70.49560546875
-67.7490234375
-55.84716796875
-55.84716796875
-62.255859375
-62.255859375
-66.83349609375
-65.91796875
-65.91796875
-68.66455078125
-64.0869140625
-62.255859375
-60.4248046875
-57.67822265625
-55.84716796875
-57.67822265625
-66.83349609375
-65.00244140625
-63.17138671875
-73.2421875
-75.0732421875
-69.580078125
-79.65087890625
-65.91796875
-64.0869140625
-68.66455078125
-71.4111328125
-73.2421875
-71.4111328125
-61.34033203125
-69.580078125
-80.56640625
-73.2421875
-65.91796875
-63.17138671875
-62.255859375
-64.0869140625
-70.49560546875
-69.580078125
-67.7490234375
-71.4111328125
-80.56640625
-78.7353515625
-80.56640625
-80.56640625
-69.580078125
-68.66455078125
-61.34033203125
-58.59375
-56.7626953125
-56.7626953125
-49.4384765625
-56.7626953125
-70.49560546875
-75.0732421875
-75.98876953125
-75.0732421875
-77.81982421875
-67.7490234375
-72.32666015625
-72.32666015625
-65.91796875
-65.00244140625
-66.83349609375
-71.4111328125
-68.66455078125
-70.49560546875
-65.00244140625
-70.49560546875
-64.0869140625
-53.1005859375
-58.59375
-47.607421875
-45.7763671875
-43.9453125
-37.53662109375
-28.38134765625
-27.4658203125
-28.38134765625
-32.04345703125
-40.283203125
-45.7763671875
-56.7626953125
-48.52294921875
-41.19873046875
-43.9453125
-33.87451171875
-31.1279296875
-29.296875
-29.296875
-35.70556640625
-37.53662109375
-33.87451171875
-33.87451171875
-38.4521484375
-46.69189453125
-45.7763671875
-49.4384765625
-46.69189453125
-37.53662109375
-42.1142578125
-44.86083984375
-43.02978515625
-42.1142578125
-50.35400390625
-55.84716796875
-59.50927734375
-71.4111328125
-66.83349609375
-72.32666015625
-70.49560546875
-83.31298828125
-81.48193359375
-74.15771484375
-65.00244140625
-63.17138671875
-65.00244140625
-71.4111328125
-67.7490234375
-69.580078125
-76.904296875
-81.48193359375
-71.4111328125
-75.98876953125
-86.0595703125
-76.904296875
-71.4111328125
-72.32666015625
-72.32666015625
-70.49560546875
-70.49560546875
-75.98876953125
-73.2421875
-72.32666015625
-63.17138671875
-70.49560546875
-65.91796875
-47.607421875
-20.1416015625
8.23974609375
40.283203125
91.552734375
159.3017578125
227.96630859375
301.20849609375
406.494140625
503.5400390625
589.599609375
639.0380859375
664.6728515625
621.64306640625
407.40966796875
186.767578125
51.26953125
-45.7763671875
-82.3974609375
-101.62353515625
-118.10302734375
-128.173828125
-154.72412109375
-187.68310546875
-195.9228515625
-210.5712890625
-233.45947265625
-238.95263671875
-225.2197265625
-216.97998046875
-202.33154296875
-166.6259765625
-140.07568359375
-138.24462890625
-122.6806640625
-103.45458984375
-91.552734375
-68.66455078125
-53.1005859375
-48.52294921875
-54.01611328125
-55.84716796875
-48.52294921875
-54.01611328125
-59.50927734375
-47.607421875
-43.02978515625
-43.9453125
-37.53662109375
-29.296875
-31.1279296875
-24.71923828125
-15.56396484375
-21.05712890625
-18.310546875
-18.310546875
-21.97265625
-23.8037109375
-26.55029296875
-27.4658203125
-31.1279296875
-43.9453125
-44.86083984375
-43.02978515625
-49.4384765625
-34.7900390625
-24.71923828125
-20.1416015625
-23.8037109375
-19.22607421875
-22.88818359375
-16.4794921875
-13.73291015625
-16.4794921875
-31.1279296875
-19.22607421875
-24.71923828125
-25.634765625
-22.88818359375
-23.8037109375
-24.71923828125
-27.4658203125
-28.38134765625
-20.1416015625
-21.05712890625
-21.05712890625
-24.71923828125
-21.05712890625
-12.8173828125
-17.39501953125
-18.310546875
-25.634765625
-25.634765625
-22.88818359375
-23.8037109375
-10.986328125
-3.662109375
0.91552734375
-4.57763671875
-0.91552734375
2.74658203125
7.32421875
16.4794921875
17.39501953125
12.8173828125
6.40869140625
13.73291015625
17.39501953125
17.39501953125
16.4794921875
17.39501953125
21.05712890625
25.634765625
19.22607421875
21.97265625
24.71923828125
37.53662109375
32.958984375
32.958984375
30.21240234375
34.7900390625
45.7763671875
57.67822265625
74.15771484375
75.0732421875
76.904296875
88.80615234375
94.29931640625
88.80615234375
98.876953125
97.96142578125
96.13037109375
108.94775390625
116.27197265625
114.44091796875
119.93408203125
123.59619140625
136.41357421875
149.23095703125
156.55517578125
159.3017578125
164.794921875
172.119140625
186.767578125
186.767578125
196.83837890625
200.50048828125
209.65576171875
214.2333984375
222.47314453125
224.30419921875
233.45947265625
236.2060546875
242.61474609375
258.1787109375
249.0234375
238.95263671875
249.93896484375
255.43212890625
251.77001953125
250.8544921875
250.8544921875
244.44580078125
238.95263671875
232.5439453125
227.96630859375
231.62841796875
221.5576171875
208.740234375
198.66943359375
191.34521484375
174.86572265625
164.794921875
152.89306640625
132.75146484375
120.849609375
113.525390625
108.94775390625
95.21484375
91.552734375
82.3974609375
76.904296875
73.2421875
57.67822265625
49.4384765625
40.283203125
26.55029296875
20.1416015625
8.23974609375
-0.91552734375
-9.1552734375
-0.91552734375
-0.91552734375
-6.40869140625
-10.07080078125
-16.4794921875
-17.39501953125
-16.4794921875
-8.23974609375
-17.39501953125
-31.1279296875
-32.04345703125
-35.70556640625
-38.4521484375
-32.958984375
-37.53662109375
-38.4521484375
-39.36767578125
-43.9453125
-46.69189453125
-51.26953125
-47.607421875
-41.19873046875
-41.19873046875
-36.62109375
-36.62109375
-43.02978515625
-51.26953125
-53.1005859375
-54.931640625
-65.00244140625
-63.17138671875
-49.4384765625
-47.607421875
-49.4384765625
-36.62109375
-32.04345703125
-37.53662109375
-36.62109375
-33.87451171875
-35.70556640625
-39.36767578125
-36.62109375
-36.62109375
-48.52294921875
-49.4384765625
-44.86083984375
-40.283203125
-43.02978515625
-49.4384765625
-45.7763671875
-45.7763671875
-38.4521484375
-43.02978515625
-41.19873046875
-38.4521484375
-37.53662109375
-36.62109375
-33.87451171875
-32.04345703125
-32.04345703125
-31.1279296875
-31.1279296875
-30.21240234375
-29.296875
-31.1279296875
-30.21240234375
-24.71923828125
-26.55029296875
-28.38134765625
-32.958984375
-34.7900390625
-37.53662109375
-40.283203125
-45.7763671875
-44.86083984375
-45.7763671875
-51.26953125
-50.35400390625
-44.86083984375
-41.19873046875
-38.4521484375
-43.9453125
-43.9453125
-38.4521484375
-30.21240234375
-27.4658203125
-27.4658203125
-32.04345703125
-35.70556640625
-38.4521484375
-41.19873046875
-46.69189453125
-47.607421875
-49.4384765625
-49.4384765625
-54.931640625
-58.59375
-63.17138671875
-57.67822265625
-53.1005859375
-47.607421875
-51.26953125
-51.26953125
-51.26953125
-49.4384765625
-44.86083984375
-43.9453125
-52.18505859375
-53.1005859375
-46.69189453125
-41.19873046875
-45.7763671875
-52.18505859375
-56.7626953125
-51.26953125
-48.52294921875
-52.18505859375
-57.67822265625
-53.1005859375
-55.84716796875
-55.84716796875
-59.50927734375
-60.4248046875
-58.59375
-55.84716796875
-54.931640625
-55.84716796875
-55.84716796875
-54.931640625
-57.67822265625
-54.01611328125
-52.18505859375
-54.01611328125
-54.931640625
-50.35400390625
-48.52294921875
-53.1005859375
-54.01611328125
-56.7626953125
-56.7626953125
-59.50927734375
-56.7626953125
-62.255859375
-70.49560546875
-68.66455078125
-60.4248046875
-56.7626953125
-54.931640625
-54.01611328125
-52.18505859375
-54.01611328125
-48.52294921875
-46.69189453125
-51.26953125
-56.7626953125
-52.18505859375
-52.18505859375
-58.59375
-62.255859375
-56.7626953125
-54.931640625
-48.52294921875
-50.35400390625
-58.59375
-57.67822265625
-52.18505859375
-49.4384765625
-53.1005859375
-62.255859375
-64.0869140625
-62.255859375
-67.7490234375
-64.0869140625
-69.580078125
-78.7353515625
-67.7490234375
-55.84716796875
-67.7490234375
-64.0869140625
-54.01611328125
-56.7626953125
-54.931640625
-52.18505859375
-60.4248046875
-55.84716796875
-54.931640625
-48.52294921875
-61.34033203125
-62.255859375
-55.84716796875
-65.00244140625
-65.91796875
-72.32666015625
-70.49560546875
-68.66455078125
-64.0869140625
-61.34033203125
-65.91796875
-66.83349609375
-69.580078125
-65.00244140625
-58.59375
-50.35400390625
-54.01611328125
-59.50927734375
-56.7626953125
-57.67822265625
-63.17138671875
-55.84716796875
-56.7626953125
-56.7626953125
-51.26953125
-47.607421875
-52.18505859375
-54.01611328125
-54.01611328125
-60.4248046875
-65.00244140625
-65.00244140625
-72.32666015625
-63.17138671875
-64.0869140625
-64.0869140625
-67.7490234375
-68.66455078125
-65.00244140625
-67.7490234375
-63.17138671875
-56.7626953125
-56.7626953125
-55.84716796875
-52.18505859375
-55.84716796875
-56.7626953125
-57.67822265625
-49.4384765625
-44.86083984375
-39.36767578125
-37.53662109375
-29.296875
-21.97265625
-22.88818359375
-23.8037109375
-26.55029296875
-26.55029296875
-38.4521484375
-40.283203125
-42.1142578125
-47.607421875
-45.7763671875
-44.86083984375
-40.283203125
-43.02978515625
-43.9453125
-40.283203125
-42.1142578125
-35.70556640625
-34.7900390625
-30.21240234375
-32.958984375
-37.53662109375
-48.52294921875
-49.4384765625
-46.69189453125
-44.86083984375
-37.53662109375
-36.62109375
-38.4521484375
-37.53662109375
-37.53662109375
-40.283203125
-53.1005859375
-62.255859375
-63.17138671875
-62.255859375
-60.4248046875
-65.91796875
-69.580078125
-72.32666015625
-72.32666015625
-67.7490234375
-65.00244140625
-63.17138671875
-61.34033203125
-58.59375
-64.0869140625
-71.4111328125
-69.580078125
-69.580078125
-73.2421875
-78.7353515625
-72.32666015625
-75.0732421875
-78.7353515625
-70.49560546875
-59.50927734375
-57.67822265625
-54.931640625
-60.4248046875
-54.931640625
-65.91796875
-61.34033203125
-42.1142578125
-17.39501953125
5.4931640625
32.04345703125
81.48193359375
170.2880859375
234.375
304.87060546875
403.74755859375
506.28662109375
585.02197265625
634.46044921875
676.57470703125
641.78466796875
432.12890625
207.82470703125
58.59375
-53.1005859375
-101.62353515625
-120.849609375
-140.9912109375
-159.3017578125
-176.69677734375
-201.416015625
-227.96630859375
-235.29052734375
-239.8681640625
-234.375
-226.13525390625
-211.48681640625
-186.767578125
-160.21728515625
-130.92041015625
-109.86328125
-90.63720703125
-75.0732421875
-64.0869140625
-52.18505859375
-47.607421875
-45.7763671875
-43.02978515625
-44.86083984375
-36.62109375
-38.4521484375
-43.02978515625
-43.9453125
-43.9453125
-43.9453125
-37.53662109375
-34.7900390625
-33.87451171875
-38.4521484375
-33.87451171875
-25.634765625
-35.70556640625
-38.4521484375
-32.04345703125
-25.634765625
-30.21240234375
-31.1279296875
-30.21240234375
-35.70556640625
-35.70556640625
-33.87451171875
-29.296875
-23.8037109375
-21.97265625
-22.88818359375
-22.88818359375
-20.1416015625
-31.1279296875
-41.19873046875
-26.55029296875
-21.97265625
-15.56396484375
-20.1416015625
-22.88818359375
-18.310546875
-23.8037109375
-17.39501953125
-18.310546875
-19.22607421875
-18.310546875
-13.73291015625
-11.90185546875
-15.56396484375
-15.56396484375
-14.6484375
-10.07080078125
-3.662109375
-4.57763671875
-7.32421875
-7.32421875
-0.91552734375
-1.8310546875
-2.74658203125
0.91552734375
-7.32421875
-9.1552734375
-16.4794921875
-10.07080078125
-5.4931640625
-11.90185546875
-10.986328125
0.91552734375
1.8310546875
-0.91552734375
4.57763671875
9.1552734375
7.32421875
17.39501953125
22.88818359375
23.8037109375
22.88818359375
21.97265625
34.7900390625
43.02978515625
43.02978515625
44.86083984375
56.7626953125
63.17138671875
56.7626953125
68.66455078125
79.65087890625
77.81982421875
81.48193359375
87.890625
85.14404296875
94.29931640625
95.21484375
95.21484375
100.7080078125
110.77880859375
118.10302734375
124.51171875
130.92041015625
132.75146484375
141.90673828125
158.38623046875
164.794921875
169.37255859375
166.6259765625
167.54150390625
177.6123046875
185.85205078125
193.17626953125
202.33154296875
211.48681640625
223.388671875
227.05078125
229.79736328125
227.05078125
228.8818359375
241.69921875
249.0234375
240.78369140625
249.0234375
259.09423828125
261.8408203125
264.58740234375
260.009765625
260.92529296875
258.1787109375
247.1923828125
240.78369140625
232.5439453125
230.712890625
224.30419921875
220.64208984375
205.99365234375
189.51416015625
183.10546875
176.69677734375
162.9638671875
146.484375
137.3291015625
130.0048828125
117.1875
105.28564453125
93.3837890625
80.56640625
74.15771484375
69.580078125
58.59375
38.4521484375
33.87451171875
28.38134765625
26.55029296875
18.310546875
8.23974609375
3.662109375
8.23974609375
2.74658203125
-9.1552734375
-21.97265625
-21.97265625
-22.88818359375
-23.8037109375
-28.38134765625
-33.87451171875
-37.53662109375
-32.04345703125
-28.38134765625
-42.1142578125
-43.02978515625
-47.607421875
-53.1005859375
-35.70556640625
-35.70556640625
-41.19873046875
-34.7900390625
-31.1279296875
-29.296875
-27.4658203125
-27.4658203125
-23.8037109375
-30.21240234375
-29.296875
-29.296875
-36.62109375
-34.7900390625
-40.283203125
-41.19873046875
-28.38134765625
-33.87451171875
-41.19873046875
-39.36767578125
-37.53662109375
-38.4521484375
-39.36767578125
-38.4521484375
-37.53662109375
-33.87451171875
-25.634765625
-28.38134765625
-28.38134765625
-27.4658203125
-30.21240234375
-39.36767578125
-31.1279296875
-34.7900390625
-34.7900390625
-38.4521484375
-34.7900390625
-32.04345703125
-41.19873046875
-38.4521484375
-34.7900390625
-40.283203125
-39.36767578125
-35.70556640625
-32.958984375
-35.70556640625
-32.958984375
-32.04345703125
-28.38134765625
-28.38134765625
-25.634765625
-30.21240234375
-28.38134765625
-25.634765625
-29.296875
-26.55029296875
-21.97265625
-20.1416015625
-26.55029296875
-23.8037109375
-18.310546875
-16.4794921875
-24.71923828125
-31.1279296875
-34.7900390625
-38.4521484375
-37.53662109375
-33.87451171875
-37.53662109375
-31.1279296875
-27.4658203125
-35.70556640625
-36.62109375
-22.88818359375
-43.02978515625
-44.86083984375
-32.958984375
-35.70556640625
-33.87451171875
-35.70556640625
-38.4521484375
-39.36767578125
-39.36767578125
-46.69189453125
-43.02978515625
-38.4521484375
-33.87451171875
-39.36767578125
-43.02978515625
-45.7763671875
-52.18505859375
-51.26953125
-41.19873046875
-43.02978515625
-41.19873046875
-40.283203125
-42.1142578125
-44.86083984375
-42.1142578125
-52.18505859375
-51.26953125
-55.84716796875
-52.18505859375
-50.35400390625
-43.02978515625
-49.4384765625
-57.67822265625
-54.931640625
-64.0869140625
-65.91796875
-62.255859375
-59.50927734375
-54.01611328125
-46.69189453125
-42.1142578125
-41.19873046875
-44.86083984375
-44.86083984375
-51.26953125
-44.86083984375
-47.607421875
-47.607421875
-43.9453125
-40.283203125
-42.1142578125
-41.19873046875
-40.283203125
-43.02978515625
-47.607421875
-49.4384765625
-51.26953125
-52.18505859375
-62.255859375
-54.931640625
-54.931640625
-46.69189453125
-44.86083984375
-43.9453125
-39.36767578125
-43.9453125
-55.84716796875
-58.59375
-58.59375
-60.4248046875
-62.255859375
-56.7626953125
-64.0869140625
-63.17138671875
-61.34033203125
-59.50927734375
-57.67822265625
-59.50927734375
-50.35400390625
-47.607421875
-48.52294921875
-46.69189453125
-47.607421875
-52.18505859375
-50.35400390625
-48.52294921875
-53.1005859375
-49.4384765625
-43.9453125
-43.9453125
-48.52294921875
-48.52294921875
-44.86083984375
-48.52294921875
-53.1005859375
-56.7626953125
-58.59375
-55.84716796875
-51.26953125
-49.4384765625
-46.69189453125
-48.52294921875
-45.7763671875
-46.69189453125
-57.67822265625
-53.1005859375
-51.26953125
-55.84716796875
-51.26953125
-49.4384765625
-51.26953125
-47.607421875
-50.35400390625
-51.26953125
-50.35400390625
-42.1142578125
-45.7763671875
-54.931640625
-49.4384765625
-50.35400390625
-54.931640625
-54.931640625
-55.84716796875
-54.931640625
-55.84716796875
-55.84716796875
-56.7626953125
-54.931640625
-63.17138671875
-67.7490234375
-56.7626953125
-61.34033203125
-62.255859375
-63.17138671875
-61.34033203125
-62.255859375
-58.59375
-61.34033203125
-54.931640625
-58.59375
-55.84716796875
-55.84716796875
-47.607421875
-41.19873046875
-43.02978515625
-45.7763671875
-51.26953125
-50.35400390625
-48.52294921875
-43.9453125
-44.86083984375
-50.35400390625
-54.931640625
-57.67822265625
-54.931640625
-57.67822265625
-60.4248046875
-59.50927734375
-52.18505859375
-60.4248046875
-56.7626953125
-59.50927734375
-58.59375
-61.34033203125
-60.4248046875
-58.59375
-43.9453125
-43.9453125
-48.52294921875
-36.62109375
-39.36767578125
-52.18505859375
-42.1142578125
-36.62109375
-42.1142578125
-43.9453125
-48.52294921875
-51.26953125
-49.4384765625
-46.69189453125
-44.86083984375
-46.69189453125
-43.02978515625
-39.36767578125
-41.19873046875
-48.52294921875
-55.84716796875
-54.931640625
-59.50927734375
-60.4248046875
-63.17138671875
-62.255859375
-53.1005859375
-35.70556640625
-40.283203125
-38.4521484375
-45.7763671875
-52.18505859375
-46.69189453125
-31.1279296875
-48.52294921875
-52.18505859375
-44.86083984375
-31.1279296875
-21.05712890625
-17.39501953125
-8.23974609375
-3.662109375
1.8310546875
-2.74658203125
-15.56396484375
-19.22607421875
-21.05712890625
-13.73291015625
-10.986328125
-19.22607421875
-23.8037109375
-17.39501953125
-16.4794921875
-20.1416015625
-13.73291015625
-14.6484375
-18.310546875
-14.6484375
-18.310546875
-28.38134765625
-26.55029296875
-24.71923828125
-24.71923828125
-28.38134765625
-27.4658203125
-30.21240234375
-32.04345703125
-32.04345703125
-36.62109375
-44.86083984375
-47.607421875
-59.50927734375
-56.7626953125
-50.35400390625
-58.59375
-59.50927734375
-49.4384765625
-49.4384765625
-55.84716796875
-55.84716796875
-59.50927734375
-54.01611328125
-56.7626953125
-61.34033203125
-64.0869140625
-61.34033203125
-57.67822265625
-49.4384765625
-48.52294921875
-43.9453125
-44.86083984375
-54.931640625
-50.35400390625
-53.1005859375
-43.02978515625
-33.87451171875
-39.36767578125
-45.7763671875
-39.36767578125
-32.958984375
-15.56396484375
10.986328125
32.958984375
79.65087890625
149.23095703125
215.14892578125
291.1376953125
382.6904296875
487.97607421875
584.1064453125
654.60205078125
692.138671875
715.02685546875
574.03564453125
329.58984375
141.90673828125
-22.88818359375
-76.904296875
-109.86328125
-136.41357421875
-151.9775390625
-178.52783203125
-200.50048828125
-216.97998046875
-231.62841796875
-238.95263671875
-231.62841796875
-218.81103515625
-200.50048828125
-178.52783203125
-139.16015625
-124.51171875
-95.21484375
-69.580078125
-59.50927734375
-49.4384765625
-42.1142578125
-25.634765625
-18.310546875
-29.296875
-26.55029296875
-21.97265625
-26.55029296875
-21.97265625
-21.05712890625
-22.88818359375
-26.55029296875
-20.1416015625
-12.8173828125
-21.97265625
-23.8037109375
-32.958984375
-30.21240234375
-26.55029296875
-23.8037109375
-20.1416015625
-18.310546875
-14.6484375
-11.90185546875
-8.23974609375
-5.4931640625
-3.662109375
-3.662109375
-3.662109375
-10.07080078125
-10.07080078125
0
-0.91552734375
-10.07080078125
-4.57763671875
2.74658203125
4.57763671875
6.40869140625
9.1552734375
5.4931640625
10.986328125
17.39501953125
20.1416015625
14.6484375
10.07080078125
9.1552734375
8.23974609375
6.40869140625
5.4931640625
6.40869140625
9.1552734375
11.90185546875
11.90185546875
16.4794921875
15.56396484375
11.90185546875
9.1552734375
5.4931640625
9.1552734375
11.90185546875
15.56396484375
19.22607421875
20.1416015625
17.39501953125
10.986328125
17.39501953125
23.8037109375
24.71923828125
27.4658203125
32.958984375
38.4521484375
43.9453125
41.19873046875
43.9453125
47.607421875
43.02978515625
43.02978515625
44.86083984375
44.86083984375
37.53662109375
32.958984375
46.69189453125
50.35400390625
60.4248046875
57.67822265625
65.91796875
82.3974609375
87.890625
88.80615234375
96.13037109375
102.5390625
106.201171875
107.11669921875
113.525390625
112.60986328125
113.525390625
122.6806640625
121.76513671875
130.92041015625
141.90673828125
151.06201171875
162.04833984375
167.54150390625
172.119140625
177.6123046875
187.68310546875
194.091796875
195.00732421875
202.33154296875
213.31787109375
219.7265625
222.47314453125
221.5576171875
234.375
238.95263671875
238.95263671875
248.10791015625
258.1787109375
258.1787109375
268.24951171875
274.658203125
270.99609375
271.91162109375
278.3203125
281.06689453125
277.40478515625
287.4755859375
278.3203125
272.8271484375
277.40478515625
270.99609375
259.09423828125
249.93896484375
249.93896484375
238.95263671875
223.388671875
208.740234375
194.091796875
184.9365234375
179.443359375
168.45703125
160.21728515625
157.470703125
138.24462890625
112.60986328125
103.45458984375
101.62353515625
94.29931640625
89.7216796875
83.31298828125
73.2421875
59.50927734375
59.50927734375
52.18505859375
37.53662109375
26.55029296875
21.97265625
29.296875
24.71923828125
14.6484375
7.32421875
7.32421875
10.986328125
3.662109375
-11.90185546875
-11.90185546875
-9.1552734375
-10.07080078125
-12.8173828125
-28.38134765625
-32.958984375
-28.38134765625
-31.1279296875
-39.36767578125
-38.4521484375
-32.958984375
-26.55029296875
-28.38134765625
-28.38134765625
-31.1279296875
-39.36767578125
-38.4521484375
-43.9453125
-44.86083984375
-43.9453125
-44.86083984375
-46.69189453125
-38.4521484375
-43.02978515625
-47.607421875
-43.02978515625
-50.35400390625
-41.19873046875
-37.53662109375
-37.53662109375
-44.86083984375
-49.4384765625
-44.86083984375
-37.53662109375
-48.52294921875
-50.35400390625
-38.4521484375
-39.36767578125
-49.4384765625
-48.52294921875
-45.7763671875
-40.283203125
-34.7900390625
-34.7900390625
-32.04345703125
-34.7900390625
-33.87451171875
-33.87451171875
-33.87451171875
-36.62109375
-43.02978515625
-38.4521484375
-44.86083984375
-42.1142578125
-34.7900390625
-33.87451171875
-32.04345703125
-32.04345703125
-31.1279296875
-29.296875
-33.87451171875
-32.04345703125
-32.04345703125
-34.7900390625
-45.7763671875
-45.7763671875
-47.607421875
-49.4384765625
-51.26953125
-48.52294921875
-40.283203125
-43.02978515625
-48.52294921875
-48.52294921875
-41.19873046875
-36.62109375
-35.70556640625
-41.19873046875
-47.607421875
-52.18505859375
-54.931640625
-57.67822265625
-59.50927734375
-55.84716796875
-56.7626953125
-51.26953125
-42.1142578125
-42.1142578125
-44.86083984375
-36.62109375
-46.69189453125
-45.7763671875
-47.607421875
-56.7626953125
-55.84716796875
-54.01611328125
-56.7626953125
-52.18505859375
-53.1005859375
-63.17138671875
-70.49560546875
-74.15771484375
-69.580078125
-64.0869140625
-65.00244140625
-62.255859375
-60.4248046875
-57.67822265625
-61.34033203125
-62.255859375
-62.255859375
-65.00244140625
-62.255859375
-71.4111328125
-67.7490234375
-65.00244140625
-62.255859375
-62.255859375
-63.17138671875
-55.84716796875
-54.01611328125
-54.01611328125
-58.59375
-58.59375
-58.59375
-65.91796875
-64.0869140625
-65.91796875
-67.7490234375
-60.4248046875
-53.1005859375
-56.7626953125
-63.17138671875
-55.84716796875
-60.4248046875
-64.0869140625
-62.255859375
-54.01611328125
-49.4384765625
-52.18505859375
-52.18505859375
-53.1005859375
-54.01611328125
-55.84716796875
-53.1005859375
-62.255859375
-65.00244140625
-65.00244140625
-54.931640625
-60.4248046875
-69.580078125
-64.0869140625
-64.0869140625
-68.66455078125
-68.66455078125
-71.4111328125
-67.7490234375
-60.4248046875
-59.50927734375
-61.34033203125
-58.59375
-66.83349609375
-62.255859375
-61.34033203125
-55.84716796875
-65.91796875
-65.00244140625
-58.59375
-61.34033203125
-64.0869140625
-65.91796875
-74.15771484375
-75.0732421875
-70.49560546875
-74.15771484375
-75.0732421875
-66.83349609375
-64.0869140625
-65.91796875
-65.91796875
-75.98876953125
-69.580078125
-65.00244140625
-65.91796875
-70.49560546875
-70.49560546875
-69.580078125
-75.98876953125
-75.0732421875
-78.7353515625
-70.49560546875
-63.17138671875
-58.59375
-50.35400390625
-54.01611328125
-65.91796875
-66.83349609375
-68.66455078125
-64.0869140625
-64.0869140625
-65.00244140625
-64.0869140625
-72.32666015625
-78.7353515625
-75.98876953125
-74.15771484375
-75.98876953125
-75.0732421875
-72.32666015625
-65.91796875
-65.00244140625
-62.255859375
-60.4248046875
-60.4248046875
-64.0869140625
-65.00244140625
-63.17138671875
-63.17138671875
-70.49560546875
-70.49560546875
-73.2421875
-72.32666015625
-68.66455078125
-70.49560546875
-73.2421875
-76.904296875
-74.15771484375
-71.4111328125
-75.0732421875
-80.56640625
-77.81982421875
-76.904296875
-71.4111328125
-68.66455078125
-60.4248046875
-68.66455078125
-73.2421875
-67.7490234375
-65.91796875
-57.67822265625
-64.0869140625
-71.4111328125
-72.32666015625
-67.7490234375
-65.00244140625
-68.66455078125
-73.2421875
-65.00244140625
-62.255859375
-56.7626953125
-62.255859375
-70.49560546875
-67.7490234375
-75.98876953125
-81.48193359375
-72.32666015625
-75.0732421875
-65.91796875
-65.91796875
-65.91796875
-67.7490234375
-66.83349609375
-54.931640625
-62.255859375
-63.17138671875
-63.17138671875
-63.17138671875
-58.59375
-64.0869140625
-70.49560546875
-74.15771484375
-73.2421875
-69.580078125
-73.2421875
-69.580078125
-67.7490234375
-63.17138671875
-59.50927734375
-68.66455078125
-67.7490234375
-60.4248046875
-61.34033203125
-62.255859375
-52.18505859375
-52.18505859375
-52.18505859375
-49.4384765625
-52.18505859375
-37.53662109375
-24.71923828125
-14.6484375
2.74658203125
5.4931640625
0
-3.662109375
-9.1552734375
-20.1416015625
-29.296875
-35.70556640625
-44.86083984375
-56.7626953125
-62.255859375
-45.7763671875
-43.02978515625
-47.607421875
-33.87451171875
-32.958984375
-34.7900390625
-39.36767578125
-44.86083984375
-54.01611328125
-52.18505859375
-57.67822265625
-61.34033203125
-65.91796875
-65.00244140625
-62.255859375
-71.4111328125
-73.2421875
-64.0869140625
-65.00244140625
-68.66455078125
-78.7353515625
-71.4111328125
-73.2421875
-68.66455078125
-81.48193359375
-73.2421875
-64.0869140625
-65.00244140625
-66.83349609375
-77.81982421875
-69.580078125
-68.66455078125
-70.49560546875
-66.83349609375
-76.904296875
-75.0732421875
-71.4111328125
-64.0869140625
-54.931640625
-41.19873046875
0.91552734375
35.70556640625
102.5390625
177.6123046875
228.8818359375
312.19482421875
413.818359375
512.6953125
592.34619140625
639.95361328125
663.75732421875
604.248046875
382.6904296875
182.18994140625
40.283203125
-44.86083984375
-69.580078125
-86.97509765625
-99.79248046875
-130.0048828125
-156.55517578125
-177.6123046875
-194.091796875
-206.9091796875
-218.81103515625
-230.712890625
-221.5576171875
-210.5712890625
-200.50048828125
-173.9501953125
-151.9775390625
-140.9912109375
-120.849609375
-97.0458984375
-86.97509765625
-68.66455078125
-51.26953125
-45.7763671875
-44.86083984375
-44.86083984375
-39.36767578125
-41.19873046875
-40.283203125
-40.283203125
-38.4521484375
-49.4384765625
-48.52294921875
-47.607421875
-45.7763671875
-34.7900390625
-26.55029296875
-20.1416015625
-32.04345703125
-41.19873046875
-45.7763671875
-42.1142578125
-47.607421875
-56.7626953125
-54.01611328125
-46.69189453125
-47.607421875
-39.36767578125
-29.296875
-30.21240234375
-30.21240234375
-23.8037109375
-27.4658203125
-32.04345703125
-36.62109375
-36.62109375
-45.7763671875
-50.35400390625
-43.9453125
-41.19873046875
-31.1279296875
-31.1279296875
-27.4658203125
-30.21240234375
-22.88818359375
-14.6484375
-16.4794921875
-20.1416015625
-20.1416015625
-15.56396484375
-17.39501953125
-21.05712890625
-17.39501953125
-13.73291015625
-14.6484375
-18.310546875
-18.310546875
-18.310546875
-10.986328125
-10.986328125
-16.4794921875
-17.39501953125
-9.1552734375
-10.07080078125
-11.90185546875
-11.90185546875
-13.73291015625
-7.32421875
-0.91552734375
-1.8310546875
5.4931640625
17.39501953125
9.1552734375
10.07080078125
14.6484375
23.8037109375
26.55029296875
24.71923828125
21.97265625
26.55029296875
30.21240234375
25.634765625
32.04345703125
32.04345703125
27.4658203125
36.62109375
40.283203125
46.69189453125
49.4384765625
54.931640625
68.66455078125
77.81982421875
73.2421875
81.48193359375
87.890625
84.228515625
94.29931640625
104.3701171875
111.6943359375
117.1875
124.51171875
126.3427734375
132.75146484375
139.16015625
138.24462890625
145.56884765625
150.146484375
160.21728515625
169.37255859375
168.45703125
177.6123046875
187.68310546875
196.83837890625
195.9228515625
200.50048828125
207.82470703125
223.388671875
228.8818359375
227.05078125
226.13525390625
236.2060546875
243.5302734375
239.8681640625
241.69921875
244.44580078125
248.10791015625
249.0234375
245.361328125
241.69921875
239.8681640625
227.05078125
216.97998046875
212.40234375
198.66943359375
190.4296875
181.2744140625
184.02099609375
170.2880859375
150.146484375
139.16015625
138.24462890625
123.59619140625
110.77880859375
102.5390625
101.62353515625
93.3837890625
76.904296875
68.66455078125
57.67822265625
44.86083984375
38.4521484375
27.4658203125
20.1416015625
10.986328125
0
-1.8310546875
-13.73291015625
-18.310546875
-10.986328125
-15.56396484375
-8.23974609375
-8.23974609375
-12.8173828125
-16.4794921875
-21.05712890625
-25.634765625
-30.21240234375
-35.70556640625
-42.1142578125
-45.7763671875
-46.69189453125
-43.9453125
-43.02978515625
-41.19873046875
-48.52294921875
-50.35400390625
-44.86083984375
-49.4384765625
-49.4384765625
-50.35400390625
-50.35400390625
-54.931640625
-49.4384765625
-54.01611328125
-55.84716796875
-51.26953125
-50.35400390625
-43.02978515625
-43.02978515625
-50.35400390625
-49.4384765625
-51.26953125
-46.69189453125
-49.4384765625
-54.931640625
-54.01611328125
-49.4384765625
-46.69189453125
-45.7763671875
-51.26953125
-50.35400390625
-43.9453125
-42.1142578125
-37.53662109375
-32.958984375
-36.62109375
-33.87451171875
-33.87451171875
-33.87451171875
-32.958984375
-32.958984375
-38.4521484375
-44.86083984375
-37.53662109375
-43.02978515625
-42.1142578125
-38.4521484375
-34.7900390625
-33.87451171875
-41.19873046875
-35.70556640625
-33.87451171875
-33.87451171875
-36.62109375
-32.04345703125
-33.87451171875
-43.9453125
-41.19873046875
-40.283203125
-44.86083984375
-39.36767578125
-37.53662109375
-38.4521484375
-41.19873046875
-47.607421875
-47.607421875
-43.9453125
-39.36767578125
-46.69189453125
-53.1005859375
-54.931640625
-51.26953125
-52.18505859375
-47.607421875
-46.69189453125
-51.26953125
-48.52294921875
-50.35400390625
-53.1005859375
-60.4248046875
-65.00244140625
-60.4248046875
-67.7490234375
-61.34033203125
-64.0869140625
-55.84716796875
-63.17138671875
-68.66455078125
-61.34033203125
-61.34033203125
-60.4248046875
-60.4248046875
-65.00244140625
-69.580078125
-72.32666015625
-64.0869140625
-63.17138671875
-68.66455078125
-60.4248046875
-56.7626953125
-54.931640625
-61.34033203125
-65.91796875
-67.7490234375
-74.15771484375
-65.91796875
-62.255859375
-64.0869140625
-70.49560546875
-62.255859375
-68.66455078125
-55.84716796875
-63.17138671875
-69.580078125
-75.98876953125
-75.98876953125
-72.32666015625
-76.904296875
-70.49560546875
-67.7490234375
-62.255859375
-54.931640625
-63.17138671875
-66.83349609375
-65.00244140625
-62.255859375
-56.7626953125
-59.50927734375
-66.83349609375
-65.91796875
-64.0869140625
-60.4248046875
-64.0869140625
-60.4248046875
-49.4384765625
-55.84716796875
-58.59375
-57.67822265625
-64.0869140625
-69.580078125
-68.66455078125
-66.83349609375
-68.66455078125
-67.7490234375
-65.91796875
-61.34033203125
-56.7626953125
-54.931640625
-65.00244140625
-60.4248046875
-66.83349609375
-61.34033203125
-67.7490234375
-72.32666015625
-69.580078125
-74.15771484375
-73.2421875
-75.0732421875
-76.904296875
-75.0732421875
-70.49560546875
-60.4248046875
-67.7490234375
-74.15771484375
-72.32666015625
-67.7490234375
-65.91796875
-67.7490234375
-78.7353515625
-76.904296875
-73.2421875
-70.49560546875
-70.49560546875
-70.49560546875
-67.7490234375
-66.83349609375
-63.17138671875
-65.91796875
-61.34033203125
-52.18505859375
-54.931640625
-64.0869140625
-63.17138671875
-63.17138671875
-60.4248046875
-67.7490234375
-70.49560546875
-65.91796875
-68.66455078125
-75.0732421875
-67.7490234375
-71.4111328125
-78.7353515625
-80.56640625
-72.32666015625
-64.0869140625
-64.0869140625
-66.83349609375
-66.83349609375
-65.91796875
-65.91796875
-55.84716796875
-45.7763671875
-55.84716796875
-63.17138671875
-68.66455078125
-71.4111328125
-67.7490234375
-65.91796875
-69.580078125
-70.49560546875
-69.580078125
-74.15771484375
-77.81982421875
-75.98876953125
-73.2421875
-66.83349609375
-65.91796875
-71.4111328125
-66.83349609375
-65.91796875
-66.83349609375
-68.66455078125
-65.00244140625
-62.255859375
-62.255859375
-63.17138671875
-63.17138671875
-59.50927734375
-65.00244140625
-62.255859375
-66.83349609375
-65.00244140625
-73.2421875
-75.98876953125
-66.83349609375
-54.01611328125
-52.18505859375
-54.931640625
-53.1005859375
-54.01611328125
-51.26953125
-53.1005859375
-56.7626953125
-53.1005859375
-56.7626953125
-56.7626953125
-62.255859375
-63.17138671875
-62.255859375
-60.4248046875
-65.00244140625
-70.49560546875
-74.15771484375
-77.81982421875
-82.3974609375
-78.7353515625
-72.32666015625
-70.49560546875
-63.17138671875
-54.931640625
-47.607421875
-47.607421875
-54.01611328125
-45.7763671875
-51.26953125
-52.18505859375
-45.7763671875
-41.19873046875
-31.1279296875
-36.62109375
-28.38134765625
-15.56396484375
-20.1416015625
-17.39501953125
-19.22607421875
-29.296875
-26.55029296875
-20.1416015625
-16.4794921875
-20.1416015625
-22.88818359375
-32.958984375
-44.86083984375
-49.4384765625
-36.62109375
-32.958984375
-38.4521484375
-24.71923828125
-26.55029296875
-30.21240234375
-43.02978515625
-49.4384765625
-49.4384765625
-48.52294921875
-52.18505859375
-61.34033203125
-60.4248046875
-62.255859375
-62.255859375
-60.4248046875
-65.91796875
-65.91796875
-71.4111328125
-69.580078125
-71.4111328125
-67.7490234375
-55.84716796875
-55.84716796875
-51.26953125
-50.35400390625
-48.52294921875
-50.35400390625
-56.7626953125
-57.67822265625
-57.67822265625
-58.59375
-65.91796875
-66.83349609375
-60.4248046875
-59.50927734375
-53.1005859375
-43.9453125
-20.1416015625
4.57763671875
13.73291015625
62.255859375
147.39990234375
221.5576171875
281.982421875
371.7041015625
475.15869140625
556.640625
618.896484375
657.3486328125
678.40576171875
547.4853515625
306.70166015625
129.08935546875
-13.73291015625
-75.0732421875
-106.201171875
-126.3427734375
-145.56884765625
-176.69677734375
-196.83837890625
-222.47314453125
-239.8681640625
-243.5302734375
-236.2060546875
-229.79736328125
-210.5712890625
-186.767578125
-151.06201171875
-138.24462890625
-117.1875
-91.552734375
-73.2421875
-70.49560546875
-55.84716796875
-39.36767578125
-40.283203125
-32.04345703125
-32.958984375
-31.1279296875
-34.7900390625
-34.7900390625
-32.04345703125
-41.19873046875
-32.04345703125
-28.38134765625
-24.71923828125
-23.8037109375
-30.21240234375
-21.97265625
-8.23974609375
-10.07080078125
-15.56396484375
-11.90185546875
-9.1552734375
-12.8173828125
-20.1416015625
-11.90185546875
-10.07080078125
-15.56396484375
-19.22607421875
-8.23974609375
-17.39501953125
-21.05712890625
-11.90185546875
-9.1552734375
8.23974609375
-0.91552734375
-12.8173828125
-9.1552734375
-10.07080078125
-5.4931640625
-7.32421875
-14.6484375
-19.22607421875
-14.6484375
-19.22607421875
-16.4794921875
-12.8173828125
-12.8173828125
-10.986328125
-8.23974609375
-3.662109375
-4.57763671875
-9.1552734375
-10.07080078125
-10.07080078125
-12.8173828125
-10.986328125
-12.8173828125
-14.6484375
-7.32421875
1.8310546875
10.07080078125
16.4794921875
18.310546875
19.22607421875
16.4794921875
15.56396484375
13.73291015625
20.1416015625
29.296875
20.1416015625
25.634765625
27.4658203125
33.87451171875
39.36767578125
44.86083984375
43.9453125
46.69189453125
44.86083984375
43.9453125
51.26953125
56.7626953125
62.255859375
69.580078125
74.15771484375
81.48193359375
77.81982421875
85.14404296875
79.65087890625
75.98876953125
80.56640625
94.29931640625
96.13037109375
101.62353515625
100.7080078125
103.45458984375
109.86328125
114.44091796875
116.27197265625
116.27197265625
124.51171875
122.6806640625
122.6806640625
135.498046875
140.9912109375
148.3154296875
163.87939453125
168.45703125
176.69677734375
180.35888671875
187.68310546875
194.091796875
205.078125
221.5576171875
223.388671875
225.2197265625
234.375
249.93896484375
254.5166015625
256.34765625
268.24951171875
277.40478515625
271.91162109375
273.74267578125
275.57373046875
269.1650390625
272.8271484375
274.658203125
270.08056640625
265.5029296875
269.1650390625
267.333984375
259.09423828125
259.09423828125
242.61474609375
238.95263671875
238.95263671875
222.47314453125
206.9091796875
197.75390625
184.9365234375
174.86572265625
172.119140625
158.38623046875
150.146484375
140.07568359375
126.3427734375
114.44091796875
108.0322265625
97.0458984375
83.31298828125
77.81982421875
60.4248046875
57.67822265625
49.4384765625
45.7763671875
38.4521484375
21.97265625
17.39501953125
10.07080078125
3.662109375
-1.8310546875
-5.4931640625
-6.40869140625
-6.40869140625
-8.23974609375
-19.22607421875
-25.634765625
-32.958984375
-37.53662109375
-32.958984375
-32.958984375
-36.62109375
-37.53662109375
-33.87451171875
-47.607421875
-44.86083984375
-42.1142578125
-41.19873046875
-40.283203125
-24.71923828125
-17.39501953125
-19.22607421875
-10.07080078125
-21.97265625
-22.88818359375
-23.8037109375
-28.38134765625
-28.38134765625
-23.8037109375
-18.310546875
-21.97265625
-21.97265625
-30.21240234375
-21.97265625
-24.71923828125
-28.38134765625
-25.634765625
-24.71923828125
-16.4794921875
-15.56396484375
-15.56396484375
-12.8173828125
-21.05712890625
-22.88818359375
-22.88818359375
-24.71923828125
-33.87451171875
-33.87451171875
-33.87451171875
-29.296875
-20.1416015625
-14.6484375
-10.07080078125
-21.97265625
-20.1416015625
-24.71923828125
-22.88818359375
-26.55029296875
-29.296875
-21.97265625
-25.634765625
-28.38134765625
-32.04345703125
-30.21240234375
-20.1416015625
-14.6484375
-17.39501953125
-13.73291015625
-23.8037109375
-25.634765625
-30.21240234375
-27.4658203125
-23.8037109375
-21.05712890625
-20.1416015625
-22.88818359375
-16.4794921875
-19.22607421875
-24.71923828125
-29.296875
-29.296875
-31.1279296875
-32.958984375
-34.7900390625
-32.958984375
-30.21240234375
-33.87451171875
-29.296875
-22.88818359375
-25.634765625
-24.71923828125
-24.71923828125
-26.55029296875
-26.55029296875
-41.19873046875
-35.70556640625
-24.71923828125
-30.21240234375
-42.1142578125
-38.4521484375
-52.18505859375
-54.931640625
-41.19873046875
-31.1279296875
-33.87451171875
-32.958984375
-36.62109375
-42.1142578125
-35.70556640625
-30.21240234375
-27.4658203125
-25.634765625
-28.38134765625
-29.296875
-43.9453125
-41.19873046875
-38.4521484375
-46.69189453125
-47.607421875
-47.607421875
-48.52294921875
-43.02978515625
-40.283203125
-49.4384765625
-46.69189453125
-45.7763671875
-48.52294921875
-43.9453125
-37.53662109375
-53.1005859375
-53.1005859375
-49.4384765625
-41.19873046875
-44.86083984375
-43.9453125
-41.19873046875
-38.4521484375
-42.1142578125
-45.7763671875
-43.9453125
-42.1142578125
-31.1279296875
-33.87451171875
-38.4521484375
-34.7900390625
-43.02978515625
-44.86083984375
-46.69189453125
-52.18505859375
-53.1005859375
-59.50927734375
-55.84716796875
-54.931640625
-53.1005859375
-50.35400390625
-46.69189453125
-47.607421875
-47.607421875
-35.70556640625
-32.958984375
-36.62109375
-43.9453125
-42.1142578125
-43.9453125
-52.18505859375
-43.9453125
-47.607421875
-49.4384765625
-39.36767578125
-30.21240234375
-32.958984375
-42.1142578125
-46.69189453125
-50.35400390625
-43.02978515625
-42.1142578125
-47.607421875
-39.36767578125
-42.1142578125
-48.52294921875
-55.84716796875
-61.34033203125
-60.4248046875
-51.26953125
-54.931640625
-54.01611328125
-56.7626953125
-54.01611328125
-48.52294921875
-45.7763671875
-44.86083984375
-57.67822265625
-45.7763671875
-43.9453125
-45.7763671875
-45.7763671875
-43.02978515625
-41.19873046875
-43.9453125
-43.02978515625
-47.607421875
-40.283203125
-49.4384765625
-54.931640625
-47.607421875
-44.86083984375
-44.86083984375
-45.7763671875
-52.18505859375
-50.35400390625
-49.4384765625
-48.52294921875
-50.35400390625
-48.52294921875
-42.1142578125
-52.18505859375
-56.7626953125
-56.7626953125
-54.01611328125
-49.4384765625
-47.607421875
-36.62109375
-33.87451171875
-39.36767578125
-44.86083984375
-49.4384765625
-41.19873046875
-40.283203125
-50.35400390625
-38.4521484375
-42.1142578125
-42.1142578125
-49.4384765625
-47.607421875
-49.4384765625
-44.86083984375
-41.19873046875
-43.9453125
-43.02978515625
-43.02978515625
-42.1142578125
-42.1142578125
-46.69189453125
-43.02978515625
-47.607421875
-44.86083984375
-52.18505859375
-48.52294921875
-49.4384765625
-56.7626953125
-62.255859375
-64.0869140625
-57.67822265625
-49.4384765625
-39.36767578125
-40.283203125
-39.36767578125
-38.4521484375
-34.7900390625
-41.19873046875
-37.53662109375
-40.283203125
-43.9453125
-46.69189453125
-43.9453125
-52.18505859375
-54.931640625
-49.4384765625
-51.26953125
-46.69189453125
-44.86083984375
-49.4384765625
-56.7626953125
-58.59375
-55.84716796875
-48.52294921875
-44.86083984375
-45.7763671875
-45.7763671875
-41.19873046875
-35.70556640625
-30.21240234375
-37.53662109375
-30.21240234375
-29.296875
-31.1279296875
-32.958984375
-21.05712890625
-21.97265625
-26.55029296875
-27.4658203125
-13.73291015625
-18.310546875
-21.05712890625
-4.57763671875
0.91552734375
5.4931640625
13.73291015625
11.90185546875
7.32421875
-5.4931640625
-10.986328125
-20.1416015625
-27.4658203125
-18.310546875
-12.8173828125
-13.73291015625
-22.88818359375
-19.22607421875
-18.310546875
-16.4794921875
-23.8037109375
-20.1416015625
-31.1279296875
-29.296875
-23.8037109375
-26.55029296875
-42.1142578125
-41.19873046875
-42.1142578125
-41.19873046875
-46.69189453125
-51.26953125
-59.50927734375
-65.91796875
-57.67822265625
-47.607421875
-50.35400390625
-54.931640625
-53.1005859375
-43.9453125
-40.283203125
-38.4521484375
-43.02978515625
-39.36767578125
-39.36767578125
-47.607421875
-47.607421875
-52.18505859375
-54.01611328125
-52.18505859375
-44.86083984375
-31.1279296875
-8.23974609375
20.1416015625
44.86083984375
92.46826171875
165.71044921875
239.8681640625
310.36376953125
411.07177734375
517.27294921875
606.99462890625
660.09521484375
700.37841796875
698.54736328125
517.27294921875
282.89794921875
108.0322265625
-22.88818359375
-80.56640625
-110.77880859375
-124.51171875
-139.16015625
-171.20361328125
-189.51416015625
-213.31787109375
-222.47314453125
-226.13525390625
-218.81103515625
-210.5712890625
-186.767578125
-167.54150390625
-143.73779296875
-118.10302734375
-97.96142578125
-77.81982421875
-68.66455078125
-60.4248046875
-47.607421875
-35.70556640625
-43.9453125
-36.62109375
-28.38134765625
-36.62109375
-31.1279296875
-37.53662109375
-42.1142578125
-26.55029296875
-25.634765625
-28.38134765625
-28.38134765625
-26.55029296875
-23.8037109375
-13.73291015625
-5.4931640625
-11.90185546875
-10.07080078125
-7.32421875
-18.310546875
-9.1552734375
-5.4931640625
-11.90185546875
-21.97265625
-21.05712890625
-16.4794921875
-20.1416015625
-13.73291015625
-7.32421875
-10.07080078125
-7.32421875
-16.4794921875
-13.73291015625
-10.07080078125
-15.56396484375
-21.05712890625
-19.22607421875
-15.56396484375
-14.6484375
-13.73291015625
-19.22607421875
-16.4794921875
-7.32421875
-1.8310546875
-1.8310546875
-16.4794921875
-15.56396484375
-12.8173828125
-10.986328125
-16.4794921875
-19.22607421875
-19.22607421875
-10.07080078125
-10.986328125
-7.32421875
-5.4931640625
-11.90185546875
-11.90185546875
-9.1552734375
2.74658203125
-0.91552734375
-10.07080078125
-7.32421875
-3.662109375
0.91552734375
0
2.74658203125
6.40869140625
12.8173828125
16.4794921875
22.88818359375
25.634765625
32.958984375
28.38134765625
24.71923828125
20.1416015625
35.70556640625
32.04345703125
36.62109375
38.4521484375
34.7900390625
43.02978515625
47.607421875
51.26953125
60.4248046875
56.7626953125
63.17138671875
66.83349609375
73.2421875
78.7353515625
74.15771484375
79.65087890625
84.228515625
93.3837890625
97.96142578125
99.79248046875
98.876953125
108.94775390625
108.94775390625
115.3564453125
127.25830078125
133.6669921875
132.75146484375
142.822265625
154.72412109375
161.1328125
165.71044921875
170.2880859375
183.10546875
200.50048828125
205.99365234375
206.9091796875
216.064453125
219.7265625
228.8818359375
232.5439453125
237.12158203125
237.12158203125
248.10791015625
260.92529296875
255.43212890625
250.8544921875
250.8544921875
259.09423828125
258.1787109375
259.09423828125
259.09423828125
255.43212890625
244.44580078125
242.61474609375
234.375
226.13525390625
216.064453125
212.40234375
205.99365234375
195.00732421875
180.35888671875
175.78125
171.20361328125
