ECG
-105.28564453125
-98.876953125
-101.62353515625
-99.79248046875
-104.3701171875
-102.5390625
-91.552734375
-78.7353515625
-65.00244140625
-72.32666015625
-77.81982421875
-71.4111328125
-57.67822265625
-24.71923828125
32.04345703125
106.201171875
206.9091796875
302.1240234375
409.24072265625
570.37353515625
769.95849609375
873.4130859375
873.4130859375
922.8515625
997.00927734375
1011.65771484375
1031.79931640625
1017.15087890625
965.88134765625
881.65283203125
731.50634765625
546.56982421875
349.7314453125
184.9365234375
54.931640625
-11.90185546875
-38.4521484375
-36.62109375
-31.1279296875
-41.19873046875
-49.4384765625
-49.4384765625
-48.52294921875
-33.87451171875
-21.05712890625
-8.23974609375
0
2.74658203125
5.4931640625
1.8310546875
-0.91552734375
-3.662109375
-8.23974609375
-10.07080078125
-5.4931640625
-7.32421875
-8.23974609375
-20.1416015625
-15.56396484375
-21.97265625
-24.71923828125
-19.22607421875
-22.88818359375
-19.22607421875
-13.73291015625
-15.56396484375
-24.71923828125
-12.8173828125
-11.90185546875
-14.6484375
-16.4794921875
-5.4931640625
-7.32421875
-10.986328125
-10.07080078125
-8.23974609375
-4.57763671875
-18.310546875
-16.4794921875
-12.8173828125
-4.57763671875
-1.8310546875
3.662109375
7.32421875
6.40869140625
10.07080078125
4.57763671875
16.4794921875
17.39501953125
16.4794921875
15.56396484375
18.310546875
26.55029296875
29.296875
29.296875
29.296875
18.310546875
25.634765625
33.87451171875
36.62109375
34.7900390625
43.9453125
36.62109375
41.19873046875
53.1005859375
62.255859375
57.67822265625
50.35400390625
54.01611328125
59.50927734375
64.0869140625
65.00244140625
64.0869140625
71.4111328125
77.81982421875
74.15771484375
75.98876953125
84.228515625
81.48193359375
90.63720703125
85.14404296875
88.80615234375
91.552734375
108.0322265625
110.77880859375
111.6943359375
119.0185546875
123.59619140625
130.0048828125
140.07568359375
140.9912109375
136.41357421875
146.484375
153.80859375
159.3017578125
165.71044921875
173.03466796875
182.18994140625
181.2744140625
175.78125
181.2744140625
184.9365234375
191.34521484375
192.2607421875
200.50048828125
202.33154296875
207.82470703125
214.2333984375
216.064453125
217.8955078125
220.64208984375
220.64208984375
236.2060546875
233.45947265625
227.05078125
230.712890625
227.96630859375
225.2197265625
219.7265625
218.81103515625
211.48681640625
205.99365234375
199.5849609375
186.767578125
172.119140625
167.54150390625
151.9775390625
134.58251953125
122.6806640625
111.6943359375
102.5390625
92.46826171875
81.48193359375
72.32666015625
60.4248046875
44.86083984375
36.62109375
30.21240234375
21.97265625
6.40869140625
-6.40869140625
0.91552734375
-1.8310546875
-12.8173828125
-22.88818359375
-35.70556640625
-27.4658203125
-27.4658203125
-35.70556640625
-37.53662109375
-44.86083984375
-49.4384765625
-46.69189453125
-53.1005859375
-55.84716796875
-54.01611328125
-57.67822265625
-61.34033203125
-64.0869140625
-64.0869140625
-68.66455078125
-68.66455078125
-70.49560546875
-65.00244140625
-72.32666015625
-70.49560546875
-68.66455078125
-65.91796875
-67.7490234375
-69.580078125
-65.91796875
-66.83349609375
-73.2421875
-76.904296875
-75.98876953125
-80.56640625
-76.904296875
-74.15771484375
-73.2421875
-71.4111328125
-68.66455078125
-64.0869140625
-69.580078125
-75.98876953125
-70.49560546875
-65.00244140625
-63.17138671875
-62.255859375
-65.91796875
-59.50927734375
-57.67822265625
-59.50927734375
-64.0869140625
-58.59375
-57.67822265625
-57.67822265625
-65.91796875
-61.34033203125
-57.67822265625
-53.1005859375
-65.00244140625
-70.49560546875
-68.66455078125
-65.91796875
-66.83349609375
-61.34033203125
-50.35400390625
-47.607421875
-50.35400390625
-43.9453125
-43.9453125
-40.283203125
-41.19873046875
-46.69189453125
-43.02978515625
-43.02978515625
-55.84716796875
-54.01611328125
-52.18505859375
-43.02978515625
-43.02978515625
-51.26953125
-54.931640625
-48.52294921875
-49.4384765625
-48.52294921875
-50.35400390625
-42.1142578125
-43.9453125
-38.4521484375
-52.18505859375
-53.1005859375
-57.67822265625
-56.7626953125
-53.1005859375
-54.01611328125
-56.7626953125
-54.931640625
-55.84716796875
-59.50927734375
-61.34033203125
-64.0869140625
-56.7626953125
-60.4248046875
-68.66455078125
-69.580078125
-55.84716796875
-63.17138671875
-65.91796875
-71.4111328125
-66.83349609375
-61.34033203125
-61.34033203125
-60.4248046875
-65.00244140625
-65.00244140625
-64.0869140625
-68.66455078125
-65.00244140625
-66.83349609375
-68.66455078125
-66.83349609375
-66.83349609375
-71.4111328125
-65.00244140625
-66.83349609375
-70.49560546875
-72.32666015625
-69.580078125
-67.7490234375
-67.7490234375
-67.7490234375
-66.83349609375
-65.91796875
-66.83349609375
-77.81982421875
-74.15771484375
-78.7353515625
-75.98876953125
-73.2421875
-69.580078125
-65.91796875
-67.7490234375
-73.2421875
-71.4111328125
-67.7490234375
-75.98876953125
-66.83349609375
-60.4248046875
-67.7490234375
-65.00244140625
-68.66455078125
-75.98876953125
-65.00244140625
-47.607421875
-53.1005859375
-49.4384765625
-48.52294921875
-54.931640625
-51.26953125
-43.02978515625
-40.283203125
-42.1142578125
-35.70556640625
-36.62109375
-41.19873046875
-38.4521484375
-35.70556640625
-47.607421875
-53.1005859375
-43.02978515625
-45.7763671875
-41.19873046875
-34.7900390625
-36.62109375
-33.87451171875
-34.7900390625
-34.7900390625
-33.87451171875
-40.283203125
-36.62109375
-43.9453125
-43.02978515625
-43.9453125
-43.02978515625
-36.62109375
-25.634765625
-23.8037109375
-22.88818359375
-36.62109375
-39.36767578125
-45.7763671875
-46.69189453125
-42.1142578125
-40.283203125
-49.4384765625
-54.931640625
-57.67822265625
-70.49560546875
-74.15771484375
-77.81982421875
-86.0595703125
-98.876953125
-92.46826171875
-87.890625
-92.46826171875
-99.79248046875
-95.21484375
-92.46826171875
-88.80615234375
-87.890625
-90.63720703125
-86.0595703125
-86.0595703125
-90.63720703125
-89.7216796875
-89.7216796875
-93.3837890625
-92.46826171875
-87.890625
-94.29931640625
-91.552734375
-92.46826171875
-89.7216796875
-90.63720703125
-89.7216796875
-85.14404296875
-93.3837890625
-89.7216796875
-87.890625
-92.46826171875
-92.46826171875
-82.3974609375
-94.29931640625
-105.28564453125
-97.96142578125
-97.96142578125
-85.14404296875
-86.97509765625
-82.3974609375
-80.56640625
-86.0595703125
-80.56640625
-81.48193359375
-84.228515625
-91.552734375
-86.0595703125
-86.0595703125
-84.228515625
-86.0595703125
-85.14404296875
-94.29931640625
-86.97509765625
-62.255859375
-48.52294921875
-46.69189453125
-47.607421875
-44.86083984375
-38.4521484375
-37.53662109375
-12.8173828125
61.34033203125
147.39990234375
237.12158203125
332.33642578125
444.03076171875
624.3896484375
826.72119140625
911.865234375
918.27392578125
979.6142578125
1045.5322265625
1067.5048828125
1084.89990234375
1062.92724609375
1005.2490234375
892.63916015625
742.49267578125
557.55615234375
357.97119140625
183.10546875
48.52294921875
-17.39501953125
-27.4658203125
-32.04345703125
-30.21240234375
-36.62109375
-42.1142578125
-33.87451171875
-19.22607421875
0
7.32421875
26.55029296875
33.87451171875
20.1416015625
20.1416015625
23.8037109375
28.38134765625
22.88818359375
9.1552734375
0
4.57763671875
0.91552734375
3.662109375
9.1552734375
7.32421875
1.8310546875
4.57763671875
7.32421875
-7.32421875
-0.91552734375
0.91552734375
4.57763671875
9.1552734375
6.40869140625
4.57763671875
7.32421875
10.986328125
12.8173828125
14.6484375
8.23974609375
9.1552734375
12.8173828125
20.1416015625
19.22607421875
16.4794921875
23.8037109375
23.8037109375
32.04345703125
27.4658203125
18.310546875
28.38134765625
33.87451171875
34.7900390625
41.19873046875
36.62109375
35.70556640625
41.19873046875
47.607421875
43.9453125
32.04345703125
40.283203125
48.52294921875
50.35400390625
46.69189453125
43.9453125
47.607421875
48.52294921875
64.0869140625
66.83349609375
62.255859375
62.255859375
72.32666015625
59.50927734375
71.4111328125
83.31298828125
90.63720703125
91.552734375
81.48193359375
85.14404296875
86.97509765625
95.21484375
101.62353515625
97.0458984375
106.201171875
109.86328125
111.6943359375
119.0185546875
128.173828125
134.58251953125
132.75146484375
127.25830078125
130.92041015625
146.484375
158.38623046875
162.04833984375
158.38623046875
170.2880859375
167.54150390625
166.6259765625
184.02099609375
192.2607421875
184.02099609375
194.091796875
207.82470703125
210.5712890625
214.2333984375
223.388671875
219.7265625
217.8955078125
229.79736328125
236.2060546875
241.69921875
242.61474609375
242.61474609375
254.5166015625
245.361328125
248.10791015625
250.8544921875
254.5166015625
247.1923828125
260.92529296875
249.0234375
249.0234375
246.27685546875
243.5302734375
240.78369140625
232.5439453125
231.62841796875
226.13525390625
201.416015625
185.85205078125
176.69677734375
176.69677734375
161.1328125
146.484375
135.498046875
117.1875
107.11669921875
100.7080078125
90.63720703125
80.56640625
74.15771484375
61.34033203125
56.7626953125
41.19873046875
32.958984375
18.310546875
11.90185546875
7.32421875
-3.662109375
2.74658203125
-13.73291015625
-26.55029296875
-24.71923828125
-20.1416015625
-19.22607421875
-14.6484375
-23.8037109375
-39.36767578125
-41.19873046875
-37.53662109375
-37.53662109375
-45.7763671875
-43.9453125
-49.4384765625
-49.4384765625
-44.86083984375
-51.26953125
-46.69189453125
-46.69189453125
-44.86083984375
-45.7763671875
-43.02978515625
-48.52294921875
-47.607421875
-42.1142578125
-44.86083984375
-50.35400390625
-47.607421875
-48.52294921875
-51.26953125
-46.69189453125
-42.1142578125
-44.86083984375
-46.69189453125
-43.9453125
-47.607421875
-50.35400390625
-47.607421875
-46.69189453125
-52.18505859375
-43.02978515625
-46.69189453125
-52.18505859375
-43.9453125
-37.53662109375
-39.36767578125
-38.4521484375
-35.70556640625
-40.283203125
-35.70556640625
-32.958984375
-42.1142578125
-40.283203125
-38.4521484375
-35.70556640625
-32.04345703125
-34.7900390625
-34.7900390625
-28.38134765625
-29.296875
-34.7900390625
-31.1279296875
-32.04345703125
-29.296875
-32.958984375
-32.958984375
-24.71923828125
-31.1279296875
-31.1279296875
-35.70556640625
-26.55029296875
-27.4658203125
-40.283203125
-39.36767578125
-24.71923828125
-31.1279296875
-41.19873046875
-42.1142578125
-32.958984375
-30.21240234375
-29.296875
-29.296875
-27.4658203125
-29.296875
-27.4658203125
-34.7900390625
-35.70556640625
-39.36767578125
-33.87451171875
-34.7900390625
-37.53662109375
-39.36767578125
-41.19873046875
-40.283203125
-42.1142578125
-54.931640625
-49.4384765625
-36.62109375
-42.1142578125
-35.70556640625
-43.9453125
-46.69189453125
-45.7763671875
-43.02978515625
-41.19873046875
-45.7763671875
-44.86083984375
-45.7763671875
-46.69189453125
-42.1142578125
-41.19873046875
-52.18505859375
-57.67822265625
-54.931640625
-52.18505859375
-50.35400390625
-45.7763671875
-45.7763671875
-45.7763671875
-50.35400390625
-51.26953125
-54.01611328125
-52.18505859375
-49.4384765625
-50.35400390625
-45.7763671875
-43.9453125
-50.35400390625
-48.52294921875
-49.4384765625
-49.4384765625
-53.1005859375
-56.7626953125
-50.35400390625
-55.84716796875
-52.18505859375
-54.01611328125
-56.7626953125
-54.01611328125
-50.35400390625
-57.67822265625
-55.84716796875
-52.18505859375
-46.69189453125
-52.18505859375
-54.931640625
-46.69189453125
-48.52294921875
-54.01611328125
-53.1005859375
-53.1005859375
-56.7626953125
-59.50927734375
-52.18505859375
-53.1005859375
-49.4384765625
-43.9453125
-48.52294921875
-51.26953125
-46.69189453125
-43.9453125
-57.67822265625
-65.00244140625
-32.958984375
-20.1416015625
-24.71923828125
-27.4658203125
-21.97265625
-7.32421875
-14.6484375
-4.57763671875
-4.57763671875
-2.74658203125
0
-10.07080078125
-23.8037109375
-24.71923828125
-10.986328125
-7.32421875
-13.73291015625
0
-10.986328125
-1.8310546875
12.8173828125
-6.40869140625
-15.56396484375
-10.07080078125
-2.74658203125
-3.662109375
-12.8173828125
-25.634765625
-30.21240234375
-24.71923828125
-17.39501953125
-14.6484375
-5.4931640625
-7.32421875
-1.8310546875
-2.74658203125
-10.07080078125
-12.8173828125
-15.56396484375
-23.8037109375
-34.7900390625
-32.958984375
-36.62109375
-35.70556640625
-47.607421875
-58.59375
-60.4248046875
-61.34033203125
-67.7490234375
-71.4111328125
-72.32666015625
-75.98876953125
-71.4111328125
-73.2421875
-78.7353515625
-77.81982421875
-67.7490234375
-62.255859375
-58.59375
-65.00244140625
-64.0869140625
-65.91796875
-70.49560546875
-67.7490234375
-68.66455078125
-68.66455078125
-76.904296875
-79.65087890625
-70.49560546875
-67.7490234375
-65.91796875
-68.66455078125
-60.4248046875
-64.0869140625
-67.7490234375
-65.91796875
-64.0869140625
-54.931640625
-66.83349609375
-70.49560546875
-64.0869140625
-54.01611328125
-59.50927734375
-54.931640625
-44.86083984375
-42.1142578125
-47.607421875
-52.18505859375
-54.01611328125
-50.35400390625
-49.4384765625
-46.69189453125
-45.7763671875
-46.69189453125
-48.52294921875
-47.607421875
-54.01611328125
-54.01611328125
-41.19873046875
-25.634765625
-17.39501953125
-16.4794921875
-16.4794921875
-2.74658203125
-4.57763671875
29.296875
96.13037109375
176.69677734375
270.08056640625
359.80224609375
466.00341796875
630.79833984375
830.38330078125
913.6962890625
921.0205078125
986.9384765625
1041.8701171875
1074.8291015625
1091.30859375
1077.57568359375
1049.1943359375
955.810546875
807.4951171875
614.31884765625
411.9873046875
244.44580078125
88.80615234375
14.6484375
0.91552734375
0.91552734375
-3.662109375
-19.22607421875
-10.07080078125
-10.07080078125
1.8310546875
18.310546875
34.7900390625
48.52294921875
49.4384765625
43.02978515625
43.02978515625
47.607421875
49.4384765625
39.36767578125
29.296875
35.70556640625
29.296875
20.1416015625
25.634765625
29.296875
23.8037109375
19.22607421875
17.39501953125
18.310546875
12.8173828125
17.39501953125
23.8037109375
31.1279296875
32.958984375
26.55029296875
26.55029296875
28.38134765625
33.87451171875
35.70556640625
35.70556640625
29.296875
35.70556640625
29.296875
36.62109375
39.36767578125
27.4658203125
32.04345703125
32.04345703125
31.1279296875
34.7900390625
44.86083984375
43.9453125
44.86083984375
45.7763671875
43.02978515625
41.19873046875
44.86083984375
48.52294921875
46.69189453125
44.86083984375
47.607421875
51.26953125
54.931640625
58.59375
62.255859375
66.83349609375
65.00244140625
72.32666015625
70.49560546875
66.83349609375
66.83349609375
75.0732421875
75.98876953125
65.00244140625
71.4111328125
78.7353515625
87.890625
90.63720703125
88.80615234375
93.3837890625
101.62353515625
93.3837890625
104.3701171875
108.0322265625
116.27197265625
126.3427734375
130.0048828125
127.25830078125
127.25830078125
131.8359375
139.16015625
145.56884765625
141.90673828125
151.06201171875
161.1328125
161.1328125
166.6259765625
170.2880859375
173.9501953125
178.52783203125
182.18994140625
191.34521484375
197.75390625
207.82470703125
205.078125
215.14892578125
219.7265625
221.5576171875
224.30419921875
239.8681640625
237.12158203125
239.8681640625
246.27685546875
260.92529296875
257.26318359375
258.1787109375
256.34765625
262.75634765625
258.1787109375
255.43212890625
260.009765625
261.8408203125
265.5029296875
275.57373046875
279.23583984375
274.658203125
270.99609375
271.91162109375
257.26318359375
246.27685546875
231.62841796875
222.47314453125
205.99365234375
199.5849609375
185.85205078125
166.6259765625
162.9638671875
146.484375
131.8359375
118.10302734375
107.11669921875
87.890625
86.0595703125
89.7216796875
70.49560546875
52.18505859375
51.26953125
40.283203125
32.04345703125
21.05712890625
12.8173828125
7.32421875
8.23974609375
6.40869140625
6.40869140625
-5.4931640625
-14.6484375
-11.90185546875
-19.22607421875
-21.05712890625
-28.38134765625
-30.21240234375
-27.4658203125
-36.62109375
-46.69189453125
-39.36767578125
-37.53662109375
-36.62109375
-36.62109375
-30.21240234375
-33.87451171875
-36.62109375
-37.53662109375
-43.02978515625
-41.19873046875
-38.4521484375
-43.9453125
-44.86083984375
-44.86083984375
-43.02978515625
-43.02978515625
-36.62109375
-51.26953125
-49.4384765625
-54.01611328125
-48.52294921875
-44.86083984375
-36.62109375
-38.4521484375
-42.1142578125
-37.53662109375
-49.4384765625
-44.86083984375
-37.53662109375
-39.36767578125
-36.62109375
-40.283203125
-39.36767578125
-33.87451171875
-36.62109375
-37.53662109375
-42.1142578125
-44.86083984375
-36.62109375
-36.62109375
-33.87451171875
-39.36767578125
-32.958984375
-34.7900390625
-41.19873046875
-32.04345703125
-16.4794921875
-27.4658203125
-36.62109375
-40.283203125
-28.38134765625
-25.634765625
-21.97265625
-30.21240234375
-32.958984375
-28.38134765625
-31.1279296875
-34.7900390625
-32.04345703125
-36.62109375
-31.1279296875
-35.70556640625
-30.21240234375
-26.55029296875
-29.296875
-27.4658203125
-27.4658203125
-28.38134765625
-26.55029296875
-24.71923828125
-21.05712890625
-27.4658203125
-32.04345703125
-30.21240234375
-29.296875
-29.296875
-28.38134765625
-32.958984375
-37.53662109375
-32.958984375
-32.04345703125
-35.70556640625
-35.70556640625
-36.62109375
-38.4521484375
-37.53662109375
-38.4521484375
-36.62109375
-41.19873046875
-43.9453125
-47.607421875
-43.9453125
-40.283203125
-37.53662109375
-40.283203125
-43.9453125
-46.69189453125
-53.1005859375
-41.19873046875
-44.86083984375
-47.607421875
-44.86083984375
-38.4521484375
-40.283203125
-44.86083984375
-47.607421875
-50.35400390625
-43.02978515625
-46.69189453125
-47.607421875
-47.607421875
-52.18505859375
-54.01611328125
-50.35400390625
-44.86083984375
-48.52294921875
-53.1005859375
-48.52294921875
-53.1005859375
-55.84716796875
-53.1005859375
-41.19873046875
-40.283203125
-46.69189453125
-51.26953125
-52.18505859375
-51.26953125
-43.02978515625
-43.02978515625
-40.283203125
-32.04345703125
-36.62109375
-36.62109375
-30.21240234375
-27.4658203125
-21.97265625
-12.8173828125
-15.56396484375
-13.73291015625
-27.4658203125
-24.71923828125
-26.55029296875
-23.8037109375
-24.71923828125
-32.958984375
-35.70556640625
-34.7900390625
-29.296875
-14.6484375
-2.74658203125
-1.8310546875
-6.40869140625
-9.1552734375
-8.23974609375
-11.90185546875
-9.1552734375
-23.8037109375
-25.634765625
-23.8037109375
-21.05712890625
-18.310546875
-9.1552734375
-9.1552734375
-15.56396484375
-11.90185546875
-10.07080078125
-20.1416015625
-24.71923828125
-26.55029296875
-32.958984375
-39.36767578125
-46.69189453125
-44.86083984375
-58.59375
-64.0869140625
-62.255859375
-63.17138671875
-71.4111328125
-76.904296875
-75.0732421875
-74.15771484375
-75.98876953125
-78.7353515625
-87.890625
-79.65087890625
-67.7490234375
-68.66455078125
-68.66455078125
-70.49560546875
-74.15771484375
-75.98876953125
-80.56640625
-77.81982421875
-74.15771484375
-75.98876953125
-80.56640625
-75.0732421875
-74.15771484375
-75.98876953125
-77.81982421875
-68.66455078125
-65.91796875
-68.66455078125
-70.49560546875
-71.4111328125
-74.15771484375
-74.15771484375
-81.48193359375
-75.98876953125
-75.0732421875
-82.3974609375
-69.580078125
-70.49560546875
-70.49560546875
-65.91796875
-66.83349609375
-65.00244140625
-65.91796875
-66.83349609375
-67.7490234375
-71.4111328125
-71.4111328125
-67.7490234375
-56.7626953125
-59.50927734375
-55.84716796875
-62.255859375
-69.580078125
-59.50927734375
-41.19873046875
-26.55029296875
-28.38134765625
-34.7900390625
-36.62109375
-20.1416015625
-7.32421875
26.55029296875
97.96142578125
182.18994140625
285.64453125
367.12646484375
489.80712890625
675.6591796875
860.595703125
921.93603515625
936.58447265625
1013.48876953125
1067.5048828125
1083.984375
1091.30859375
1068.42041015625
1013.48876953125
897.216796875
727.84423828125
531.005859375
334.16748046875
177.6123046875
54.01611328125
-13.73291015625
-7.32421875
4.57763671875
-2.74658203125
-20.1416015625
-17.39501953125
-13.73291015625
8.23974609375
24.71923828125
28.38134765625
39.36767578125
41.19873046875
45.7763671875
36.62109375
32.04345703125
32.04345703125
22.88818359375
21.05712890625
27.4658203125
32.04345703125
29.296875
22.88818359375
22.88818359375
19.22607421875
24.71923828125
19.22607421875
18.310546875
6.40869140625
28.38134765625
32.04345703125
20.1416015625
21.97265625
19.22607421875
13.73291015625
23.8037109375
23.8037109375
25.634765625
21.05712890625
29.296875
28.38134765625
27.4658203125
30.21240234375
33.87451171875
30.21240234375
26.55029296875
26.55029296875
26.55029296875
34.7900390625
39.36767578125
30.21240234375
40.283203125
37.53662109375
45.7763671875
53.1005859375
51.26953125
57.67822265625
48.52294921875
39.36767578125
45.7763671875
48.52294921875
55.84716796875
59.50927734375
56.7626953125
54.01611328125
65.00244140625
56.7626953125
68.66455078125
77.81982421875
82.3974609375
79.65087890625
81.48193359375
74.15771484375
74.15771484375
72.32666015625
79.65087890625
80.56640625
75.98876953125
79.65087890625
92.46826171875
109.86328125
108.94775390625
113.525390625
123.59619140625
134.58251953125
131.8359375
129.08935546875
117.1875
126.3427734375
139.16015625
149.23095703125
149.23095703125
146.484375
150.146484375
162.9638671875
171.20361328125
177.6123046875
174.86572265625
182.18994140625
188.5986328125
196.83837890625
201.416015625
202.33154296875
204.16259765625
200.50048828125
209.65576171875
216.064453125
223.388671875
224.30419921875
234.375
244.44580078125
240.78369140625
240.78369140625
243.5302734375
246.27685546875
251.77001953125
250.8544921875
243.5302734375
257.26318359375
249.0234375
239.8681640625
256.34765625
270.08056640625
251.77001953125
245.361328125
227.96630859375
214.2333984375
224.30419921875
201.416015625
198.66943359375
201.416015625
183.10546875
159.3017578125
151.9775390625
135.498046875
127.25830078125
108.0322265625
104.3701171875
100.7080078125
97.96142578125
86.0595703125
67.7490234375
60.4248046875
60.4248046875
38.4521484375
25.634765625
21.05712890625
15.56396484375
4.57763671875
5.4931640625
-1.8310546875
-8.23974609375
-11.90185546875
-8.23974609375
-15.56396484375
-19.22607421875
-25.634765625
-27.4658203125
-32.04345703125
-37.53662109375
-40.283203125
-40.283203125
-38.4521484375
-35.70556640625
-29.296875
-33.87451171875
-39.36767578125
-34.7900390625
-49.4384765625
-54.931640625
-54.931640625
-51.26953125
-44.86083984375
-42.1142578125
-41.19873046875
-50.35400390625
-45.7763671875
-49.4384765625
-54.931640625
-50.35400390625
-43.9453125
-48.52294921875
-49.4384765625
-46.69189453125
-35.70556640625
-39.36767578125
-32.04345703125
-52.18505859375
-58.59375
-50.35400390625
-54.931640625
-48.52294921875
-32.04345703125
-21.97265625
-30.21240234375
-37.53662109375
-38.4521484375
-35.70556640625
-32.04345703125
-37.53662109375
-38.4521484375
-41.19873046875
-38.4521484375
-32.958984375
-43.9453125
-32.958984375
-32.958984375
-19.22607421875
-16.4794921875
-16.4794921875
-22.88818359375
-30.21240234375
-26.55029296875
-21.97265625
-22.88818359375
-18.310546875
-22.88818359375
-26.55029296875
-34.7900390625
-35.70556640625
-33.87451171875
-29.296875
-25.634765625
-26.55029296875
-32.04345703125
-30.21240234375
-27.4658203125
-35.70556640625
-37.53662109375
-26.55029296875
-22.88818359375
-23.8037109375
-28.38134765625
-34.7900390625
-30.21240234375
-29.296875
-37.53662109375
-39.36767578125
-42.1142578125
-40.283203125
-46.69189453125
-44.86083984375
-45.7763671875
-39.36767578125
-31.1279296875
-38.4521484375
-39.36767578125
-33.87451171875
-35.70556640625
-39.36767578125
-42.1142578125
-40.283203125
-49.4384765625
-47.607421875
-44.86083984375
-41.19873046875
-42.1142578125
-46.69189453125
-48.52294921875
-49.4384765625
-46.69189453125
-47.607421875
-52.18505859375
-53.1005859375
-53.1005859375
-52.18505859375
-48.52294921875
-48.52294921875
-48.52294921875
-45.7763671875
-44.86083984375
-52.18505859375
-47.607421875
-42.1142578125
-47.607421875
-51.26953125
-48.52294921875
-55.84716796875
-55.84716796875
-49.4384765625
-43.9453125
-43.02978515625
-52.18505859375
-54.01611328125
-50.35400390625
-51.26953125
-45.7763671875
-42.1142578125
-43.9453125
-47.607421875
-53.1005859375
-53.1005859375
-56.7626953125
-50.35400390625
-48.52294921875
-49.4384765625
-52.18505859375
-58.59375
-58.59375
-52.18505859375
-52.18505859375
-56.7626953125
-55.84716796875
-47.607421875
-50.35400390625
-53.1005859375
-44.86083984375
-42.1142578125
-51.26953125
-45.7763671875
-40.283203125
-35.70556640625
-38.4521484375
-40.283203125
-38.4521484375
-30.21240234375
-29.296875
-30.21240234375
-28.38134765625
-10.986328125
-4.57763671875
-12.8173828125
-16.4794921875
-21.97265625
-30.21240234375
-25.634765625
-25.634765625
-35.70556640625
-26.55029296875
-25.634765625
-23.8037109375
-25.634765625
-25.634765625
-15.56396484375
-10.07080078125
-11.90185546875
-15.56396484375
-10.986328125
-9.1552734375
-8.23974609375
-11.90185546875
-17.39501953125
-24.71923828125
-22.88818359375
-16.4794921875
-10.986328125
-9.1552734375
-10.986328125
-15.56396484375
-9.1552734375
-13.73291015625
-17.39501953125
-21.97265625
-30.21240234375
-44.86083984375
-42.1142578125
-41.19873046875
-50.35400390625
-57.67822265625
-62.255859375
-57.67822265625
-56.7626953125
-61.34033203125
-67.7490234375
-58.59375
-56.7626953125
-58.59375
-60.4248046875
-59.50927734375
-53.1005859375
-63.17138671875
-65.00244140625
-62.255859375
-54.931640625
-50.35400390625
-58.59375
-61.34033203125
-69.580078125
-65.00244140625
-65.00244140625
-63.17138671875
-57.67822265625
-59.50927734375
-65.91796875
-56.7626953125
-57.67822265625
-78.7353515625
-74.15771484375
-62.255859375
-73.2421875
-72.32666015625
-64.0869140625
-59.50927734375
-57.67822265625
-64.0869140625
-62.255859375
-71.4111328125
-62.255859375
-58.59375
-67.7490234375
-63.17138671875
-63.17138671875
-65.91796875
-67.7490234375
-65.91796875
-58.59375
-61.34033203125
-62.255859375
-65.00244140625
-65.00244140625
-71.4111328125
-72.32666015625
-68.66455078125
-54.931640625
-33.87451171875
-27.4658203125
-36.62109375
-40.283203125
-14.6484375
-4.57763671875
32.04345703125
95.21484375
173.9501953125
266.41845703125
361.63330078125
483.3984375
671.08154296875
852.35595703125
912.78076171875
932.92236328125
1012.5732421875
1065.673828125
1074.8291015625
1089.4775390625
1083.06884765625
1029.96826171875
903.62548828125
729.67529296875
537.41455078125
346.0693359375
172.119140625
32.04345703125
-20.1416015625
-29.296875
-25.634765625
-26.55029296875
-21.97265625
-25.634765625
-10.07080078125
5.4931640625
21.05712890625
37.53662109375
43.9453125
32.958984375
36.62109375
40.283203125
25.634765625
22.88818359375
21.05712890625
14.6484375
11.90185546875
9.1552734375
13.73291015625
4.57763671875
12.8173828125
8.23974609375
8.23974609375
12.8173828125
10.07080078125
5.4931640625
9.1552734375
11.90185546875
8.23974609375
-5.4931640625
8.23974609375
14.6484375
12.8173828125
5.4931640625
8.23974609375
12.8173828125
10.986328125
17.39501953125
29.296875
16.4794921875
17.39501953125
21.97265625
20.1416015625
10.986328125
24.71923828125
29.296875
25.634765625
36.62109375
38.4521484375
33.87451171875
38.4521484375
33.87451171875
35.70556640625
46.69189453125
37.53662109375
44.86083984375
43.02978515625
37.53662109375
42.1142578125
50.35400390625
51.26953125
49.4384765625
59.50927734375
61.34033203125
65.00244140625
61.34033203125
63.17138671875
66.83349609375
67.7490234375
73.2421875
70.49560546875
77.81982421875
81.48193359375
79.65087890625
84.228515625
85.14404296875
79.65087890625
82.3974609375
100.7080078125
91.552734375
96.13037109375
107.11669921875
115.3564453125
123.59619140625
125.42724609375
132.75146484375
129.08935546875
131.8359375
141.90673828125
144.6533203125
153.80859375
157.470703125
152.89306640625
153.80859375
168.45703125
173.9501953125
177.6123046875
181.2744140625
184.02099609375
195.00732421875
200.50048828125
197.75390625
206.9091796875
206.9091796875
207.82470703125
216.97998046875
229.79736328125
233.45947265625
227.96630859375
231.62841796875
246.27685546875
252.685546875
250.8544921875
251.77001953125
250.8544921875
249.93896484375
260.92529296875
269.1650390625
266.41845703125
260.92529296875
256.34765625
247.1923828125
242.61474609375
233.45947265625
226.13525390625
216.064453125
203.2470703125
200.50048828125
186.767578125
162.9638671875
161.1328125
151.9775390625
125.42724609375
118.10302734375
109.86328125
94.29931640625
84.228515625
76.904296875
71.4111328125
62.255859375
47.607421875
32.958984375
27.4658203125
22.88818359375
12.8173828125
6.40869140625
-1.8310546875
-9.1552734375
-19.22607421875
-12.8173828125
-13.73291015625
-22.88818359375
-26.55029296875
-15.56396484375
-22.88818359375
-32.04345703125
-33.87451171875
-33.87451171875
-47.607421875
-46.69189453125
-41.19873046875
-35.70556640625
-40.283203125
-53.1005859375
-52.18505859375
-53.1005859375
-57.67822265625
-46.69189453125
-46.69189453125
-51.26953125
-41.19873046875
-39.36767578125
-45.7763671875
-40.283203125
-41.19873046875
-41.19873046875
-43.02978515625
-45.7763671875
-45.7763671875
-46.69189453125
-43.9453125
-39.36767578125
-37.53662109375
-40.283203125
-35.70556640625
-36.62109375
-42.1142578125
-43.9453125
-46.69189453125
-38.4521484375
-39.36767578125
-41.19873046875
-40.283203125
-42.1142578125
-41.19873046875
-40.283203125
-41.19873046875
-43.9453125
-39.36767578125
-37.53662109375
-43.02978515625
-39.36767578125
-40.283203125
-38.4521484375
-36.62109375
-36.62109375
-39.36767578125
-43.02978515625
-42.1142578125
-42.1142578125
-28.38134765625
-28.38134765625
-35.70556640625
-36.62109375
-38.4521484375
-43.02978515625
-38.4521484375
-32.958984375
-28.38134765625
-32.04345703125
-31.1279296875
-24.71923828125
-25.634765625
-31.1279296875
-32.04345703125
-39.36767578125
-34.7900390625
-39.36767578125
-37.53662109375
-30.21240234375
-34.7900390625
-36.62109375
-40.283203125
-39.36767578125
-42.1142578125
-35.70556640625
-46.69189453125
-43.9453125
-52.18505859375
-42.1142578125
-51.26953125
-44.86083984375
-44.86083984375
-39.36767578125
-48.52294921875
-52.18505859375
-51.26953125
-45.7763671875
-54.01611328125
-61.34033203125
-53.1005859375
-46.69189453125
-53.1005859375
-50.35400390625
-45.7763671875
-45.7763671875
-51.26953125
-54.931640625
-49.4384765625
-57.67822265625
-49.4384765625
-55.84716796875
-55.84716796875
-52.18505859375
-55.84716796875
-58.59375
-52.18505859375
-50.35400390625
-47.607421875
-53.1005859375
-55.84716796875
-45.7763671875
-45.7763671875
-49.4384765625
-58.59375
-49.4384765625
-50.35400390625
-58.59375
-57.67822265625
-52.18505859375
-49.4384765625
-58.59375
-56.7626953125
-59.50927734375
-55.84716796875
-54.931640625
-57.67822265625
-53.1005859375
-56.7626953125
-56.7626953125
-54.931640625
-54.931640625
-53.1005859375
-57.67822265625
-52.18505859375
-65.00244140625
-63.17138671875
-64.0869140625
-63.17138671875
-59.50927734375
-62.255859375
-67.7490234375
-63.17138671875
-62.255859375
-66.83349609375
-69.580078125
-59.50927734375
-52.18505859375
-53.1005859375
-56.7626953125
-55.84716796875
-44.86083984375
-47.607421875
-48.52294921875
-46.69189453125
-50.35400390625
-50.35400390625
-42.1142578125
-37.53662109375
-32.04345703125
-35.70556640625
-35.70556640625
-27.4658203125
-18.310546875
-16.4794921875
-17.39501953125
-30.21240234375
-29.296875
-35.70556640625
-30.21240234375
-35.70556640625
-32.04345703125
-37.53662109375
-36.62109375
-30.21240234375
-19.22607421875
-21.05712890625
-15.56396484375
-17.39501953125
-13.73291015625
-10.986328125
-17.39501953125
-20.1416015625
-33.87451171875
-27.4658203125
-21.05712890625
-22.88818359375
-20.1416015625
-6.40869140625
-10.07080078125
-11.90185546875
-12.8173828125
-17.39501953125
-22.88818359375
-25.634765625
-35.70556640625
-34.7900390625
-48.52294921875
-49.4384765625
-48.52294921875
-54.01611328125
-64.0869140625
-73.2421875
-81.48193359375
-75.98876953125
-75.0732421875
-84.228515625
-80.56640625
-79.65087890625
-84.228515625
-87.890625
-75.98876953125
-68.66455078125
-81.48193359375
-83.31298828125
-66.83349609375
-75.0732421875
-77.81982421875
-77.81982421875
-78.7353515625
-77.81982421875
-80.56640625
-83.31298828125
-84.228515625
-85.14404296875
-83.31298828125
-79.65087890625
-81.48193359375
-77.81982421875
-80.56640625
-74.15771484375
-78.7353515625
-79.65087890625
-79.65087890625
-80.56640625
-78.7353515625
-83.31298828125
-80.56640625
-72.32666015625
-71.4111328125
-70.49560546875
-72.32666015625
-71.4111328125
-74.15771484375
-65.91796875
-68.66455078125
-71.4111328125
-69.580078125
-74.15771484375
-80.56640625
-74.15771484375
-70.49560546875
-71.4111328125
-73.2421875
-75.98876953125
-59.50927734375
-43.02978515625
-25.634765625
-27.4658203125
-30.21240234375
-34.7900390625
-19.22607421875
-7.32421875
23.8037109375
86.97509765625
172.119140625
277.40478515625
356.14013671875
471.49658203125
653.6865234375
843.20068359375
912.78076171875
926.513671875
993.34716796875
1041.8701171875
1057.43408203125
1073.91357421875
1056.5185546875
1007.99560546875
888.97705078125
727.84423828125
535.58349609375
347.900390625
175.78125
27.4658203125
-18.310546875
-21.05712890625
-20.1416015625
-28.38134765625
-32.04345703125
-28.38134765625
-15.56396484375
2.74658203125
19.22607421875
32.958984375
43.02978515625
43.9453125
41.19873046875
30.21240234375
19.22607421875
17.39501953125
21.05712890625
13.73291015625
1.8310546875
0.91552734375
6.40869140625
-0.91552734375
-0.91552734375
-3.662109375
-0.91552734375
4.57763671875
6.40869140625
7.32421875
9.1552734375
4.57763671875
2.74658203125
10.07080078125
9.1552734375
9.1552734375
10.986328125
10.986328125
9.1552734375
10.986328125
7.32421875
15.56396484375
10.986328125
13.73291015625
13.73291015625
12.8173828125
16.4794921875
14.6484375
10.986328125
18.310546875
16.4794921875
25.634765625
26.55029296875
27.4658203125
32.958984375
38.4521484375
37.53662109375
36.62109375
42.1142578125
44.86083984375
39.36767578125
37.53662109375
43.9453125
43.9453125
48.52294921875
55.84716796875
54.01611328125
52.18505859375
60.4248046875
59.50927734375
57.67822265625
61.34033203125
69.580078125
68.66455078125
70.49560546875
74.15771484375
67.7490234375
79.65087890625
84.228515625
85.14404296875
95.21484375
99.79248046875
96.13037109375
98.876953125
102.5390625
116.27197265625
114.44091796875
108.0322265625
111.6943359375
121.76513671875
126.3427734375
127.25830078125
130.92041015625
138.24462890625
141.90673828125
150.146484375
150.146484375
150.146484375
163.87939453125
161.1328125
161.1328125
172.119140625
182.18994140625
186.767578125
197.75390625
205.078125
198.66943359375
204.16259765625
210.5712890625
218.81103515625
226.13525390625
221.5576171875
227.05078125
238.95263671875
242.61474609375
243.5302734375
247.1923828125
236.2060546875
233.45947265625
243.5302734375
250.8544921875
246.27685546875
251.77001953125
254.5166015625
245.361328125
230.712890625
238.95263671875
231.62841796875
211.48681640625
203.2470703125
205.078125
187.68310546875
177.6123046875
170.2880859375
155.6396484375
145.56884765625
140.9912109375
133.6669921875
120.849609375
102.5390625
89.7216796875
81.48193359375
73.2421875
59.50927734375
43.02978515625
34.7900390625
23.8037109375
26.55029296875
21.05712890625
4.57763671875
0.91552734375
-2.74658203125
-6.40869140625
-10.07080078125
-17.39501953125
-18.310546875
-21.97265625
-30.21240234375
-34.7900390625
-41.19873046875
-42.1142578125
-32.958984375
-40.283203125
-43.9453125
-40.283203125
-40.283203125
-46.69189453125
-48.52294921875
-47.607421875
-44.86083984375
-54.01611328125
-58.59375
-56.7626953125
-54.01611328125
-47.607421875
-48.52294921875
-51.26953125
-47.607421875
-48.52294921875
-57.67822265625
-44.86083984375
-42.1142578125
-52.18505859375
-57.67822265625
-54.931640625
-41.19873046875
-48.52294921875
-53.1005859375
-49.4384765625
-48.52294921875
-55.84716796875
-48.52294921875
-43.9453125
-51.26953125
-60.4248046875
-51.26953125
-46.69189453125
-51.26953125
-38.4521484375
-42.1142578125
-45.7763671875
-43.9453125
-44.86083984375
-43.02978515625
-41.19873046875
-47.607421875
-42.1142578125
-39.36767578125
-44.86083984375
-45.7763671875
-40.283203125
-39.36767578125
-43.02978515625
-41.19873046875
-37.53662109375
-32.958984375
-32.958984375
-36.62109375
-33.87451171875
-39.36767578125
-46.69189453125
-41.19873046875
-36.62109375
-39.36767578125
-34.7900390625
-34.7900390625
-41.19873046875
-43.02978515625
-44.86083984375
-44.86083984375
-43.9453125
-41.19873046875
-41.19873046875
-41.19873046875
-43.02978515625
-52.18505859375
-51.26953125
-46.69189453125
-52.18505859375
-52.18505859375
-39.36767578125
-35.70556640625
-40.283203125
-45.7763671875
-47.607421875
-50.35400390625
-43.9453125
-41.19873046875
-44.86083984375
-47.607421875
-53.1005859375
-52.18505859375
-51.26953125
-43.9453125
-53.1005859375
-54.01611328125
-54.01611328125
-57.67822265625
-54.01611328125
-57.67822265625
-59.50927734375
-64.0869140625
-59.50927734375
-61.34033203125
-63.17138671875
-58.59375
-63.17138671875
-64.0869140625
-64.0869140625
-58.59375
-58.59375
-50.35400390625
-53.1005859375
-53.1005859375
-65.00244140625
-75.0732421875
-75.98876953125
-73.2421875
-67.7490234375
-65.00244140625
-67.7490234375
-62.255859375
-61.34033203125
-64.0869140625
-69.580078125
-68.66455078125
-63.17138671875
-56.7626953125
-59.50927734375
-57.67822265625
-60.4248046875
-66.83349609375
-75.0732421875
-74.15771484375
-71.4111328125
-70.49560546875
-73.2421875
-79.65087890625
-77.81982421875
-63.17138671875
-59.50927734375
-59.50927734375
-68.66455078125
-64.0869140625
-63.17138671875
-72.32666015625
-73.2421875
-65.00244140625
-65.91796875
-67.7490234375
-71.4111328125
-67.7490234375
-72.32666015625
-73.2421875
-75.98876953125
-71.4111328125
-75.98876953125
-69.580078125
-72.32666015625
-80.56640625
-71.4111328125
-75.98876953125
-84.228515625
-71.4111328125
-65.91796875
-73.2421875
-73.2421875
-68.66455078125
-59.50927734375
-57.67822265625
-67.7490234375
-70.49560546875
-70.49560546875
-59.50927734375
-53.1005859375
-60.4248046875
-49.4384765625
-42.1142578125
-35.70556640625
-32.04345703125
-35.70556640625
-42.1142578125
-43.02978515625
-43.02978515625
-44.86083984375
-48.52294921875
-42.1142578125
-37.53662109375
-39.36767578125
-46.69189453125
-44.86083984375
-43.9453125
-33.87451171875
-29.296875
-33.87451171875
-34.7900390625
-35.70556640625
-36.62109375
-46.69189453125
-49.4384765625
-58.59375
-52.18505859375
-32.04345703125
-28.38134765625
-30.21240234375
-35.70556640625
-33.87451171875
-42.1142578125
-32.04345703125
-32.04345703125
-43.02978515625
-52.18505859375
-62.255859375
-72.32666015625
-67.7490234375
-82.3974609375
-87.890625
-82.3974609375
-89.7216796875
-105.28564453125
-97.0458984375
-94.29931640625
-87.890625
-90.63720703125
-98.876953125
-102.5390625
-95.21484375
-86.97509765625
-84.228515625
-84.228515625
-97.96142578125
-93.3837890625
-88.80615234375
-85.14404296875
-100.7080078125
-100.7080078125
-99.79248046875
-97.96142578125
-97.96142578125
-100.7080078125
-100.7080078125
-98.876953125
-93.3837890625
-86.0595703125
-98.876953125
-91.552734375
-86.0595703125
-94.29931640625
-93.3837890625
-90.63720703125
-89.7216796875
-86.97509765625
-88.80615234375
-99.79248046875
-93.3837890625
-95.21484375
-88.80615234375
-91.552734375
-100.7080078125
-91.552734375
-91.552734375
-88.80615234375
-92.46826171875
-83.31298828125
-83.31298828125
-86.0595703125
-92.46826171875
-88.80615234375
-86.0595703125
-87.890625
-91.552734375
-81.48193359375
-60.4248046875
-54.01611328125
-55.84716796875
-65.91796875
-66.83349609375
-48.52294921875
-34.7900390625
3.662109375
79.65087890625
158.38623046875
260.009765625
344.23828125
485.2294921875
682.9833984375
833.1298828125
868.83544921875
885.31494140625
959.47265625
994.2626953125
1024.47509765625
1037.29248046875
1017.15087890625
944.82421875
821.22802734375
652.77099609375
458.67919921875
271.91162109375
121.76513671875
34.7900390625
-13.73291015625
-22.88818359375
-20.1416015625
-31.1279296875
-46.69189453125
-49.4384765625
-49.4384765625
-40.283203125
-26.55029296875
-7.32421875
4.57763671875
7.32421875
14.6484375
10.986328125
15.56396484375
4.57763671875
4.57763671875
4.57763671875
1.8310546875
-2.74658203125
-10.07080078125
-10.07080078125
-16.4794921875
-12.8173828125
-10.07080078125
-12.8173828125
-15.56396484375
-10.986328125
-13.73291015625
-23.8037109375
-21.97265625
-9.1552734375
-5.4931640625
-8.23974609375
-8.23974609375
-11.90185546875
-10.07080078125
-4.57763671875
3.662109375
6.40869140625
7.32421875
0.91552734375
-1.8310546875
-3.662109375
-10.07080078125
-2.74658203125
5.4931640625
10.07080078125
12.8173828125
9.1552734375
14.6484375
18.310546875
22.88818359375
22.88818359375
10.986328125
15.56396484375
20.1416015625
20.1416015625
18.310546875
22.88818359375
22.88818359375
29.296875
36.62109375
38.4521484375
32.958984375
35.70556640625
43.02978515625
38.4521484375
40.283203125
46.69189453125
42.1142578125
43.9453125
59.50927734375
65.00244140625
59.50927734375
69.580078125
70.49560546875
65.00244140625
62.255859375
68.66455078125
75.98876953125
80.56640625
82.3974609375
81.48193359375
88.80615234375
94.29931640625
88.80615234375
96.13037109375
107.11669921875
114.44091796875
117.1875
121.76513671875
123.59619140625
126.3427734375
136.41357421875
133.6669921875
137.3291015625
151.06201171875
155.6396484375
147.39990234375
153.80859375
157.470703125
166.6259765625
176.69677734375
177.6123046875
177.6123046875
187.68310546875
192.2607421875
195.9228515625
199.5849609375
202.33154296875
205.078125
206.9091796875
210.5712890625
219.7265625
218.81103515625
224.30419921875
219.7265625
214.2333984375
219.7265625
230.712890625
227.96630859375
227.05078125
223.388671875
216.97998046875
199.5849609375
197.75390625
191.34521484375
180.35888671875
172.119140625
155.6396484375
147.39990234375
133.6669921875
124.51171875
105.28564453125
101.62353515625
91.552734375
86.97509765625
75.98876953125
64.0869140625
53.1005859375
47.607421875
45.7763671875
39.36767578125
16.4794921875
9.1552734375
14.6484375
7.32421875
-7.32421875
-18.310546875
-20.1416015625
-21.05712890625
-22.88818359375
-22.88818359375
-30.21240234375
-41.19873046875
-40.283203125
-41.19873046875
-43.9453125
-54.01611328125
-55.84716796875
-50.35400390625
-53.1005859375
-49.4384765625
-52.18505859375
-54.931640625
-47.607421875
-54.01611328125
-58.59375
-64.0869140625
-60.4248046875
-53.1005859375
-55.84716796875
-54.931640625
-59.50927734375
-62.255859375
-63.17138671875
-59.50927734375
-56.7626953125
-59.50927734375
-65.00244140625
-59.50927734375
-50.35400390625
-57.67822265625
-58.59375
-53.1005859375
-53.1005859375
-65.91796875
-62.255859375
-52.18505859375
-47.607421875
-48.52294921875
-46.69189453125
-43.02978515625
-49.4384765625
-50.35400390625
-54.931640625
-54.931640625
-49.4384765625
-56.7626953125
-50.35400390625
-51.26953125
-55.84716796875
-52.18505859375
-43.9453125
-43.02978515625
-42.1142578125
-38.4521484375
-36.62109375
-43.9453125
-42.1142578125
-32.04345703125
-37.53662109375
-39.36767578125
-44.86083984375
-54.01611328125
-44.86083984375
-46.69189453125
-44.86083984375
-40.283203125
-58.59375
-54.931640625
-45.7763671875
-43.02978515625
-43.02978515625
-41.19873046875
-41.19873046875
-54.01611328125
-47.607421875
-45.7763671875
-53.1005859375
-43.02978515625
-44.86083984375
-48.52294921875
-48.52294921875
-58.59375
-52.18505859375
-56.7626953125
-61.34033203125
-58.59375
-56.7626953125
-57.67822265625
-53.1005859375
-51.26953125
-56.7626953125
-54.931640625
-58.59375
-60.4248046875
-59.50927734375
-55.84716796875
-57.67822265625
-65.91796875
-60.4248046875
-52.18505859375
-51.26953125
-51.26953125
-55.84716796875
-60.4248046875
-62.255859375
-69.580078125
-63.17138671875
-58.59375
-57.67822265625
-64.0869140625
-64.0869140625
-65.91796875
-73.2421875
-69.580078125
-65.91796875
-65.91796875
-63.17138671875
-63.17138671875
-72.32666015625
-68.66455078125
-52.18505859375
-63.17138671875
-75.0732421875
-65.91796875
-70.49560546875
-75.98876953125
-75.98876953125
-71.4111328125
-67.7490234375
-75.0732421875
-68.66455078125
-66.83349609375
-68.66455078125
-71.4111328125
-76.904296875
-75.0732421875
-67.7490234375
-74.15771484375
-72.32666015625
-69.580078125
-65.91796875
-64.0869140625
-68.66455078125
-68.66455078125
-73.2421875
-76.904296875
-65.91796875
-70.49560546875
-77.81982421875
-70.49560546875
-70.49560546875
-70.49560546875
-71.4111328125
-65.00244140625
-66.83349609375
-75.98876953125
-81.48193359375
-80.56640625
-73.2421875
-67.7490234375
-75.0732421875
-76.904296875
-75.98876953125
-72.32666015625
-65.00244140625
-70.49560546875
-73.2421875
-70.49560546875
-73.2421875
-72.32666015625
-71.4111328125
-75.0732421875
-72.32666015625
-65.00244140625
-71.4111328125
-69.580078125
-61.34033203125
-66.83349609375
-65.00244140625
-65.91796875
-54.931640625
-52.18505859375
-47.607421875
-46.69189453125
-47.607421875
-50.35400390625
-39.36767578125
-30.21240234375
-36.62109375
-38.4521484375
-47.607421875
-29.296875
-32.04345703125
-46.69189453125
-39.36767578125
-32.04345703125
-36.62109375
-37.53662109375
-36.62109375
-33.87451171875
-25.634765625
-26.55029296875
-29.296875
-31.1279296875
-29.296875
-22.88818359375
-32.04345703125
-37.53662109375
-39.36767578125
-40.283203125
-31.1279296875
-39.36767578125
-39.36767578125
-26.55029296875
-24.71923828125
-29.296875
-22.88818359375
-28.38134765625
-36.62109375
-47.607421875
-46.69189453125
-56.7626953125
-58.59375
-68.66455078125
-81.48193359375
-90.63720703125
-94.29931640625
-93.3837890625
-85.14404296875
-92.46826171875
-93.3837890625
-79.65087890625
-85.14404296875
-84.228515625
-87.890625
-90.63720703125
-87.890625
-79.65087890625
-86.0595703125
-95.21484375
-93.3837890625
-86.97509765625
-93.3837890625
-86.97509765625
-81.48193359375
-88.80615234375
-87.890625
-87.890625
-86.0595703125
-83.31298828125
-90.63720703125
-84.228515625
-86.97509765625
-84.228515625
-87.890625
-92.46826171875
-86.97509765625
-81.48193359375
-80.56640625
-86.97509765625
-89.7216796875
-92.46826171875
-92.46826171875
-89.7216796875
-92.46826171875
-90.63720703125
-85.14404296875
-82.3974609375
-75.98876953125
-77.81982421875
-84.228515625
-82.3974609375
-88.80615234375
-86.97509765625
-82.3974609375
-85.14404296875
-78.7353515625
-79.65087890625
-81.48193359375
-76.904296875
-55.84716796875
-50.35400390625
-55.84716796875
-62.255859375
-50.35400390625
-32.04345703125
-17.39501953125
25.634765625
96.13037109375
183.10546875
279.23583984375
370.78857421875
517.27294921875
721.435546875
873.4130859375
906.3720703125
933.837890625
1014.404296875
1038.2080078125
1059.26513671875
1062.92724609375
1051.025390625
977.783203125
839.53857421875
659.1796875
463.2568359375
273.74267578125
118.10302734375
9.1552734375
-33.87451171875
-24.71923828125
-27.4658203125
-28.38134765625
-38.4521484375
-35.70556640625
-19.22607421875
-2.74658203125
19.22607421875
31.1279296875
26.55029296875
31.1279296875
30.21240234375
23.8037109375
18.310546875
14.6484375
8.23974609375
11.90185546875
9.1552734375
8.23974609375
-1.8310546875
-4.57763671875
-2.74658203125
-10.986328125
-0.91552734375
-0.91552734375
-8.23974609375
-10.986328125
2.74658203125
1.8310546875
-1.8310546875
-10.07080078125
-1.8310546875
-2.74658203125
-3.662109375
3.662109375
9.1552734375
19.22607421875
20.1416015625
18.310546875
10.986328125
11.90185546875
21.97265625
17.39501953125
10.986328125
17.39501953125
21.97265625
23.8037109375
23.8037109375
25.634765625
22.88818359375
17.39501953125
21.05712890625
21.05712890625
25.634765625
32.04345703125
31.1279296875
26.55029296875
37.53662109375
43.9453125
44.86083984375
38.4521484375
42.1142578125
45.7763671875
41.19873046875
48.52294921875
56.7626953125
60.4248046875
62.255859375
64.0869140625
64.0869140625
70.49560546875
64.0869140625
65.91796875
70.49560546875
78.7353515625
78.7353515625
77.81982421875
77.81982421875
86.97509765625
86.0595703125
91.552734375
97.96142578125
97.0458984375
98.876953125
99.79248046875
118.10302734375
113.525390625
112.60986328125
116.27197265625
119.93408203125
124.51171875
129.08935546875
142.822265625
153.80859375
151.06201171875
154.72412109375
153.80859375
162.9638671875
171.20361328125
176.69677734375
177.6123046875
192.2607421875
194.091796875
199.5849609375
201.416015625
195.9228515625
199.5849609375
207.82470703125
216.064453125
221.5576171875
216.064453125
214.2333984375
221.5576171875
231.62841796875
241.69921875
237.12158203125
236.2060546875
246.27685546875
237.12158203125
236.2060546875
237.12158203125
222.47314453125
220.64208984375
214.2333984375
218.81103515625
215.14892578125
207.82470703125
195.00732421875
181.2744140625
163.87939453125
153.80859375
146.484375
136.41357421875
126.3427734375
113.525390625
95.21484375
91.552734375
87.890625
79.65087890625
65.91796875
46.69189453125
43.9453125
38.4521484375
23.8037109375
16.4794921875
11.90185546875
10.986328125
2.74658203125
-12.8173828125
-19.22607421875
-19.22607421875
-19.22607421875
-28.38134765625
-41.19873046875
-48.52294921875
-41.19873046875
-31.1279296875
-36.62109375
-43.02978515625
-51.26953125
-52.18505859375
-54.931640625
-55.84716796875
-50.35400390625
-58.59375
-65.00244140625
-55.84716796875
-57.67822265625
-54.931640625
-47.607421875
-57.67822265625
-54.01611328125
-49.4384765625
-53.1005859375
-54.01611328125
-59.50927734375
-50.35400390625
-50.35400390625
-47.607421875
-48.52294921875
-48.52294921875
-46.69189453125
-50.35400390625
-53.1005859375
-47.607421875
-45.7763671875
-48.52294921875
-48.52294921875
-48.52294921875
-49.4384765625
-48.52294921875
-50.35400390625
-45.7763671875
-46.69189453125
-50.35400390625
-44.86083984375
-40.283203125
-41.19873046875
-42.1142578125
-49.4384765625
-45.7763671875
-44.86083984375
-47.607421875
-50.35400390625
-43.02978515625
-36.62109375
-43.9453125
-45.7763671875
-32.958984375
-37.53662109375
-41.19873046875
-37.53662109375
-43.9453125
-34.7900390625
-36.62109375
-37.53662109375
-38.4521484375
-40.283203125
-42.1142578125
-39.36767578125
-42.1142578125
-46.69189453125
-44.86083984375
-51.26953125
-40.283203125
-34.7900390625
-44.86083984375
-47.607421875
-43.9453125
-39.36767578125
-45.7763671875
-40.283203125
-36.62109375
-40.283203125
-45.7763671875
-48.52294921875
-48.52294921875
-44.86083984375
-38.4521484375
-42.1142578125
-44.86083984375
-44.86083984375
-47.607421875
-42.1142578125
-49.4384765625
-54.01611328125
-51.26953125
-49.4384765625
-55.84716796875
-60.4248046875
-55.84716796875
-50.35400390625
-49.4384765625
-45.7763671875
-54.01611328125
-49.4384765625
-49.4384765625
-49.4384765625
-54.01611328125
-58.59375
-59.50927734375
-59.50927734375
-57.67822265625
-55.84716796875
-54.01611328125
-55.84716796875
-61.34033203125
-61.34033203125
-61.34033203125
-60.4248046875
-62.255859375
-61.34033203125
-62.255859375
-60.4248046875
-54.931640625
-55.84716796875
-61.34033203125
-65.91796875
-65.00244140625
-72.32666015625
-66.83349609375
-58.59375
-53.1005859375
-55.84716796875
-70.49560546875
-76.904296875
-71.4111328125
-57.67822265625
-60.4248046875
-63.17138671875
-58.59375
-59.50927734375
-54.931640625
-56.7626953125
-64.0869140625
-71.4111328125
-67.7490234375
-65.00244140625
-64.0869140625
-66.83349609375
-68.66455078125
-65.91796875
-65.91796875
-60.4248046875
-65.91796875
-64.0869140625
-66.83349609375
-66.83349609375
-64.0869140625
-66.83349609375
-73.2421875
-75.98876953125
-68.66455078125
-74.15771484375
-72.32666015625
-69.580078125
-69.580078125
-71.4111328125
-79.65087890625
-65.91796875
-61.34033203125
-62.255859375
-65.00244140625
-63.17138671875
-67.7490234375
-65.00244140625
-65.00244140625
-68.66455078125
-62.255859375
-63.17138671875
-67.7490234375
-65.00244140625
-70.49560546875
-65.91796875
-61.34033203125
-72.32666015625
-74.15771484375
-69.580078125
-69.580078125
-65.00244140625
-63.17138671875
-65.91796875
-62.255859375
-62.255859375
-65.00244140625
-64.0869140625
-58.59375
-59.50927734375
-61.34033203125
-58.59375
-61.34033203125
-63.17138671875
-61.34033203125
-49.4384765625
-47.607421875
-51.26953125
-47.607421875
-36.62109375
-28.38134765625
-24.71923828125
-21.05712890625
-24.71923828125
-29.296875
-32.04345703125
-34.7900390625
-41.19873046875
-43.02978515625
-35.70556640625
-27.4658203125
-36.62109375
-36.62109375
-32.958984375
-26.55029296875
-19.22607421875
-24.71923828125
-24.71923828125
-26.55029296875
-32.958984375
-25.634765625
-27.4658203125
-32.958984375
-43.9453125
-46.69189453125
-30.21240234375
-21.97265625
-26.55029296875
-28.38134765625
-25.634765625
-21.97265625
-26.55029296875
-31.1279296875
-41.19873046875
-49.4384765625
-54.01611328125
-57.67822265625
-67.7490234375
-64.0869140625
-66.83349609375
-77.81982421875
-75.0732421875
-82.3974609375
-88.80615234375
-80.56640625
-82.3974609375
-81.48193359375
-81.48193359375
-88.80615234375
-98.876953125
-84.228515625
-74.15771484375
-77.81982421875
-89.7216796875
-89.7216796875
-88.80615234375
-87.890625
-86.97509765625
-91.552734375
-84.228515625
-78.7353515625
-83.31298828125
-86.97509765625
-90.63720703125
-92.46826171875
-88.80615234375
-86.0595703125
-86.0595703125
-82.3974609375
-79.65087890625
-84.228515625
-86.97509765625
-88.80615234375
-82.3974609375
-79.65087890625
-84.228515625
-85.14404296875
-86.97509765625
-89.7216796875
-81.48193359375
-86.0595703125
-87.890625
-83.31298828125
-81.48193359375
-79.65087890625
-80.56640625
-87.890625
-87.890625
-82.3974609375
-76.904296875
-80.56640625
-83.31298828125
-81.48193359375
-68.66455078125
-54.931640625
-45.7763671875
-48.52294921875
-50.35400390625
-47.607421875
-41.19873046875
-33.87451171875
-1.8310546875
72.32666015625
160.21728515625
250.8544921875
340.576171875
452.2705078125
639.95361328125
832.21435546875
899.96337890625
910.94970703125
970.458984375
1029.96826171875
1058.349609375
1073.91357421875
1060.1806640625
1009.82666015625
899.0478515625
724.18212890625
535.58349609375
342.4072265625
173.9501953125
21.97265625
-36.62109375
-46.69189453125
-31.1279296875
-30.21240234375
-34.7900390625
-36.62109375
-20.1416015625
1.8310546875
11.90185546875
26.55029296875
26.55029296875
26.55029296875
31.1279296875
31.1279296875
23.8037109375
10.07080078125
4.57763671875
2.74658203125
-1.8310546875
1.8310546875
-4.57763671875
-3.662109375
-3.662109375
0.91552734375
-2.74658203125
-3.662109375
-3.662109375
-3.662109375
-3.662109375
-9.1552734375
-9.1552734375
1.8310546875
4.57763671875
-1.8310546875
-4.57763671875
-6.40869140625
-7.32421875
1.8310546875
6.40869140625
10.07080078125
11.90185546875
10.07080078125
10.07080078125
-0.91552734375
11.90185546875
9.1552734375
14.6484375
23.8037109375
22.88818359375
15.56396484375
22.88818359375
23.8037109375
18.310546875
23.8037109375
31.1279296875
22.88818359375
32.04345703125
30.21240234375
26.55029296875
36.62109375
34.7900390625
32.958984375
36.62109375
31.1279296875
42.1142578125
52.18505859375
53.1005859375
53.1005859375
48.52294921875
51.26953125
49.4384765625
62.255859375
64.0869140625
64.0869140625
66.83349609375
75.0732421875
76.904296875
76.904296875
77.81982421875
81.48193359375
79.65087890625
84.228515625
87.890625
97.0458984375
101.62353515625
103.45458984375
107.11669921875
108.0322265625
116.27197265625
123.59619140625
122.6806640625
119.93408203125
125.42724609375
138.24462890625
140.9912109375
140.07568359375
144.6533203125
156.55517578125
161.1328125
163.87939453125
170.2880859375
178.52783203125
184.9365234375
189.51416015625
194.091796875
187.68310546875
188.5986328125
196.83837890625
201.416015625
208.740234375
218.81103515625
221.5576171875
222.47314453125
225.2197265625
223.388671875
224.30419921875
236.2060546875
237.12158203125
238.95263671875
236.2060546875
230.712890625
238.037109375
234.375
226.13525390625
218.81103515625
215.14892578125
204.16259765625
205.078125
194.091796875
188.5986328125
186.767578125
171.20361328125
160.21728515625
142.822265625
130.0048828125
122.6806640625
103.45458984375
85.14404296875
86.0595703125
85.14404296875
74.15771484375
63.17138671875
43.02978515625
40.283203125
28.38134765625
10.986328125
9.1552734375
1.8310546875
-1.8310546875
-4.57763671875
-8.23974609375
-25.634765625
-36.62109375
-35.70556640625
-33.87451171875
-29.296875
-32.958984375
-41.19873046875
-37.53662109375
-42.1142578125
-48.52294921875
-52.18505859375
-45.7763671875
-48.52294921875
-55.84716796875
-54.931640625
-59.50927734375
-62.255859375
-60.4248046875
-61.34033203125
-56.7626953125
-56.7626953125
-59.50927734375
-64.0869140625
-59.50927734375
-57.67822265625
-61.34033203125
-60.4248046875
-57.67822265625
-61.34033203125
-58.59375
-59.50927734375
-58.59375
-56.7626953125
-54.931640625
-54.931640625
-54.01611328125
-48.52294921875
-50.35400390625
-54.931640625
-54.01611328125
-53.1005859375
-52.18505859375
-51.26953125
-61.34033203125
-60.4248046875
-57.67822265625
-55.84716796875
-55.84716796875
-57.67822265625
-55.84716796875
-59.50927734375
-43.9453125
-42.1142578125
-44.86083984375
-48.52294921875
-49.4384765625
-51.26953125
-45.7763671875
-48.52294921875
-42.1142578125
-43.02978515625
-49.4384765625
-48.52294921875
-52.18505859375
-46.69189453125
-37.53662109375
-32.958984375
-41.19873046875
-39.36767578125
-39.36767578125
-41.19873046875
-47.607421875
-45.7763671875
-45.7763671875
-41.19873046875
-36.62109375
-36.62109375
-36.62109375
-43.9453125
-47.607421875
-44.86083984375
-45.7763671875
-44.86083984375
-50.35400390625
-46.69189453125
-38.4521484375
-43.9453125
-47.607421875
-46.69189453125
-54.931640625
-54.931640625
-40.283203125
-43.9453125
-48.52294921875
-51.26953125
-55.84716796875
-53.1005859375
-56.7626953125
-59.50927734375
-59.50927734375
-58.59375
-61.34033203125
-57.67822265625
-54.931640625
-62.255859375
-60.4248046875
-55.84716796875
-60.4248046875
-62.255859375
-64.0869140625
-56.7626953125
-56.7626953125
-60.4248046875
-63.17138671875
-68.66455078125
-64.0869140625
-59.50927734375
-60.4248046875
-63.17138671875
-67.7490234375
-65.00244140625
-63.17138671875
-54.931640625
-60.4248046875
-67.7490234375
-70.49560546875
-67.7490234375
-64.0869140625
-56.7626953125
-54.01611328125
-55.84716796875
-61.34033203125
-62.255859375
-66.83349609375
-71.4111328125
-63.17138671875
-55.84716796875
-65.00244140625
-65.00244140625
-64.0869140625
-70.49560546875
-73.2421875
-71.4111328125
-67.7490234375
-69.580078125
-71.4111328125
-72.32666015625
-70.49560546875
-69.580078125
-68.66455078125
-71.4111328125
-76.904296875
-74.15771484375
-68.66455078125
-63.17138671875
-70.49560546875
-73.2421875
-66.83349609375
-72.32666015625
-67.7490234375
-70.49560546875
-68.66455078125
-67.7490234375
-74.15771484375
-68.66455078125
-62.255859375
-68.66455078125
-75.98876953125
-84.228515625
-81.48193359375
-75.0732421875
-70.49560546875
-72.32666015625
-79.65087890625
-74.15771484375
-69.580078125
-66.83349609375
-71.4111328125
-70.49560546875
-73.2421875
-72.32666015625
-59.50927734375
-54.01611328125
-65.91796875
-65.00244140625
-61.34033203125
-65.00244140625
-75.0732421875
-76.904296875
-75.98876953125
-74.15771484375
-65.00244140625
-62.255859375
-59.50927734375
-58.59375
-59.50927734375
-68.66455078125
-67.7490234375
-64.0869140625
-71.4111328125
-70.49560546875
-69.580078125
-61.34033203125
-60.4248046875
-61.34033203125
-54.01611328125
-58.59375
-57.67822265625
-55.84716796875
-51.26953125
-43.02978515625
-45.7763671875
-42.1142578125
-43.02978515625
-36.62109375
-32.958984375
-28.38134765625
-31.1279296875
-33.87451171875
-35.70556640625
-36.62109375
-40.283203125
-39.36767578125
-36.62109375
-42.1142578125
-45.7763671875
-43.9453125
-32.958984375
-28.38134765625
-31.1279296875
-36.62109375
-28.38134765625
-23.8037109375
-22.88818359375
-28.38134765625
-32.958984375
-39.36767578125
-34.7900390625
-25.634765625
-27.4658203125
-27.4658203125
-32.04345703125
-31.1279296875
-24.71923828125
-33.87451171875
-38.4521484375
-47.607421875
-45.7763671875
-61.34033203125
-67.7490234375
-59.50927734375
-54.01611328125
-70.49560546875
-83.31298828125
-84.228515625
-93.3837890625
-86.0595703125
-88.80615234375
-85.14404296875
-85.14404296875
-95.21484375
-97.96142578125
-95.21484375
-96.13037109375
-100.7080078125
-91.552734375
-89.7216796875
-92.46826171875
-86.97509765625
-86.97509765625
-98.876953125
-107.11669921875
-93.3837890625
-86.97509765625
-90.63720703125
-92.46826171875
-89.7216796875
-95.21484375
-89.7216796875
-87.890625
-89.7216796875
-79.65087890625
-85.14404296875
-87.890625
-86.97509765625
-90.63720703125
-95.21484375
-94.29931640625
-88.80615234375
-93.3837890625
-86.97509765625
-82.3974609375
-84.228515625
-88.80615234375
-92.46826171875
-95.21484375
-95.21484375
-78.7353515625
-74.15771484375
-86.97509765625
-86.97509765625
-84.228515625
-85.14404296875
-81.48193359375
-82.3974609375
-84.228515625
-77.81982421875
-65.91796875
-48.52294921875
-48.52294921875
-44.86083984375
-44.86083984375
-41.19873046875
-26.55029296875
-10.07080078125
42.1142578125
108.94775390625
197.75390625
294.7998046875
387.26806640625
541.9921875
732.421875
854.18701171875
858.7646484375
909.11865234375
987.85400390625
1005.2490234375
1041.8701171875
1042.78564453125
1026.30615234375
949.40185546875
804.74853515625
633.544921875
429.38232421875
252.685546875
101.62353515625
4.57763671875
-23.8037109375
-26.55029296875
-29.296875
-38.4521484375
-43.02978515625
-37.53662109375
-32.958984375
-6.40869140625
13.73291015625
18.310546875
24.71923828125
22.88818359375
20.1416015625
16.4794921875
12.8173828125
12.8173828125
2.74658203125
-0.91552734375
-2.74658203125
-6.40869140625
-8.23974609375
-6.40869140625
-10.986328125
-10.986328125
-10.986328125
-3.662109375
-8.23974609375
-10.986328125
-2.74658203125
-7.32421875
-9.1552734375
-10.986328125
-3.662109375
-0.91552734375
-0.91552734375
-1.8310546875
-6.40869140625
-5.4931640625
-2.74658203125
-6.40869140625
-0.91552734375
0.91552734375
6.40869140625
2.74658203125
-1.8310546875
5.4931640625
10.986328125
5.4931640625
3.662109375
10.07080078125
17.39501953125
16.4794921875
21.05712890625
19.22607421875
18.310546875
20.1416015625
25.634765625
25.634765625
31.1279296875
31.1279296875
25.634765625
34.7900390625
42.1142578125
44.86083984375
33.87451171875
40.283203125
40.283203125
43.9453125
46.69189453125
47.607421875
48.52294921875
51.26953125
52.18505859375
52.18505859375
56.7626953125
60.4248046875
68.66455078125
70.49560546875
75.98876953125
73.2421875
73.2421875
84.228515625
88.80615234375
88.80615234375
89.7216796875
95.21484375
99.79248046875
95.21484375
97.0458984375
112.60986328125
119.0185546875
119.0185546875
111.6943359375
112.60986328125
124.51171875
137.3291015625
144.6533203125
153.80859375
153.80859375
154.72412109375
166.6259765625
176.69677734375
169.37255859375
165.71044921875
170.2880859375
179.443359375
184.9365234375
195.9228515625
203.2470703125
201.416015625
205.99365234375
205.078125
207.82470703125
211.48681640625
218.81103515625
218.81103515625
225.2197265625
228.8818359375
225.2197265625
223.388671875
222.47314453125
223.388671875
222.47314453125
218.81103515625
211.48681640625
205.078125
197.75390625
189.51416015625
174.86572265625
163.87939453125
162.9638671875
149.23095703125
133.6669921875
129.08935546875
127.25830078125
108.0322265625
91.552734375
89.7216796875
74.15771484375
66.83349609375
66.83349609375
49.4384765625
38.4521484375
32.04345703125
22.88818359375
10.986328125
0
-7.32421875
-14.6484375
-23.8037109375
-22.88818359375
-30.21240234375
-31.1279296875
-29.296875
-31.1279296875
-33.87451171875
-48.52294921875
-53.1005859375
-42.1142578125
-40.283203125
-47.607421875
-55.84716796875
-60.4248046875
-62.255859375
-63.17138671875
-71.4111328125
-65.91796875
-61.34033203125
-64.0869140625
-58.59375
-63.17138671875
-64.0869140625
-66.83349609375
-65.91796875
-66.83349609375
-65.00244140625
-64.0869140625
-62.255859375
-66.83349609375
-70.49560546875
-65.00244140625
-65.91796875
-57.67822265625
-63.17138671875
-63.17138671875
-63.17138671875
-59.50927734375
-58.59375
-56.7626953125
-61.34033203125
-59.50927734375
-57.67822265625
-62.255859375
-59.50927734375
-65.91796875
-61.34033203125
-56.7626953125
-48.52294921875
-54.01611328125
-54.931640625
-55.84716796875
-57.67822265625
-56.7626953125
-57.67822265625
-54.931640625
-55.84716796875
-51.26953125
-52.18505859375
-63.17138671875
-52.18505859375
-45.7763671875
-47.607421875
-46.69189453125
-46.69189453125
-57.67822265625
-60.4248046875
-62.255859375
-54.931640625
-46.69189453125
-51.26953125
-56.7626953125
-53.1005859375
-51.26953125
-54.931640625
-52.18505859375
-55.84716796875
-59.50927734375
-58.59375
-53.1005859375
-61.34033203125
-59.50927734375
-59.50927734375
-55.84716796875
-52.18505859375
-55.84716796875
-61.34033203125
-58.59375
-60.4248046875
-52.18505859375
-58.59375
-60.4248046875
-59.50927734375
-65.00244140625
-64.0869140625
-57.67822265625
-60.4248046875
-58.59375
-65.00244140625
-74.15771484375
-71.4111328125
-66.83349609375
-71.4111328125
-70.49560546875
-62.255859375
-67.7490234375
-73.2421875
-74.15771484375
-72.32666015625
-76.904296875
-75.98876953125
-72.32666015625
-69.580078125
-77.81982421875
-71.4111328125
-76.904296875
-74.15771484375
-68.66455078125
-70.49560546875
-67.7490234375
-65.91796875
-66.83349609375
-69.580078125
-72.32666015625
-74.15771484375
-75.98876953125
-78.7353515625
-78.7353515625
-74.15771484375
-75.98876953125
-79.65087890625
-85.14404296875
-83.31298828125
-79.65087890625
-79.65087890625
-90.63720703125
-87.890625
-81.48193359375
-86.0595703125
-86.0595703125
-90.63720703125
-85.14404296875
-74.15771484375
-78.7353515625
-82.3974609375
-87.890625
-83.31298828125
-75.98876953125
-76.904296875
-79.65087890625
-77.81982421875
-86.0595703125
-81.48193359375
-86.0595703125
-86.0595703125
-84.228515625
-81.48193359375
-86.0595703125
-85.14404296875
-86.0595703125
-89.7216796875
-93.3837890625
-88.80615234375
-85.14404296875
-79.65087890625
-82.3974609375
-77.81982421875
-86.0595703125
-88.80615234375
-86.97509765625
-86.97509765625
-86.0595703125
-83.31298828125
-87.890625
-85.14404296875
-84.228515625
-93.3837890625
-86.0595703125
-88.80615234375
-81.48193359375
-89.7216796875
-92.46826171875
-81.48193359375
-84.228515625
-87.890625
-75.98876953125
-77.81982421875
-80.56640625
-71.4111328125
-62.255859375
-66.83349609375
-72.32666015625
-60.4248046875
-60.4248046875
-56.7626953125
-53.1005859375
-57.67822265625
-62.255859375
-51.26953125
-52.18505859375
-54.931640625
-53.1005859375
-48.52294921875
-48.52294921875
-43.02978515625
-48.52294921875
-43.9453125
-44.86083984375
-50.35400390625
-46.69189453125
-43.9453125
-48.52294921875
-50.35400390625
-50.35400390625
-56.7626953125
-63.17138671875
-65.00244140625
-54.01611328125
-48.52294921875
-41.19873046875
-38.4521484375
-49.4384765625
-54.01611328125
-44.86083984375
-50.35400390625
-47.607421875
-57.67822265625
-75.0732421875
-77.81982421875
-77.81982421875
-80.56640625
-90.63720703125
-93.3837890625
-95.21484375
-97.0458984375
-96.13037109375
-109.86328125
-109.86328125
-103.45458984375
-102.5390625
-103.45458984375
-104.3701171875
-109.86328125
-113.525390625
-113.525390625
-112.60986328125
-111.6943359375
-103.45458984375
-105.28564453125
-106.201171875
-105.28564453125
-108.94775390625
-105.28564453125
-99.79248046875
-100.7080078125
-115.3564453125
-110.77880859375
-114.44091796875
-111.6943359375
-108.0322265625
-102.5390625
-100.7080078125
-102.5390625
-100.7080078125
-97.96142578125
-103.45458984375
-106.201171875
-104.3701171875
-99.79248046875
-99.79248046875
-101.62353515625
-97.96142578125
-96.13037109375
-105.28564453125
-108.94775390625
-105.28564453125
-94.29931640625
-92.46826171875
-98.876953125
-102.5390625
-101.62353515625
-90.63720703125
-95.21484375
-101.62353515625
-98.876953125
-108.0322265625
-98.876953125
-85.14404296875
-72.32666015625
-70.49560546875
-79.65087890625
-75.0732421875
-58.59375
-43.02978515625
-0.91552734375
70.49560546875
160.21728515625
267.333984375
361.63330078125
520.93505859375
720.52001953125
847.7783203125
863.34228515625
893.5546875
967.71240234375
990.6005859375
1018.98193359375
1020.81298828125
986.9384765625
901.79443359375
762.63427734375
600.5859375
402.83203125
220.64208984375
81.48193359375
-1.8310546875
-42.1142578125
-40.283203125
-45.7763671875
-49.4384765625
-57.67822265625
-63.17138671875
-55.84716796875
-38.4521484375
-25.634765625
-15.56396484375
-8.23974609375
-4.57763671875
1.8310546875
2.74658203125
-4.57763671875
-5.4931640625
-15.56396484375
-10.07080078125
-18.310546875
-21.05712890625
-21.97265625
-23.8037109375
-21.97265625
-20.1416015625
-22.88818359375
-25.634765625
-25.634765625
-21.97265625
-17.39501953125
-14.6484375
-16.4794921875
-21.97265625
-15.56396484375
-11.90185546875
-17.39501953125
-21.97265625
-24.71923828125
-13.73291015625
-11.90185546875
-15.56396484375
-5.4931640625
-5.4931640625
-8.23974609375
-12.8173828125
-14.6484375
-6.40869140625
-4.57763671875
-2.74658203125
-1.8310546875
-0.91552734375
3.662109375
9.1552734375
3.662109375
3.662109375
5.4931640625
11.90185546875
16.4794921875
20.1416015625
17.39501953125
17.39501953125
10.986328125
14.6484375
29.296875
31.1279296875
24.71923828125
30.21240234375
30.21240234375
34.7900390625
39.36767578125
37.53662109375
34.7900390625
41.19873046875
41.19873046875
46.69189453125
50.35400390625
52.18505859375
48.52294921875
51.26953125
60.4248046875
62.255859375
60.4248046875
71.4111328125
80.56640625
86.0595703125
88.80615234375
89.7216796875
85.14404296875
88.80615234375
97.96142578125
98.876953125
107.11669921875
112.60986328125
116.27197265625
111.6943359375
119.93408203125
123.59619140625
127.25830078125
139.16015625
151.06201171875
153.80859375
151.9775390625
153.80859375
155.6396484375
164.794921875
169.37255859375
175.78125
178.52783203125
185.85205078125
195.00732421875
197.75390625
197.75390625
195.9228515625
200.50048828125
209.65576171875
208.740234375
205.99365234375
210.5712890625
213.31787109375
215.14892578125
219.7265625
216.97998046875
210.5712890625
210.5712890625
208.740234375
205.078125
198.66943359375
190.4296875
180.35888671875
172.119140625
163.87939453125
153.80859375
138.24462890625
127.25830078125
119.93408203125
108.0322265625
93.3837890625
87.890625
75.0732421875
62.255859375
48.52294921875
41.19873046875
29.296875
24.71923828125
18.310546875
11.90185546875
-3.662109375
-9.1552734375
-14.6484375
-15.56396484375
-19.22607421875
-24.71923828125
-35.70556640625
-35.70556640625
-41.19873046875
-41.19873046875
-47.607421875
-55.84716796875
-55.84716796875
-66.83349609375
-62.255859375
-58.59375
-61.34033203125
-67.7490234375
-62.255859375
-61.34033203125
-65.91796875
-70.49560546875
-75.98876953125
-72.32666015625
-64.0869140625
-63.17138671875
-65.91796875
-69.580078125
-66.83349609375
-68.66455078125
-67.7490234375
-64.0869140625
-67.7490234375
-69.580078125
-78.7353515625
-74.15771484375
-66.83349609375
-68.66455078125
-65.00244140625
-70.49560546875
-69.580078125
-69.580078125
-65.00244140625
-60.4248046875
-64.0869140625
-64.0869140625
-65.91796875
-65.00244140625
-59.50927734375
-63.17138671875
-68.66455078125
-62.255859375
-64.0869140625
-56.7626953125
-52.18505859375
-60.4248046875
-62.255859375
-59.50927734375
-58.59375
-57.67822265625
-58.59375
-59.50927734375
-57.67822265625
-61.34033203125
-57.67822265625
-59.50927734375
-57.67822265625
-54.01611328125
-53.1005859375
-60.4248046875
-55.84716796875
-50.35400390625
-49.4384765625
-53.1005859375
-61.34033203125
-54.01611328125
-52.18505859375
-56.7626953125
-58.59375
-54.01611328125
-56.7626953125
-63.17138671875
-65.00244140625
-61.34033203125
-54.01611328125
-60.4248046875
-52.18505859375
-54.931640625
-56.7626953125
-56.7626953125
-59.50927734375
-54.01611328125
-59.50927734375
-61.34033203125
-58.59375
-54.01611328125
-68.66455078125
-67.7490234375
-65.00244140625
-64.0869140625
-66.83349609375
-64.0869140625
-66.83349609375
-62.255859375
-63.17138671875
-65.00244140625
-68.66455078125
-72.32666015625
-62.255859375
-67.7490234375
-70.49560546875
-71.4111328125
-73.2421875
-75.98876953125
-74.15771484375
-65.91796875
-66.83349609375
-78.7353515625
-74.15771484375
-68.66455078125
-65.91796875
-66.83349609375
-67.7490234375
-69.580078125
-72.32666015625
-68.66455078125
-75.0732421875
-77.81982421875
-77.81982421875
-77.81982421875
-78.7353515625
-80.56640625
-78.7353515625
-76.904296875
-72.32666015625
-76.904296875
-79.65087890625
-76.904296875
-74.15771484375
-76.904296875
-76.904296875
-79.65087890625
-82.3974609375
-80.56640625
-71.4111328125
-70.49560546875
-69.580078125
-74.15771484375
-79.65087890625
-82.3974609375
-76.904296875
-71.4111328125
-79.65087890625
-77.81982421875
-68.66455078125
-76.904296875
-74.15771484375
-73.2421875
-79.65087890625
-73.2421875
-71.4111328125
-73.2421875
-75.98876953125
-70.49560546875
-75.98876953125
-75.98876953125
-76.904296875
-84.228515625
-86.97509765625
-79.65087890625
-75.98876953125
-73.2421875
-81.48193359375
-78.7353515625
-76.904296875
-78.7353515625
-78.7353515625
-87.890625
-86.97509765625
-72.32666015625
-84.228515625
-89.7216796875
-82.3974609375
-76.904296875
-75.0732421875
-78.7353515625
-83.31298828125
-84.228515625
-83.31298828125
-77.81982421875
-74.15771484375
-76.904296875
-80.56640625
-84.228515625
-77.81982421875
-71.4111328125
-78.7353515625
-75.98876953125
-75.0732421875
-77.81982421875
-78.7353515625
-75.98876953125
-86.0595703125
-81.48193359375
-76.904296875
-76.904296875
-71.4111328125
-68.66455078125
-71.4111328125
-68.66455078125
-65.00244140625
-65.91796875
-54.01611328125
-53.1005859375
-53.1005859375
-54.01611328125
-42.1142578125
-32.04345703125
-31.1279296875
-34.7900390625
-43.9453125
-47.607421875
-47.607421875
-46.69189453125
-46.69189453125
-49.4384765625
-43.9453125
-47.607421875
-43.9453125
-41.19873046875
-36.62109375
-34.7900390625
-31.1279296875
-32.958984375
-41.19873046875
-42.1142578125
-41.19873046875
-42.1142578125
-43.9453125
-48.52294921875
-47.607421875
-33.87451171875
-32.958984375
-31.1279296875
-30.21240234375
-29.296875
-27.4658203125
-31.1279296875
-41.19873046875
-49.4384765625
-49.4384765625
-53.1005859375
-57.67822265625
-58.59375
-60.4248046875
-70.49560546875
-84.228515625
-90.63720703125
-93.3837890625
-90.63720703125
-95.21484375
-93.3837890625
-92.46826171875
-94.29931640625
-85.14404296875
-86.97509765625
-93.3837890625
-86.0595703125
-91.552734375
-95.21484375
-91.552734375
-85.14404296875
-95.21484375
-99.79248046875
-98.876953125
-91.552734375
-90.63720703125
-94.29931640625
-96.13037109375
-97.0458984375
-94.29931640625
-99.79248046875
-97.0458984375
-92.46826171875
-92.46826171875
-95.21484375
-100.7080078125
-97.0458984375
-90.63720703125
-87.890625
-86.0595703125
-86.0595703125
-88.80615234375
-86.0595703125
-93.3837890625
-96.13037109375
-97.0458984375
-97.0458984375
-87.890625
-87.890625
-95.21484375
-86.97509765625
-86.0595703125
-90.63720703125
-91.552734375
-90.63720703125
-88.80615234375
-83.31298828125
-85.14404296875
-90.63720703125
-83.31298828125
-65.00244140625
-54.931640625
-46.69189453125
-51.26953125
-54.931640625
-43.02978515625
-32.958984375
0.91552734375
71.4111328125
152.89306640625
255.43212890625
343.32275390625
466.00341796875
651.85546875
828.55224609375
885.31494140625
905.45654296875
976.86767578125
1022.64404296875
1049.1943359375
1062.92724609375
1043.701171875
994.2626953125
871.58203125
702.20947265625
515.44189453125
320.4345703125
151.9775390625
20.1416015625
-28.38134765625
-36.62109375
-39.36767578125
-40.283203125
-41.19873046875
-47.607421875
-32.958984375
-16.4794921875
-3.662109375
15.56396484375
25.634765625
25.634765625
16.4794921875
13.73291015625
20.1416015625
2.74658203125
-3.662109375
0
-4.57763671875
0.91552734375
2.74658203125
-8.23974609375
-11.90185546875
-14.6484375
-9.1552734375
0
-4.57763671875
-8.23974609375
-2.74658203125
1.8310546875
-3.662109375
-3.662109375
-9.1552734375
-15.56396484375
-7.32421875
6.40869140625
8.23974609375
5.4931640625
5.4931640625
-3.662109375
0.91552734375
4.57763671875
-1.8310546875
8.23974609375
12.8173828125
11.90185546875
11.90185546875
12.8173828125
7.32421875
11.90185546875
16.4794921875
15.56396484375
21.97265625
20.1416015625
27.4658203125
24.71923828125
19.22607421875
20.1416015625
22.88818359375
35.70556640625
34.7900390625
27.4658203125
38.4521484375
40.283203125
42.1142578125
40.283203125
41.19873046875
43.9453125
43.9453125
49.4384765625
54.931640625
56.7626953125
56.7626953125
50.35400390625
57.67822265625
63.17138671875
71.4111328125
74.15771484375
75.98876953125
83.31298828125
70.49560546875
85.14404296875
89.7216796875
89.7216796875
97.96142578125
104.3701171875
109.86328125
111.6943359375
112.60986328125
113.525390625
120.849609375
124.51171875
122.6806640625
122.6806640625
132.75146484375
144.6533203125
145.56884765625
148.3154296875
155.6396484375
156.55517578125
159.3017578125
169.37255859375
184.9365234375
186.767578125
186.767578125
192.2607421875
195.00732421875
202.33154296875
202.33154296875
202.33154296875
206.9091796875
208.740234375
205.99365234375
216.97998046875
221.5576171875
228.8818359375
230.712890625
238.95263671875
239.8681640625
238.037109375
237.12158203125
232.5439453125
230.712890625
232.5439453125
224.30419921875
206.9091796875
206.9091796875
211.48681640625
192.2607421875
183.10546875
172.119140625
158.38623046875
148.3154296875
138.24462890625
123.59619140625
114.44091796875
106.201171875
97.96142578125
85.14404296875
77.81982421875
58.59375
42.1142578125
30.21240234375
21.05712890625
23.8037109375
21.05712890625
2.74658203125
-8.23974609375
-12.8173828125
-9.1552734375
-10.986328125
-23.8037109375
-19.22607421875
-29.296875
-38.4521484375
-42.1142578125
-37.53662109375
-38.4521484375
-50.35400390625
-61.34033203125
-55.84716796875
-57.67822265625
-56.7626953125
-59.50927734375
-57.67822265625
-55.84716796875
-61.34033203125
-61.34033203125
-62.255859375
-64.0869140625
-62.255859375
-61.34033203125
-69.580078125
-72.32666015625
-62.255859375
-64.0869140625
-65.91796875
-70.49560546875
-74.15771484375
-76.904296875
-69.580078125
-62.255859375
-60.4248046875
-69.580078125
-72.32666015625
-62.255859375
-61.34033203125
-63.17138671875
-64.0869140625
-60.4248046875
-59.50927734375
-53.1005859375
-54.01611328125
-59.50927734375
-55.84716796875
-54.931640625
-53.1005859375
-57.67822265625
-58.59375
-59.50927734375
-55.84716796875
-58.59375
-54.931640625
-51.26953125
-59.50927734375
-64.0869140625
-52.18505859375
-46.69189453125
-54.01611328125
-60.4248046875
-55.84716796875
-60.4248046875
-58.59375
-48.52294921875
-49.4384765625
-50.35400390625
-45.7763671875
-51.26953125
-52.18505859375
-55.84716796875
-53.1005859375
-44.86083984375
-47.607421875
-49.4384765625
-54.01611328125
-54.931640625
-54.931640625
-53.1005859375
-51.26953125
-47.607421875
-48.52294921875
-58.59375
-61.34033203125
-54.01611328125
-50.35400390625
-46.69189453125
-53.1005859375
-49.4384765625
-49.4384765625
-49.4384765625
-59.50927734375
-58.59375
-57.67822265625
-55.84716796875
-52.18505859375
-61.34033203125
-65.00244140625
-69.580078125
-55.84716796875
-56.7626953125
-65.00244140625
-70.49560546875
-61.34033203125
-57.67822265625
-63.17138671875
-67.7490234375
-60.4248046875
-59.50927734375
-70.49560546875
-71.4111328125
-71.4111328125
-65.91796875
-66.83349609375
-79.65087890625
-80.56640625
-82.3974609375
-81.48193359375
-73.2421875
-72.32666015625
-72.32666015625
-64.0869140625
-66.83349609375
-71.4111328125
-74.15771484375
-68.66455078125
-69.580078125
-69.580078125
-70.49560546875
-77.81982421875
-69.580078125
-72.32666015625
-69.580078125
-68.66455078125
-67.7490234375
-70.49560546875
-75.0732421875
-72.32666015625
-74.15771484375
-81.48193359375
-75.0732421875
-75.0732421875
-72.32666015625
-79.65087890625
-80.56640625
-68.66455078125
-69.580078125
-81.48193359375
-80.56640625
-77.81982421875
-86.97509765625
-81.48193359375
-81.48193359375
-77.81982421875
-77.81982421875
-81.48193359375
-81.48193359375
-79.65087890625
-82.3974609375
-78.7353515625
-72.32666015625
-74.15771484375
-82.3974609375
-82.3974609375
-72.32666015625
-76.904296875
-75.0732421875
-78.7353515625
-70.49560546875
-76.904296875
-80.56640625
-78.7353515625
-76.904296875
-79.65087890625
-85.14404296875
-80.56640625
-75.98876953125
-71.4111328125
-87.890625
-84.228515625
-80.56640625
-84.228515625
-87.890625
-91.552734375
-80.56640625
-69.580078125
-73.2421875
-78.7353515625
-79.65087890625
-76.904296875
-83.31298828125
-80.56640625
-82.3974609375
-81.48193359375
-76.904296875
-77.81982421875
-82.3974609375
-88.80615234375
-79.65087890625
-78.7353515625
-79.65087890625
-76.904296875
-75.98876953125
-75.98876953125
-78.7353515625
-78.7353515625
-78.7353515625
-76.904296875
-75.0732421875
-80.56640625
-81.48193359375
-68.66455078125
-65.91796875
-71.4111328125
-62.255859375
-60.4248046875
-74.15771484375
-64.0869140625
-43.02978515625
-43.9453125
-44.86083984375
-39.36767578125
-37.53662109375
-40.283203125
-45.7763671875
-43.02978515625
-43.02978515625
-50.35400390625
-46.69189453125
-47.607421875
-46.69189453125
-40.283203125
-43.9453125
-34.7900390625
-37.53662109375
-42.1142578125
-47.607421875
-49.4384765625
-42.1142578125
-40.283203125
-43.02978515625
-48.52294921875
-52.18505859375
-39.36767578125
-36.62109375
-32.04345703125
-33.87451171875
-35.70556640625
-36.62109375
-41.19873046875
-40.283203125
-48.52294921875
-59.50927734375
-60.4248046875
-65.00244140625
-68.66455078125
-75.98876953125
-80.56640625
-90.63720703125
-101.62353515625
-97.0458984375
-99.79248046875
-97.96142578125
-94.29931640625
-94.29931640625
-94.29931640625
-93.3837890625
-96.13037109375
-93.3837890625
-94.29931640625
-91.552734375
-101.62353515625
-105.28564453125
-101.62353515625
-97.96142578125
-103.45458984375
-99.79248046875
-96.13037109375
-97.96142578125
-102.5390625
-102.5390625
-96.13037109375
-98.876953125
-100.7080078125
-96.13037109375
-97.0458984375
-105.28564453125
-106.201171875
-95.21484375
-95.21484375
-97.96142578125
-94.29931640625
-99.79248046875
-99.79248046875
-97.0458984375
-97.96142578125
-100.7080078125
-100.7080078125
-96.13037109375
-94.29931640625
-99.79248046875
-97.96142578125
-87.890625
-86.97509765625
-89.7216796875
-92.46826171875
-92.46826171875
-87.890625
-94.29931640625
-95.21484375
-91.552734375
-91.552734375
-75.98876953125
-70.49560546875
-58.59375
-54.01611328125
-51.26953125
-54.01611328125
-44.86083984375
-35.70556640625
0
65.91796875
150.146484375
246.27685546875
335.0830078125
451.35498046875
632.62939453125
812.07275390625
877.0751953125
890.80810546875
964.05029296875
1007.99560546875
1013.48876953125
1026.30615234375
1029.052734375
978.69873046875
853.271484375
680.23681640625
495.30029296875
314.94140625
154.72412109375
21.97265625
-33.87451171875
-38.4521484375
-37.53662109375
-51.26953125
-53.1005859375
-40.283203125
-27.4658203125
-13.73291015625
-1.8310546875
13.73291015625
21.05712890625
24.71923828125
22.88818359375
20.1416015625
18.310546875
4.57763671875
-3.662109375
-3.662109375
2.74658203125
-1.8310546875
-6.40869140625
-6.40869140625
-1.8310546875
-5.4931640625
-16.4794921875
-12.8173828125
-8.23974609375
-0.91552734375
1.8310546875
-5.4931640625
-11.90185546875
-13.73291015625
-16.4794921875
-11.90185546875
-5.4931640625
-8.23974609375
-4.57763671875
-4.57763671875
-9.1552734375
-1.8310546875
-0.91552734375
-0.91552734375
-2.74658203125
4.57763671875
6.40869140625
2.74658203125
-2.74658203125
2.74658203125
6.40869140625
-1.8310546875
2.74658203125
18.310546875
22.88818359375
19.22607421875
13.73291015625
17.39501953125
25.634765625
28.38134765625
30.21240234375
28.38134765625
26.55029296875
30.21240234375
35.70556640625
34.7900390625
37.53662109375
40.283203125
42.1142578125
35.70556640625
42.1142578125
51.26953125
54.931640625
56.7626953125
58.59375
65.91796875
61.34033203125
60.4248046875
65.00244140625
71.4111328125
73.2421875
75.0732421875
74.15771484375
82.3974609375
93.3837890625
90.63720703125
93.3837890625
97.0458984375
98.876953125
108.0322265625
111.6943359375
110.77880859375
109.86328125
118.10302734375
127.25830078125
130.0048828125
134.58251953125
145.56884765625
144.6533203125
151.06201171875
151.9775390625
152.89306640625
158.38623046875
162.9638671875
172.119140625
183.10546875
184.9365234375
190.4296875
195.00732421875
205.078125
205.99365234375
208.740234375
216.97998046875
218.81103515625
216.97998046875
217.8955078125
225.2197265625
228.8818359375
229.79736328125
234.375
234.375
233.45947265625
231.62841796875
227.96630859375
227.96630859375
222.47314453125
222.47314453125
218.81103515625
205.99365234375
198.66943359375
197.75390625
188.5986328125
169.37255859375
151.9775390625
146.484375
139.16015625
130.92041015625
114.44091796875
104.3701171875
90.63720703125
75.0732421875
75.0732421875
61.34033203125
53.1005859375
37.53662109375
30.21240234375
24.71923828125
7.32421875
-0.91552734375
-2.74658203125
-8.23974609375
-8.23974609375
-20.1416015625
-30.21240234375
-35.70556640625
-30.21240234375
-35.70556640625
-36.62109375
-43.02978515625
-43.02978515625
-46.69189453125
-53.1005859375
-54.01611328125
-58.59375
-61.34033203125
-55.84716796875
-59.50927734375
-64.0869140625
-65.00244140625
-65.00244140625
-67.7490234375
-70.49560546875
-73.2421875
-69.580078125
-72.32666015625
-65.91796875
-62.255859375
-63.17138671875
-67.7490234375
-71.4111328125
-70.49560546875
-65.91796875
-65.91796875
-68.66455078125
-68.66455078125
-61.34033203125
-62.255859375
-69.580078125
-66.83349609375
-59.50927734375
-63.17138671875
-63.17138671875
-60.4248046875
-60.4248046875
-60.4248046875
-61.34033203125
-61.34033203125
-65.00244140625
-70.49560546875
-66.83349609375
-57.67822265625
-62.255859375
-64.0869140625
-54.01611328125
-56.7626953125
-59.50927734375
-66.83349609375
-63.17138671875
-58.59375
-59.50927734375
-56.7626953125
-59.50927734375
-59.50927734375
-55.84716796875
-47.607421875
-50.35400390625
-54.931640625
-52.18505859375
-46.69189453125
-43.9453125
-53.1005859375
-53.1005859375
-52.18505859375
-54.01611328125
-54.931640625
-55.84716796875
-57.67822265625
-52.18505859375
-56.7626953125
-48.52294921875
-53.1005859375
-54.931640625
-58.59375
-48.52294921875
-45.7763671875
-47.607421875
-46.69189453125
-54.01611328125
-53.1005859375
-56.7626953125
-58.59375
-54.931640625
-60.4248046875
-60.4248046875
-54.01611328125
-58.59375
-63.17138671875
-70.49560546875
-69.580078125
-67.7490234375
-57.67822265625
-60.4248046875
-67.7490234375
-66.83349609375
-62.255859375
-65.00244140625
-60.4248046875
-65.00244140625
-72.32666015625
-69.580078125
-63.17138671875
-70.49560546875
-63.17138671875
-68.66455078125
-75.98876953125
-75.98876953125
-72.32666015625
-74.15771484375
-67.7490234375
-71.4111328125
-69.580078125
-72.32666015625
-81.48193359375
-74.15771484375
-76.904296875
-74.15771484375
-74.15771484375
-69.580078125
-75.98876953125
-77.81982421875
-83.31298828125
-81.48193359375
-82.3974609375
-76.904296875
-70.49560546875
-71.4111328125
-77.81982421875
-74.15771484375
-73.2421875
-82.3974609375
-87.890625
-86.97509765625
-79.65087890625
-78.7353515625
-81.48193359375
-83.31298828125
-84.228515625
-84.228515625
-86.0595703125
-83.31298828125
-77.81982421875
-78.7353515625
-81.48193359375
-79.65087890625
-86.0595703125
-93.3837890625
-81.48193359375
-82.3974609375
-77.81982421875
-81.48193359375
-84.228515625
-83.31298828125
-87.890625
-91.552734375
-89.7216796875
-80.56640625
-76.904296875
-78.7353515625
-78.7353515625
-77.81982421875
-87.890625
-86.0595703125
-81.48193359375
-83.31298828125
-86.0595703125
-96.13037109375
-97.0458984375
-86.0595703125
-90.63720703125
-86.97509765625
-85.14404296875
-85.14404296875
-85.14404296875
-86.97509765625
-81.48193359375
-85.14404296875
-84.228515625
-89.7216796875
-94.29931640625
-87.890625
-92.46826171875
-91.552734375
-92.46826171875
-87.890625
-83.31298828125
-83.31298828125
-86.0595703125
-81.48193359375
-75.98876953125
-80.56640625
-80.56640625
-70.49560546875
-57.67822265625
-62.255859375
-71.4111328125
-65.00244140625
-61.34033203125
-54.01611328125
-53.1005859375
-53.1005859375
-59.50927734375
-59.50927734375
-57.67822265625
-56.7626953125
-65.91796875
-58.59375
-63.17138671875
-62.255859375
-59.50927734375
-55.84716796875
-54.931640625
-48.52294921875
-45.7763671875
-45.7763671875
-45.7763671875
-49.4384765625
-44.86083984375
-55.84716796875
-64.0869140625
-63.17138671875
-61.34033203125
-48.52294921875
-41.19873046875
-38.4521484375
-48.52294921875
-51.26953125
-47.607421875
-49.4384765625
-49.4384765625
-54.01611328125
-60.4248046875
-70.49560546875
-73.2421875
-76.904296875
-89.7216796875
-91.552734375
-99.79248046875
-109.86328125
-109.86328125
-111.6943359375
-112.60986328125
-103.45458984375
-101.62353515625
-107.11669921875
-98.876953125
-97.96142578125
-96.13037109375
-110.77880859375
-115.3564453125
-108.94775390625
-108.94775390625
-107.11669921875
-114.44091796875
-112.60986328125
-102.5390625
-109.86328125
-108.94775390625
-102.5390625
-100.7080078125
-100.7080078125
-98.876953125
-100.7080078125
-111.6943359375
-118.10302734375
-114.44091796875
-110.77880859375
-111.6943359375
-106.201171875
-105.28564453125
-110.77880859375
-99.79248046875
-100.7080078125
-103.45458984375
-100.7080078125
-108.94775390625
-107.11669921875
-104.3701171875
-106.201171875
-97.0458984375
-94.29931640625
-95.21484375
-108.0322265625
-104.3701171875
-100.7080078125
-99.79248046875
-102.5390625
-98.876953125
-105.28564453125
-109.86328125
-104.3701171875
-94.29931640625
-77.81982421875
-67.7490234375
-70.49560546875
-80.56640625
-61.34033203125
-51.26953125
-43.9453125
20.1416015625
106.201171875
194.091796875
296.630859375
402.83203125
576.7822265625
764.46533203125
853.271484375
857.84912109375
910.0341796875
974.12109375
988.76953125
1024.47509765625
1016.2353515625
967.71240234375
871.58203125
729.67529296875
556.640625
348.81591796875
175.78125
59.50927734375
0.91552734375
-25.634765625
-35.70556640625
-37.53662109375
-48.52294921875
-57.67822265625
-65.00244140625
-67.7490234375
-51.26953125
-31.1279296875
-15.56396484375
-7.32421875
5.4931640625
4.57763671875
0
0.91552734375
-1.8310546875
-1.8310546875
-8.23974609375
-15.56396484375
-24.71923828125
-17.39501953125
-21.97265625
-25.634765625
-23.8037109375
-28.38134765625
-24.71923828125
-25.634765625
-16.4794921875
-22.88818359375
-26.55029296875
-17.39501953125
-24.71923828125
-21.05712890625
-20.1416015625
-25.634765625
-16.4794921875
-7.32421875
-8.23974609375
-13.73291015625
-14.6484375
-6.40869140625
-0.91552734375
-6.40869140625
-10.07080078125
-8.23974609375
-7.32421875
-4.57763671875
-7.32421875
-0.91552734375
1.8310546875
-0.91552734375
-0.91552734375
0.91552734375
6.40869140625
13.73291015625
10.986328125
16.4794921875
10.986328125
14.6484375
19.22607421875
11.90185546875
21.97265625
23.8037109375
24.71923828125
27.4658203125
38.4521484375
39.36767578125
36.62109375
43.02978515625
43.02978515625
45.7763671875
47.607421875
54.931640625
55.84716796875
47.607421875
49.4384765625
61.34033203125
67.7490234375
61.34033203125
65.91796875
67.7490234375
63.17138671875
74.15771484375
79.65087890625
75.0732421875
77.81982421875
87.890625
92.46826171875
100.7080078125
102.5390625
109.86328125
115.3564453125
119.93408203125
122.6806640625
129.08935546875
131.8359375
134.58251953125
136.41357421875
149.23095703125
159.3017578125
162.9638671875
162.04833984375
166.6259765625
175.78125
174.86572265625
184.02099609375
186.767578125
188.5986328125
195.9228515625
195.00732421875
197.75390625
201.416015625
208.740234375
216.064453125
218.81103515625
222.47314453125
228.8818359375
229.79736328125
226.13525390625
220.64208984375
221.5576171875
226.13525390625
224.30419921875
215.14892578125
203.2470703125
196.83837890625
194.091796875
184.02099609375
173.9501953125
153.80859375
143.73779296875
134.58251953125
122.6806640625
119.93408203125
102.5390625
86.97509765625
81.48193359375
76.904296875
58.59375
48.52294921875
38.4521484375
25.634765625
15.56396484375
10.07080078125
-1.8310546875
-14.6484375
-16.4794921875
-16.4794921875
-21.97265625
-32.958984375
-34.7900390625
-43.02978515625
-34.7900390625
-40.283203125
-49.4384765625
-54.931640625
-56.7626953125
-56.7626953125
-54.931640625
-61.34033203125
-70.49560546875
-71.4111328125
-69.580078125
-65.00244140625
-68.66455078125
-74.15771484375
-77.81982421875
-73.2421875
-68.66455078125
-71.4111328125
-73.2421875
-83.31298828125
-78.7353515625
-77.81982421875
-75.98876953125
-77.81982421875
-75.0732421875
-72.32666015625
-78.7353515625
-81.48193359375
-87.890625
-89.7216796875
-77.81982421875
-73.2421875
-67.7490234375
-69.580078125
-77.81982421875
-80.56640625
-80.56640625
-72.32666015625
-76.904296875
-80.56640625
-75.0732421875
-71.4111328125
-78.7353515625
-78.7353515625
-72.32666015625
-71.4111328125
-67.7490234375
-68.66455078125
-64.0869140625
-66.83349609375
-67.7490234375
-63.17138671875
-63.17138671875
-72.32666015625
-67.7490234375
-68.66455078125
-58.59375
-60.4248046875
-54.01611328125
-55.84716796875
-58.59375
-57.67822265625
-58.59375
-64.0869140625
-65.00244140625
-62.255859375
-60.4248046875
-62.255859375
-57.67822265625
-54.01611328125
-56.7626953125
-58.59375
-65.91796875
-60.4248046875
-59.50927734375
-65.91796875
-62.255859375
-61.34033203125
-57.67822265625
-65.00244140625
-67.7490234375
-59.50927734375
-59.50927734375
-55.84716796875
-60.4248046875
-67.7490234375
-65.00244140625
-61.34033203125
-65.91796875
-75.0732421875
-77.81982421875
-71.4111328125
-70.49560546875
-67.7490234375
-73.2421875
-75.0732421875
-77.81982421875
-75.98876953125
-70.49560546875
-79.65087890625
-86.97509765625
-92.46826171875
-79.65087890625
-74.15771484375
-83.31298828125
-76.904296875
-83.31298828125
-84.228515625
-83.31298828125
-82.3974609375
-86.97509765625
-75.98876953125
-74.15771484375
-78.7353515625
-91.552734375
-79.65087890625
-76.904296875
-84.228515625
-84.228515625
-77.81982421875
-68.66455078125
-76.904296875
-81.48193359375
-74.15771484375
-72.32666015625
-83.31298828125
-80.56640625
-80.56640625
-83.31298828125
-84.228515625
-81.48193359375
-80.56640625
-83.31298828125
-87.890625
-93.3837890625
-87.890625
-92.46826171875
-93.3837890625
-87.890625
-82.3974609375
-86.0595703125
-86.0595703125
-86.97509765625
-85.14404296875
-95.21484375
-85.14404296875
-87.890625
-83.31298828125
-84.228515625
-89.7216796875
-93.3837890625
-88.80615234375
-90.63720703125
-100.7080078125
-93.3837890625
-84.228515625
-91.552734375
-85.14404296875
-82.3974609375
-92.46826171875
-92.46826171875
-90.63720703125
-90.63720703125
-88.80615234375
-90.63720703125
-97.96142578125
-93.3837890625
-91.552734375
-90.63720703125
-93.3837890625
-94.29931640625
-89.7216796875
-90.63720703125
-97.0458984375
-92.46826171875
-97.0458984375
-97.96142578125
-95.21484375
-90.63720703125
-84.228515625
-75.98876953125
-77.81982421875
-80.56640625
-71.4111328125
-68.66455078125
-66.83349609375
-61.34033203125
-62.255859375
-61.34033203125
-55.84716796875
-58.59375
-54.931640625
-50.35400390625
-57.67822265625
-67.7490234375
-68.66455078125
-66.83349609375
-65.91796875
-54.01611328125
-47.607421875
-52.18505859375
-60.4248046875
-57.67822265625
-49.4384765625
-42.1142578125
-41.19873046875
-44.86083984375
-50.35400390625
-47.607421875
-46.69189453125
-58.59375
-60.4248046875
-59.50927734375
-56.7626953125
-48.52294921875
-48.52294921875
-43.9453125
-52.18505859375
-54.931640625
-52.18505859375
-54.931640625
-58.59375
-65.91796875
-77.81982421875
-81.48193359375
-76.904296875
-78.7353515625
-87.890625
-95.21484375
-99.79248046875
-108.0322265625
-107.11669921875
-105.28564453125
-111.6943359375
-119.0185546875
-110.77880859375
-108.0322265625
-104.3701171875
-107.11669921875
-108.0322265625
-110.77880859375
-108.94775390625
-109.86328125
-116.27197265625
-110.77880859375
-107.11669921875
-107.11669921875
-101.62353515625
-108.0322265625
-109.86328125
-118.10302734375
-115.3564453125
-102.5390625
-98.876953125
-101.62353515625
-112.60986328125
-112.60986328125
-108.0322265625
-108.94775390625
-108.94775390625
-114.44091796875
-105.28564453125
-96.13037109375
-108.94775390625
-103.45458984375
-101.62353515625
-103.45458984375
-103.45458984375
-101.62353515625
-99.79248046875
-101.62353515625
-99.79248046875
-103.45458984375
-100.7080078125
-110.77880859375
-102.5390625
-103.45458984375
-100.7080078125
-100.7080078125
-99.79248046875
-101.62353515625
-104.3701171875
-97.96142578125
-78.7353515625
-65.00244140625
-65.00244140625
-75.0732421875
-76.904296875
-58.59375
-54.931640625
-23.8037109375
50.35400390625
136.41357421875
231.62841796875
316.7724609375
444.03076171875
639.95361328125
820.3125
868.83544921875
878.90625
956.72607421875
994.2626953125
1018.06640625
1037.29248046875
1021.728515625
955.810546875
841.36962890625
677.490234375
500.79345703125
301.20849609375
136.41357421875
15.56396484375
-34.7900390625
-45.7763671875
-51.26953125
-47.607421875
-61.34033203125
-63.17138671875
-53.1005859375
-36.62109375
-16.4794921875
-6.40869140625
3.662109375
-1.8310546875
0
0.91552734375
0
-0.91552734375
-12.8173828125
-7.32421875
-6.40869140625
-16.4794921875
-17.39501953125
-18.310546875
-22.88818359375
-21.05712890625
-17.39501953125
-21.05712890625
-23.8037109375
-21.05712890625
-21.05712890625
-16.4794921875
-19.22607421875
-17.39501953125
-21.05712890625
-24.71923828125
-13.73291015625
-12.8173828125
-17.39501953125
-25.634765625
-22.88818359375
-18.310546875
-11.90185546875
-3.662109375
-5.4931640625
-10.07080078125
-6.40869140625
-0.91552734375
-1.8310546875
-6.40869140625
-9.1552734375
-2.74658203125
-0.91552734375
-0.91552734375
-0.91552734375
1.8310546875
4.57763671875
3.662109375
13.73291015625
17.39501953125
16.4794921875
12.8173828125
17.39501953125
17.39501953125
29.296875
20.1416015625
22.88818359375
27.4658203125
31.1279296875
30.21240234375
32.04345703125
32.04345703125
30.21240234375
39.36767578125
46.69189453125
52.18505859375
49.4384765625
48.52294921875
50.35400390625
53.1005859375
58.59375
59.50927734375
59.50927734375
72.32666015625
74.15771484375
75.0732421875
85.14404296875
92.46826171875
90.63720703125
102.5390625
101.62353515625
101.62353515625
100.7080078125
97.0458984375
110.77880859375
121.76513671875
119.93408203125
130.92041015625
140.9912109375
142.822265625
149.23095703125
155.6396484375
162.04833984375
169.37255859375
180.35888671875
176.69677734375
184.9365234375
195.00732421875
196.83837890625
195.00732421875
201.416015625
210.5712890625
211.48681640625
215.14892578125
216.97998046875
214.2333984375
214.2333984375
223.388671875
224.30419921875
230.712890625
237.12158203125
232.5439453125
233.45947265625
231.62841796875
234.375
217.8955078125
211.48681640625
205.99365234375
201.416015625
202.33154296875
192.2607421875
181.2744140625
169.37255859375
152.89306640625
141.90673828125
133.6669921875
119.93408203125
102.5390625
86.97509765625
75.98876953125
63.17138671875
58.59375
45.7763671875
42.1142578125
21.05712890625
14.6484375
12.8173828125
11.90185546875
-0.91552734375
-13.73291015625
-24.71923828125
-13.73291015625
-10.986328125
-23.8037109375
-33.87451171875
-37.53662109375
-45.7763671875
-41.19873046875
-43.9453125
-54.931640625
-58.59375
-61.34033203125
-61.34033203125
-54.931640625
-57.67822265625
-54.931640625
-49.4384765625
-65.00244140625
-68.66455078125
-64.0869140625
-70.49560546875
-80.56640625
-75.0732421875
-65.00244140625
-64.0869140625
-63.17138671875
-64.0869140625
-66.83349609375
-67.7490234375
-69.580078125
-69.580078125
-71.4111328125
-68.66455078125
-62.255859375
-62.255859375
-65.91796875
-68.66455078125
-73.2421875
-66.83349609375
-63.17138671875
-63.17138671875
-64.0869140625
-66.83349609375
-73.2421875
-67.7490234375
-64.0869140625
-56.7626953125
-56.7626953125
-61.34033203125
-63.17138671875
-53.1005859375
-58.59375
-62.255859375
-60.4248046875
-61.34033203125
-64.0869140625
-55.84716796875
-51.26953125
-48.52294921875
-51.26953125
-53.1005859375
-60.4248046875
-54.931640625
-58.59375
-56.7626953125
-52.18505859375
-55.84716796875
-48.52294921875
-48.52294921875
-40.283203125
-45.7763671875
-58.59375
-51.26953125
-49.4384765625
-47.607421875
-48.52294921875
-63.17138671875
-53.1005859375
-42.1142578125
-48.52294921875
-58.59375
-61.34033203125
-54.01611328125
-59.50927734375
-59.50927734375
-50.35400390625
-56.7626953125
-60.4248046875
-57.67822265625
-55.84716796875
-51.26953125
-59.50927734375
-59.50927734375
-59.50927734375
-63.17138671875
-74.15771484375
-75.98876953125
-70.49560546875
-68.66455078125
-65.91796875
-74.15771484375
-70.49560546875
-76.904296875
-77.81982421875
-71.4111328125
-71.4111328125
-76.904296875
-76.904296875
-71.4111328125
-76.904296875
-79.65087890625
-72.32666015625
-72.32666015625
-69.580078125
-70.49560546875
-75.98876953125
-75.0732421875
-70.49560546875
-75.0732421875
-86.97509765625
-83.31298828125
-79.65087890625
-82.3974609375
-84.228515625
-85.14404296875
-84.228515625
-81.48193359375
-76.904296875
-85.14404296875
-81.48193359375
-79.65087890625
-70.49560546875
-80.56640625
-87.890625
-86.97509765625
-87.890625
-81.48193359375
-78.7353515625
-79.65087890625
-83.31298828125
-86.97509765625
-88.80615234375
-86.0595703125
-82.3974609375
-82.3974609375
-77.81982421875
-77.81982421875
-78.7353515625
-79.65087890625
-79.65087890625
-82.3974609375
-82.3974609375
-89.7216796875
-85.14404296875
-85.14404296875
-82.3974609375
-88.80615234375
-93.3837890625
-93.3837890625
-86.0595703125
-82.3974609375
-85.14404296875
-81.48193359375
-81.48193359375
-82.3974609375
-81.48193359375
-90.63720703125
-89.7216796875
-85.14404296875
-84.228515625
-84.228515625
-84.228515625
-82.3974609375
-88.80615234375
-93.3837890625
-91.552734375
-78.7353515625
-77.81982421875
-75.98876953125
-75.0732421875
-79.65087890625
-73.2421875
-72.32666015625
-68.66455078125
-77.81982421875
-73.2421875
-71.4111328125
-57.67822265625
-56.7626953125
-54.931640625
-58.59375
-66.83349609375
-61.34033203125
-45.7763671875
-44.86083984375
-44.86083984375
-41.19873046875
-45.7763671875
-54.01611328125
-56.7626953125
-54.931640625
-39.36767578125
-44.86083984375
-54.01611328125
-48.52294921875
-42.1142578125
-36.62109375
-35.70556640625
-35.70556640625
-41.19873046875
-45.7763671875
-43.9453125
-44.86083984375
-50.35400390625
-54.931640625
-57.67822265625
-43.9453125
-33.87451171875
-37.53662109375
-36.62109375
-38.4521484375
-37.53662109375
-37.53662109375
-44.86083984375
-57.67822265625
-70.49560546875
-72.32666015625
-73.2421875
-75.98876953125
-73.2421875
-77.81982421875
-94.29931640625
-98.876953125
-97.96142578125
-104.3701171875
-100.7080078125
-101.62353515625
-104.3701171875
-96.13037109375
-99.79248046875
-103.45458984375
-99.79248046875
-103.45458984375
-101.62353515625
-98.876953125
-101.62353515625
-104.3701171875
-98.876953125
-91.552734375
-99.79248046875
-96.13037109375
-100.7080078125
-100.7080078125
-99.79248046875
-101.62353515625
-104.3701171875
-102.5390625
-98.876953125
-106.201171875
-113.525390625
-99.79248046875
-99.79248046875
-108.94775390625
-100.7080078125
-97.96142578125
-99.79248046875
-100.7080078125
-98.876953125
-93.3837890625
-97.0458984375
-100.7080078125
-98.876953125
-93.3837890625
-92.46826171875
-92.46826171875
-86.97509765625
-93.3837890625
-95.21484375
-92.46826171875
-86.97509765625
-86.97509765625
-97.96142578125
-99.79248046875
-97.96142578125
-92.46826171875
-68.66455078125
-47.607421875
-53.1005859375
-49.4384765625
-52.18505859375
-43.9453125
-38.4521484375
-13.73291015625
47.607421875
132.75146484375
227.96630859375
314.02587890625
419.3115234375
591.4306640625
790.10009765625
872.49755859375
873.4130859375
938.41552734375
1003.41796875
1014.404296875
1040.0390625
1033.63037109375
1002.50244140625
903.62548828125
745.2392578125
555.72509765625
355.224609375
188.5986328125
39.36767578125
-26.55029296875
-44.86083984375
-48.52294921875
-51.26953125
-55.84716796875
-50.35400390625
-29.296875
-9.1552734375
7.32421875
17.39501953125
22.88818359375
24.71923828125
19.22607421875
22.88818359375
18.310546875
2.74658203125
1.8310546875
-0.91552734375
-8.23974609375
-9.1552734375
-13.73291015625
-7.32421875
1.8310546875
-5.4931640625
-10.07080078125
-6.40869140625
-3.662109375
-8.23974609375
-10.986328125
-12.8173828125
-10.07080078125
-3.662109375
-0.91552734375
-1.8310546875
-0.91552734375
0.91552734375
-1.8310546875
0.91552734375
-2.74658203125
-0.91552734375
1.8310546875
0.91552734375
1.8310546875
4.57763671875
6.40869140625
12.8173828125
11.90185546875
7.32421875
10.07080078125
12.8173828125
7.32421875
9.1552734375
13.73291015625
21.97265625
20.1416015625
26.55029296875
25.634765625
27.4658203125
32.04345703125
36.62109375
37.53662109375
27.4658203125
29.296875
35.70556640625
39.36767578125
44.86083984375
47.607421875
51.26953125
43.9453125
47.607421875
49.4384765625
46.69189453125
51.26953125
64.0869140625
68.66455078125
73.2421875
63.17138671875
70.49560546875
69.580078125
82.3974609375
86.0595703125
85.14404296875
85.14404296875
86.97509765625
99.79248046875
99.79248046875
101.62353515625
113.525390625
119.93408203125
120.849609375
125.42724609375
139.16015625
137.3291015625
143.73779296875
151.9775390625
156.55517578125
151.06201171875
162.9638671875
168.45703125
172.119140625
183.10546875
183.10546875
191.34521484375
186.767578125
188.5986328125
201.416015625
213.31787109375
216.97998046875
217.8955078125
222.47314453125
225.2197265625
230.712890625
233.45947265625
236.2060546875
232.5439453125
231.62841796875
234.375
247.1923828125
249.93896484375
255.43212890625
255.43212890625
238.95263671875
236.2060546875
238.037109375
229.79736328125
225.2197265625
217.8955078125
209.65576171875
196.83837890625
194.091796875
180.35888671875
170.2880859375
161.1328125
140.9912109375
125.42724609375
107.11669921875
91.552734375
87.890625
79.65087890625
65.00244140625
58.59375
51.26953125
36.62109375
14.6484375
11.90185546875
15.56396484375
0.91552734375
-0.91552734375
-5.4931640625
-19.22607421875
-25.634765625
-32.04345703125
-34.7900390625
-43.9453125
-43.9453125
-49.4384765625
-57.67822265625
-60.4248046875
-63.17138671875
-59.50927734375
-62.255859375
-57.67822265625
-56.7626953125
-58.59375
-65.00244140625
-64.0869140625
-65.91796875
-83.31298828125
-84.228515625
-73.2421875
-66.83349609375
-67.7490234375
-69.580078125
-75.0732421875
-71.4111328125
-83.31298828125
-82.3974609375
-75.0732421875
-78.7353515625
-73.2421875
-73.2421875
-76.904296875
-73.2421875
-75.0732421875
-69.580078125
-66.83349609375
-65.00244140625
-69.580078125
-77.81982421875
-74.15771484375
-73.2421875
-67.7490234375
-66.83349609375
-72.32666015625
-70.49560546875
-75.98876953125
-66.83349609375
-68.66455078125
-76.904296875
-75.0732421875
-69.580078125
-63.17138671875
-61.34033203125
-62.255859375
-62.255859375
-63.17138671875
-66.83349609375
-65.91796875
-68.66455078125
-65.00244140625
-58.59375
-58.59375
-54.01611328125
-55.84716796875
-52.18505859375
-56.7626953125
-59.50927734375
-58.59375
-50.35400390625
-49.4384765625
-58.59375
-64.0869140625
-58.59375
-61.34033203125
-54.01611328125
-52.18505859375
-61.34033203125
-57.67822265625
-59.50927734375
-53.1005859375
-47.607421875
-47.607421875
-49.4384765625
-52.18505859375
-58.59375
-51.26953125
-54.01611328125
-61.34033203125
-61.34033203125
-53.1005859375
-58.59375
-59.50927734375
-56.7626953125
-60.4248046875
-54.01611328125
-53.1005859375
-64.0869140625
-62.255859375
-58.59375
-55.84716796875
-62.255859375
-66.83349609375
-64.0869140625
-60.4248046875
-70.49560546875
-65.00244140625
-69.580078125
-72.32666015625
-68.66455078125
-72.32666015625
-75.0732421875
-76.904296875
-70.49560546875
-67.7490234375
-68.66455078125
-65.91796875
-75.98876953125
-76.904296875
-67.7490234375
-78.7353515625
-76.904296875
-65.00244140625
-68.66455078125
-81.48193359375
-73.2421875
-79.65087890625
-75.0732421875
-69.580078125
-75.0732421875
-84.228515625
-86.97509765625
-84.228515625
-77.81982421875
-79.65087890625
-82.3974609375
-85.14404296875
-72.32666015625
-75.98876953125
-78.7353515625
-74.15771484375
-83.31298828125
-75.0732421875
-71.4111328125
-75.98876953125
-69.580078125
-72.32666015625
-85.14404296875
-87.890625
-77.81982421875
-75.0732421875
-75.98876953125
-68.66455078125
-67.7490234375
-74.15771484375
-79.65087890625
-74.15771484375
-74.15771484375
-81.48193359375
-79.65087890625
-76.904296875
-80.56640625
-74.15771484375
-75.0732421875
-76.904296875
-80.56640625
-77.81982421875
-70.49560546875
-77.81982421875
-76.904296875
-73.2421875
-68.66455078125
-69.580078125
-68.66455078125
-61.34033203125
-63.17138671875
-73.2421875
-65.00244140625
-59.50927734375
-56.7626953125
-54.931640625
-56.7626953125
-48.52294921875
-46.69189453125
-46.69189453125
-34.7900390625
-32.958984375
-45.7763671875
-58.59375
-50.35400390625
-50.35400390625
-47.607421875
-47.607421875
-37.53662109375
-47.607421875
-45.7763671875
-48.52294921875
-43.02978515625
-30.21240234375
-31.1279296875
-32.04345703125
-39.36767578125
-40.283203125
-43.9453125
-47.607421875
-51.26953125
-57.67822265625
-56.7626953125
-42.1142578125
-31.1279296875
-33.87451171875
-31.1279296875
-30.21240234375
-32.04345703125
-33.87451171875
-38.4521484375
-45.7763671875
-48.52294921875
-57.67822265625
-65.91796875
-61.34033203125
-65.91796875
-78.7353515625
-87.890625
-91.552734375
-101.62353515625
-104.3701171875
-99.79248046875
-89.7216796875
-90.63720703125
-99.79248046875
-98.876953125
-97.96142578125
-98.876953125
-92.46826171875
-92.46826171875
-97.96142578125
-87.890625
-88.80615234375
-96.13037109375
-96.13037109375
-97.0458984375
-96.13037109375
-93.3837890625
-82.3974609375
-86.97509765625
-92.46826171875
-99.79248046875
-99.79248046875
-95.21484375
-97.96142578125
-91.552734375
-93.3837890625
-97.0458984375
-99.79248046875
-97.0458984375
-97.96142578125
-106.201171875
-105.28564453125
-97.96142578125
-102.5390625
-98.876953125
-94.29931640625
-92.46826171875
-90.63720703125
-95.21484375
-91.552734375
-88.80615234375
-90.63720703125
-91.552734375
-91.552734375
-91.552734375
-84.228515625
-80.56640625
-81.48193359375
-88.80615234375
-89.7216796875
-77.81982421875
-61.34033203125
-41.19873046875
-43.9453125
-54.931640625
-57.67822265625
-43.02978515625
-27.4658203125
2.74658203125
69.580078125
153.80859375
248.10791015625
333.251953125
456.84814453125
639.95361328125
819.39697265625
865.17333984375
877.0751953125
950.3173828125
997.00927734375
1010.7421875
1024.47509765625
1018.06640625
967.71240234375
842.28515625
682.06787109375
490.72265625
297.54638671875
145.56884765625
24.71923828125
-28.38134765625
-35.70556640625
-32.958984375
-46.69189453125
-51.26953125
-49.4384765625
-35.70556640625
-9.1552734375
10.986328125
21.97265625
32.04345703125
23.8037109375
20.1416015625
17.39501953125
13.73291015625
9.1552734375
0.91552734375
4.57763671875
1.8310546875
-9.1552734375
-11.90185546875
-9.1552734375
-4.57763671875
-10.07080078125
-8.23974609375
-9.1552734375
0
-4.57763671875
-10.986328125
-3.662109375
0.91552734375
-4.57763671875
3.662109375
-0.91552734375
-0.91552734375
0.91552734375
-6.40869140625
0.91552734375
7.32421875
6.40869140625
3.662109375
0.91552734375
-2.74658203125
3.662109375
3.662109375
2.74658203125
10.07080078125
10.986328125
7.32421875
1.8310546875
10.986328125
18.310546875
14.6484375
27.4658203125
28.38134765625
21.97265625
32.958984375
32.04345703125
28.38134765625
25.634765625
32.04345703125
36.62109375
36.62109375
43.02978515625
42.1142578125
43.02978515625
42.1142578125
45.7763671875
46.69189453125
50.35400390625
49.4384765625
56.7626953125
55.84716796875
59.50927734375
67.7490234375
65.00244140625
73.2421875
77.81982421875
78.7353515625
76.904296875
75.98876953125
78.7353515625
85.14404296875
90.63720703125
87.890625
97.0458984375
107.11669921875
108.0322265625
114.44091796875
121.76513671875
124.51171875
128.173828125
132.75146484375
136.41357421875
143.73779296875
151.9775390625
156.55517578125
160.21728515625
164.794921875
168.45703125
170.2880859375
172.119140625
189.51416015625
198.66943359375
204.16259765625
204.16259765625
205.078125
211.48681640625
220.64208984375
227.96630859375
227.05078125
231.62841796875
241.69921875
238.95263671875
238.95263671875
244.44580078125
249.93896484375
245.361328125
246.27685546875
240.78369140625
245.361328125
240.78369140625
239.8681640625
233.45947265625
230.712890625
224.30419921875
210.5712890625
202.33154296875
194.091796875
180.35888671875
168.45703125
151.9775390625
136.41357421875
127.25830078125
114.44091796875
92.46826171875
84.228515625
84.228515625
70.49560546875
62.255859375
53.1005859375
46.69189453125
42.1142578125
27.4658203125
17.39501953125
13.73291015625
-0.91552734375
-5.4931640625
-19.22607421875
-22.88818359375
-27.4658203125
-32.04345703125
-33.87451171875
-34.7900390625
-38.4521484375
-37.53662109375
-44.86083984375
-44.86083984375
-48.52294921875
-45.7763671875
-48.52294921875
-52.18505859375
-53.1005859375
-59.50927734375
-57.67822265625
-65.91796875
-67.7490234375
-62.255859375
-61.34033203125
-66.83349609375
-64.0869140625
-65.00244140625
-64.0869140625
-61.34033203125
-65.91796875
-68.66455078125
-68.66455078125
-68.66455078125
-65.00244140625
-70.49560546875
-64.0869140625
-60.4248046875
-67.7490234375
-67.7490234375
-61.34033203125
-61.34033203125
-66.83349609375
-72.32666015625
-64.0869140625
-57.67822265625
-57.67822265625
-52.18505859375
-57.67822265625
-54.931640625
-48.52294921875
-48.52294921875
-51.26953125
-64.0869140625
-64.0869140625
-59.50927734375
-58.59375
-59.50927734375
-57.67822265625
-53.1005859375
-44.86083984375
-49.4384765625
-60.4248046875
-51.26953125
-49.4384765625
-51.26953125
-47.607421875
-45.7763671875
-47.607421875
-46.69189453125
-39.36767578125
-34.7900390625
-39.36767578125
-33.87451171875
-32.958984375
-43.9453125
-46.69189453125
-53.1005859375
-51.26953125
-44.86083984375
-43.02978515625
-52.18505859375
-44.86083984375
-37.53662109375
-40.283203125
-39.36767578125
-40.283203125
-38.4521484375
-42.1142578125
-43.02978515625
-42.1142578125
-43.9453125
-43.02978515625
-37.53662109375
-42.1142578125
-46.69189453125
-45.7763671875
-43.02978515625
-50.35400390625
-54.01611328125
-50.35400390625
-54.01611328125
-56.7626953125
-54.931640625
-54.01611328125
-53.1005859375
-53.1005859375
-53.1005859375
-55.84716796875
-57.67822265625
-58.59375
-55.84716796875
-56.7626953125
-55.84716796875
-59.50927734375
-65.91796875
-74.15771484375
-69.580078125
-62.255859375
-65.91796875
-70.49560546875
-65.00244140625
-66.83349609375
-65.00244140625
-59.50927734375
-65.91796875
-62.255859375
-68.66455078125
-65.91796875
-61.34033203125
-70.49560546875
-65.91796875
-66.83349609375
-69.580078125
-65.91796875
-54.931640625
-50.35400390625
-61.34033203125
-65.00244140625
-62.255859375
-65.00244140625
-67.7490234375
-66.83349609375
-78.7353515625
-72.32666015625
-65.00244140625
-63.17138671875
-64.0869140625
-67.7490234375
-69.580078125
-68.66455078125
-61.34033203125
-65.91796875
-71.4111328125
-78.7353515625
-81.48193359375
-77.81982421875
-76.904296875
-74.15771484375
-76.904296875
-80.56640625
-74.15771484375
-75.98876953125
-76.904296875
-71.4111328125
-68.66455078125
-76.904296875
-74.15771484375
-73.2421875
-75.98876953125
-71.4111328125
-74.15771484375
-75.98876953125
-79.65087890625
-74.15771484375
-74.15771484375
-74.15771484375
-65.00244140625
-61.34033203125
-63.17138671875
-61.34033203125
-59.50927734375
-56.7626953125
-54.01611328125
-43.9453125
-40.283203125
-38.4521484375
-49.4384765625
-54.01611328125
-54.931640625
-46.69189453125
-49.4384765625
-45.7763671875
-42.1142578125
-39.36767578125
-45.7763671875
-52.18505859375
-46.69189453125
-48.52294921875
-33.87451171875
-29.296875
-21.05712890625
-32.04345703125
-33.87451171875
-32.958984375
-40.283203125
-54.01611328125
-60.4248046875
-53.1005859375
-34.7900390625
-25.634765625
-27.4658203125
-36.62109375
-44.86083984375
-51.26953125
-40.283203125
-32.04345703125
-44.86083984375
-64.0869140625
-72.32666015625
-65.00244140625
-67.7490234375
-79.65087890625
-84.228515625
-88.80615234375
-91.552734375
-97.96142578125
-91.552734375
-96.13037109375
-102.5390625
-102.5390625
-90.63720703125
-99.79248046875
-104.3701171875
-98.876953125
-97.96142578125
-98.876953125
-97.0458984375
-107.11669921875
-105.28564453125
-95.21484375
-97.0458984375
-96.13037109375
-93.3837890625
-93.3837890625
-92.46826171875
-99.79248046875
-104.3701171875
-105.28564453125
-98.876953125
-97.96142578125
-103.45458984375
-99.79248046875
-104.3701171875
-103.45458984375
-103.45458984375
-101.62353515625
-97.0458984375
-96.13037109375
-95.21484375
-95.21484375
-97.96142578125
-95.21484375
-88.80615234375
-92.46826171875
-89.7216796875
-95.21484375
-97.96142578125
-93.3837890625
-93.3837890625
-86.97509765625
-97.0458984375
-93.3837890625
-100.7080078125
-96.13037109375
-96.13037109375
-106.201171875
-110.77880859375
-95.21484375
-77.81982421875
-58.59375
-58.59375
-68.66455078125
-79.65087890625
-51.26953125
-40.283203125
-21.05712890625
45.7763671875
125.42724609375
227.96630859375
313.1103515625
443.115234375
636.29150390625
800.1708984375
845.947265625
867.00439453125
930.17578125
980.52978515625
1000.67138671875
1022.64404296875
1002.50244140625
937.5
822.1435546875
665.58837890625
488.8916015625
286.56005859375
128.173828125
24.71923828125
-20.1416015625
-32.04345703125
-40.283203125
-48.52294921875
-60.4248046875
-65.91796875
-75.0732421875
-63.17138671875
-34.7900390625
-20.1416015625
-10.986328125
-9.1552734375
-3.662109375
-3.662109375
-7.32421875
-5.4931640625
-12.8173828125
-12.8173828125
-11.90185546875
-20.1416015625
-25.634765625
-32.04345703125
-25.634765625
-22.88818359375
-21.05712890625
-25.634765625
-32.958984375
-32.04345703125
-19.22607421875
-14.6484375
-24.71923828125
-21.05712890625
-19.22607421875
-12.8173828125
-19.22607421875
-26.55029296875
-15.56396484375
-8.23974609375
-14.6484375
-20.1416015625
-10.986328125
-11.90185546875
-14.6484375
-14.6484375
-11.90185546875
-12.8173828125
-6.40869140625
-4.57763671875
-4.57763671875
-2.74658203125
3.662109375
4.57763671875
0.91552734375
-2.74658203125
0.91552734375
12.8173828125
13.73291015625
12.8173828125
1.8310546875
11.90185546875
17.39501953125
18.310546875
13.73291015625
13.73291015625
25.634765625
31.1279296875
29.296875
29.296875
32.958984375
34.7900390625
31.1279296875
38.4521484375
41.19873046875
48.52294921875
54.01611328125
51.26953125
49.4384765625
54.01611328125
57.67822265625
54.931640625
59.50927734375
65.91796875
75.0732421875
74.15771484375
84.228515625
90.63720703125
90.63720703125
95.21484375
102.5390625
105.28564453125
114.44091796875
116.27197265625
109.86328125
119.0185546875
125.42724609375
130.92041015625
131.8359375
135.498046875
151.06201171875
153.80859375
159.3017578125
171.20361328125
163.87939453125
171.20361328125
185.85205078125
182.18994140625
182.18994140625
187.68310546875
187.68310546875
197.75390625
205.078125
209.65576171875
213.31787109375
228.8818359375
225.2197265625
220.64208984375
227.05078125
233.45947265625
239.8681640625
240.78369140625
231.62841796875
227.96630859375
227.96630859375
218.81103515625
205.99365234375
204.16259765625
192.2607421875
183.10546875
184.02099609375
161.1328125
153.80859375
140.9912109375
125.42724609375
109.86328125
100.7080078125
89.7216796875
74.15771484375
60.4248046875
53.1005859375
49.4384765625
34.7900390625
22.88818359375
18.310546875
15.56396484375
4.57763671875
-0.91552734375
-8.23974609375
-20.1416015625
-23.8037109375
-30.21240234375
-36.62109375
-36.62109375
-34.7900390625
-48.52294921875
-57.67822265625
-57.67822265625
-63.17138671875
-63.17138671875
-65.91796875
-59.50927734375
-60.4248046875
-62.255859375
-73.2421875
-82.3974609375
-75.0732421875
-73.2421875
-69.580078125
-68.66455078125
-80.56640625
-77.81982421875
-72.32666015625
-73.2421875
-76.904296875
-74.15771484375
-73.2421875
-74.15771484375
-75.0732421875
-77.81982421875
-79.65087890625
-73.2421875
-81.48193359375
-76.904296875
-69.580078125
-71.4111328125
-79.65087890625
-76.904296875
-75.98876953125
-74.15771484375
-75.0732421875
-75.0732421875
-75.98876953125
-80.56640625
-75.0732421875
-67.7490234375
-66.83349609375
-71.4111328125
-77.81982421875
-74.15771484375
-75.98876953125
-70.49560546875
-66.83349609375
-60.4248046875
-62.255859375
-66.83349609375
-71.4111328125
-66.83349609375
-60.4248046875
-66.83349609375
-68.66455078125
-69.580078125
-69.580078125
-61.34033203125
-68.66455078125
-62.255859375
-58.59375
-54.01611328125
-48.52294921875
-54.931640625
-57.67822265625
-54.01611328125
-45.7763671875
-54.01611328125
-60.4248046875
-65.00244140625
-67.7490234375
-55.84716796875
-55.84716796875
-53.1005859375
-57.67822265625
-55.84716796875
-60.4248046875
-67.7490234375
-63.17138671875
-61.34033203125
