ECG
-86.97509765625
-94.29931640625
-93.3837890625
-93.3837890625
-90.63720703125
-93.3837890625
-101.62353515625
-108.0322265625
-113.525390625
-115.3564453125
-111.6943359375
-116.27197265625
-119.0185546875
-116.27197265625
-116.27197265625
-114.44091796875
-112.60986328125
-123.59619140625
-130.92041015625
-126.3427734375
-125.42724609375
-128.173828125
-119.93408203125
-121.76513671875
-126.3427734375
-133.6669921875
-137.3291015625
-135.498046875
-114.44091796875
-101.62353515625
-74.15771484375
-28.38134765625
11.90185546875
50.35400390625
107.11669921875
195.9228515625
308.53271484375
440.36865234375
597.83935546875
789.1845703125
974.12109375
1128.84521484375
1290.8935546875
1451.11083984375
1540.83251953125
1565.5517578125
1581.11572265625
1565.5517578125
1372.37548828125
1095.88623046875
872.49755859375
683.89892578125
459.5947265625
208.740234375
72.32666015625
20.1416015625
-14.6484375
-62.255859375
-90.63720703125
-110.77880859375
-86.97509765625
-62.255859375
-32.958984375
-10.07080078125
-8.23974609375
-8.23974609375
-18.310546875
-37.53662109375
-44.86083984375
-47.607421875
-45.7763671875
-43.9453125
-48.52294921875
-69.580078125
-65.91796875
-62.255859375
-65.00244140625
-73.2421875
-70.49560546875
-69.580078125
-64.0869140625
-58.59375
-59.50927734375
-61.34033203125
-65.00244140625
-61.34033203125
-64.0869140625
-73.2421875
-64.0869140625
-60.4248046875
-60.4248046875
-55.84716796875
-53.1005859375
-61.34033203125
-60.4248046875
-52.18505859375
-46.69189453125
-52.18505859375
-51.26953125
-50.35400390625
-47.607421875
-42.1142578125
-53.1005859375
-43.02978515625
-36.62109375
-36.62109375
-32.04345703125
-30.21240234375
-25.634765625
-20.1416015625
-23.8037109375
-21.97265625
-10.07080078125
1.8310546875
-5.4931640625
-14.6484375
-10.986328125
-6.40869140625
-9.1552734375
-2.74658203125
-5.4931640625
-4.57763671875
-0.91552734375
7.32421875
17.39501953125
15.56396484375
13.73291015625
18.310546875
22.88818359375
19.22607421875
26.55029296875
28.38134765625
31.1279296875
37.53662109375
43.02978515625
42.1142578125
38.4521484375
40.283203125
41.19873046875
46.69189453125
52.18505859375
56.7626953125
54.931640625
58.59375
66.83349609375
69.580078125
75.0732421875
85.14404296875
77.81982421875
74.15771484375
87.890625
94.29931640625
90.63720703125
96.13037109375
98.876953125
89.7216796875
103.45458984375
106.201171875
100.7080078125
101.62353515625
109.86328125
110.77880859375
116.27197265625
121.76513671875
122.6806640625
116.27197265625
108.0322265625
109.86328125
114.44091796875
115.3564453125
99.79248046875
106.201171875
111.6943359375
116.27197265625
111.6943359375
99.79248046875
101.62353515625
95.21484375
86.0595703125
75.98876953125
70.49560546875
66.83349609375
64.0869140625
54.01611328125
43.9453125
31.1279296875
21.05712890625
16.4794921875
0.91552734375
-8.23974609375
-18.310546875
-25.634765625
-33.87451171875
-39.36767578125
-41.19873046875
-55.84716796875
-55.84716796875
-64.0869140625
-65.91796875
-59.50927734375
-74.15771484375
-89.7216796875
-89.7216796875
-90.63720703125
-84.228515625
-99.79248046875
-97.0458984375
-91.552734375
-93.3837890625
-100.7080078125
-108.0322265625
-106.201171875
-102.5390625
-101.62353515625
-107.11669921875
-103.45458984375
-101.62353515625
-102.5390625
-99.79248046875
-99.79248046875
-102.5390625
-97.96142578125
-100.7080078125
-101.62353515625
-98.876953125
-97.0458984375
-97.0458984375
-98.876953125
-100.7080078125
-100.7080078125
-97.0458984375
-96.13037109375
-93.3837890625
-78.7353515625
-99.79248046875
-101.62353515625
-97.96142578125
-99.79248046875
-96.13037109375
-88.80615234375
-86.0595703125
-84.228515625
-88.80615234375
-92.46826171875
-86.0595703125
-83.31298828125
-83.31298828125
-90.63720703125
-89.7216796875
-86.97509765625
-91.552734375
-90.63720703125
-95.21484375
-92.46826171875
-87.890625
-86.97509765625
-89.7216796875
-88.80615234375
-86.0595703125
-91.552734375
-86.0595703125
-87.890625
-81.48193359375
-78.7353515625
-78.7353515625
-82.3974609375
-84.228515625
-80.56640625
-82.3974609375
-94.29931640625
-90.63720703125
-92.46826171875
-87.890625
-87.890625
-90.63720703125
-90.63720703125
-89.7216796875
-94.29931640625
-94.29931640625
-93.3837890625
-93.3837890625
-92.46826171875
-87.890625
-90.63720703125
-93.3837890625
-91.552734375
-92.46826171875
-95.21484375
-95.21484375
-108.94775390625
-106.201171875
-100.7080078125
-103.45458984375
-98.876953125
-98.876953125
-102.5390625
-97.96142578125
-107.11669921875
-112.60986328125
-110.77880859375
-108.0322265625
-105.28564453125
-99.79248046875
-99.79248046875
-104.3701171875
-101.62353515625
-107.11669921875
-118.10302734375
-115.3564453125
-106.201171875
-105.28564453125
-100.7080078125
-105.28564453125
-106.201171875
-102.5390625
-104.3701171875
-112.60986328125
-114.44091796875
-117.1875
-120.849609375
-112.60986328125
-107.11669921875
-111.6943359375
-109.86328125
-108.94775390625
-110.77880859375
-110.77880859375
-112.60986328125
-113.525390625
-112.60986328125
-115.3564453125
-100.7080078125
-112.60986328125
-124.51171875
-119.0185546875
-119.0185546875
-113.525390625
-116.27197265625
-121.76513671875
-120.849609375
-118.10302734375
-119.0185546875
-118.10302734375
-123.59619140625
-122.6806640625
-113.525390625
-107.11669921875
-113.525390625
-121.76513671875
-120.849609375
-112.60986328125
-115.3564453125
-117.1875
-115.3564453125
-115.3564453125
-115.3564453125
-123.59619140625
-122.6806640625
-118.10302734375
-113.525390625
-118.10302734375
-119.93408203125
-118.10302734375
-106.201171875
-119.0185546875
-123.59619140625
-118.10302734375
-113.525390625
-109.86328125
-115.3564453125
-122.6806640625
-117.1875
-117.1875
-119.0185546875
-116.27197265625
-119.0185546875
-120.849609375
-125.42724609375
-123.59619140625
-120.849609375
-119.93408203125
-119.0185546875
-113.525390625
-110.77880859375
-119.93408203125
-112.60986328125
-119.93408203125
-122.6806640625
-119.0185546875
-117.1875
-108.94775390625
-102.5390625
-97.0458984375
-98.876953125
-97.96142578125
-93.3837890625
-77.81982421875
-75.0732421875
-68.66455078125
-54.01611328125
-48.52294921875
-28.38134765625
-10.986328125
-8.23974609375
10.07080078125
34.7900390625
29.296875
11.90185546875
3.662109375
1.8310546875
1.8310546875
10.986328125
8.23974609375
10.07080078125
17.39501953125
12.8173828125
8.23974609375
-0.91552734375
-0.91552734375
-15.56396484375
-29.296875
-35.70556640625
-47.607421875
-59.50927734375
-69.580078125
-77.81982421875
-86.97509765625
-85.14404296875
-91.552734375
-94.29931640625
-87.890625
-94.29931640625
-97.0458984375
-98.876953125
-98.876953125
-97.0458984375
-108.0322265625
-108.0322265625
-101.62353515625
-112.60986328125
-116.27197265625
-113.525390625
-104.3701171875
-97.0458984375
-110.77880859375
-113.525390625
-115.3564453125
-120.849609375
-123.59619140625
-128.173828125
-119.93408203125
-93.3837890625
-74.15771484375
-28.38134765625
10.07080078125
30.21240234375
62.255859375
119.0185546875
212.40234375
324.0966796875
446.77734375
600.5859375
791.93115234375
986.02294921875
1142.578125
1287.2314453125
1462.09716796875
1551.81884765625
1568.29833984375
1585.693359375
1580.2001953125
1439.208984375
1170.95947265625
926.513671875
729.67529296875
510.8642578125
268.24951171875
124.51171875
60.4248046875
14.6484375
-23.8037109375
-73.2421875
-108.0322265625
-98.876953125
-75.98876953125
-47.607421875
-25.634765625
-10.07080078125
-6.40869140625
-11.90185546875
-22.88818359375
-29.296875
-39.36767578125
-38.4521484375
-43.9453125
-49.4384765625
-51.26953125
-57.67822265625
-64.0869140625
-61.34033203125
-56.7626953125
-54.931640625
-57.67822265625
-57.67822265625
-59.50927734375
-54.01611328125
-46.69189453125
-56.7626953125
-60.4248046875
-57.67822265625
-46.69189453125
-51.26953125
-52.18505859375
-50.35400390625
-48.52294921875
-50.35400390625
-46.69189453125
-47.607421875
-49.4384765625
-50.35400390625
-44.86083984375
-38.4521484375
-35.70556640625
-38.4521484375
-37.53662109375
-33.87451171875
-35.70556640625
-29.296875
-32.958984375
-35.70556640625
-26.55029296875
-22.88818359375
-28.38134765625
-21.97265625
-16.4794921875
-14.6484375
-16.4794921875
-16.4794921875
-17.39501953125
-15.56396484375
-6.40869140625
3.662109375
10.07080078125
-1.8310546875
-1.8310546875
2.74658203125
22.88818359375
20.1416015625
4.57763671875
12.8173828125
19.22607421875
20.1416015625
20.1416015625
21.05712890625
33.87451171875
35.70556640625
32.958984375
37.53662109375
35.70556640625
39.36767578125
43.9453125
53.1005859375
54.01611328125
55.84716796875
63.17138671875
65.00244140625
60.4248046875
60.4248046875
69.580078125
65.00244140625
69.580078125
74.15771484375
82.3974609375
83.31298828125
97.96142578125
83.31298828125
79.65087890625
90.63720703125
89.7216796875
92.46826171875
91.552734375
90.63720703125
85.14404296875
89.7216796875
97.96142578125
95.21484375
86.97509765625
100.7080078125
101.62353515625
99.79248046875
91.552734375
90.63720703125
93.3837890625
97.0458984375
86.97509765625
99.79248046875
92.46826171875
86.97509765625
75.98876953125
79.65087890625
76.904296875
69.580078125
67.7490234375
65.91796875
54.931640625
51.26953125
44.86083984375
33.87451171875
20.1416015625
3.662109375
-0.91552734375
-5.4931640625
-17.39501953125
-25.634765625
-25.634765625
-36.62109375
-46.69189453125
-58.59375
-57.67822265625
-66.83349609375
-71.4111328125
-75.98876953125
-78.7353515625
-82.3974609375
-79.65087890625
-90.63720703125
-90.63720703125
-90.63720703125
-95.21484375
-99.79248046875
-96.13037109375
-105.28564453125
-103.45458984375
-91.552734375
-102.5390625
-106.201171875
-107.11669921875
-113.525390625
-106.201171875
-104.3701171875
-99.79248046875
-103.45458984375
-97.96142578125
-97.0458984375
-107.11669921875
-108.0322265625
-103.45458984375
-106.201171875
-103.45458984375
-108.0322265625
-92.46826171875
-93.3837890625
-107.11669921875
-106.201171875
-105.28564453125
-97.0458984375
-98.876953125
-103.45458984375
-106.201171875
-101.62353515625
-95.21484375
-99.79248046875
-94.29931640625
-89.7216796875
-92.46826171875
-95.21484375
-93.3837890625
-90.63720703125
-90.63720703125
-96.13037109375
-92.46826171875
-93.3837890625
-90.63720703125
-91.552734375
-86.97509765625
-91.552734375
-95.21484375
-92.46826171875
-89.7216796875
-80.56640625
-81.48193359375
-94.29931640625
-101.62353515625
-89.7216796875
-86.97509765625
-87.890625
-83.31298828125
-97.0458984375
-93.3837890625
-96.13037109375
-90.63720703125
-91.552734375
-91.552734375
-95.21484375
-96.13037109375
-95.21484375
-90.63720703125
-94.29931640625
-99.79248046875
-97.0458984375
-94.29931640625
-96.13037109375
-98.876953125
-107.11669921875
-100.7080078125
-102.5390625
-101.62353515625
-112.60986328125
-105.28564453125
-108.0322265625
-104.3701171875
-100.7080078125
-113.525390625
-119.0185546875
-115.3564453125
-105.28564453125
-106.201171875
-113.525390625
-115.3564453125
-113.525390625
-110.77880859375
-118.10302734375
-117.1875
-110.77880859375
-108.0322265625
-110.77880859375
-118.10302734375
-120.849609375
-123.59619140625
-116.27197265625
-111.6943359375
-122.6806640625
-110.77880859375
-108.0322265625
-120.849609375
-122.6806640625
-113.525390625
-113.525390625
-117.1875
-120.849609375
-119.0185546875
-112.60986328125
-116.27197265625
-117.1875
-120.849609375
-116.27197265625
-118.10302734375
-125.42724609375
-122.6806640625
-125.42724609375
-124.51171875
-128.173828125
-124.51171875
-123.59619140625
-122.6806640625
-119.93408203125
-120.849609375
-120.849609375
-122.6806640625
-124.51171875
-124.51171875
-121.76513671875
-122.6806640625
-119.93408203125
-110.77880859375
-117.1875
-123.59619140625
-111.6943359375
-119.0185546875
-127.25830078125
-125.42724609375
-122.6806640625
-117.1875
-114.44091796875
-117.1875
-118.10302734375
-122.6806640625
-130.0048828125
-117.1875
-123.59619140625
-119.93408203125
-119.0185546875
-123.59619140625
-119.0185546875
-113.525390625
-120.849609375
-118.10302734375
-122.6806640625
-130.0048828125
-122.6806640625
-119.93408203125
-125.42724609375
-126.3427734375
-125.42724609375
-120.849609375
-125.42724609375
-124.51171875
-120.849609375
-119.93408203125
-119.0185546875
-122.6806640625
-121.76513671875
-116.27197265625
-116.27197265625
-116.27197265625
-121.76513671875
-121.76513671875
-122.6806640625
-126.3427734375
-118.10302734375
-119.0185546875
-124.51171875
-124.51171875
-120.849609375
-116.27197265625
-128.173828125
-128.173828125
-124.51171875
-129.08935546875
-120.849609375
-113.525390625
-119.0185546875
-111.6943359375
-111.6943359375
-108.94775390625
-95.21484375
-86.0595703125
-87.890625
-75.0732421875
-62.255859375
-43.02978515625
-32.958984375
-27.4658203125
-15.56396484375
5.4931640625
22.88818359375
24.71923828125
27.4658203125
27.4658203125
14.6484375
-6.40869140625
2.74658203125
6.40869140625
12.8173828125
16.4794921875
10.986328125
12.8173828125
9.1552734375
3.662109375
-0.91552734375
-20.1416015625
-24.71923828125
-32.04345703125
-52.18505859375
-66.83349609375
-77.81982421875
-77.81982421875
-88.80615234375
-93.3837890625
-93.3837890625
-93.3837890625
-88.80615234375
-96.13037109375
-101.62353515625
-104.3701171875
-107.11669921875
-107.11669921875
-108.94775390625
-104.3701171875
-111.6943359375
-117.1875
-114.44091796875
-113.525390625
-112.60986328125
-110.77880859375
-109.86328125
-114.44091796875
-114.44091796875
-117.1875
-124.51171875
-135.498046875
-130.92041015625
-117.1875
-97.96142578125
-69.580078125
-29.296875
5.4931640625
44.86083984375
95.21484375
171.20361328125
288.39111328125
414.73388671875
563.04931640625
750.732421875
948.486328125
1112.36572265625
1268.00537109375
1425.47607421875
1551.81884765625
1589.35546875
1593.017578125
1575.62255859375
1431.884765625
1172.79052734375
953.9794921875
742.49267578125
515.44189453125
246.27685546875
54.931640625
-2.74658203125
-26.55029296875
-57.67822265625
-84.228515625
-83.31298828125
-57.67822265625
-38.4521484375
-19.22607421875
-0.91552734375
7.32421875
1.8310546875
-6.40869140625
-17.39501953125
-22.88818359375
-32.04345703125
-40.283203125
-38.4521484375
-33.87451171875
-39.36767578125
-60.4248046875
-57.67822265625
-55.84716796875
-53.1005859375
-55.84716796875
-54.931640625
-53.1005859375
-57.67822265625
-59.50927734375
-54.931640625
-57.67822265625
-58.59375
-54.931640625
-56.7626953125
-54.931640625
-46.69189453125
-48.52294921875
-45.7763671875
-52.18505859375
-44.86083984375
-44.86083984375
-43.02978515625
-41.19873046875
-37.53662109375
-36.62109375
-30.21240234375
-31.1279296875
-32.04345703125
-31.1279296875
-29.296875
-34.7900390625
-18.310546875
-19.22607421875
-18.310546875
-14.6484375
-10.07080078125
-7.32421875
-9.1552734375
-8.23974609375
-3.662109375
-0.91552734375
-0.91552734375
-0.91552734375
7.32421875
10.986328125
12.8173828125
16.4794921875
19.22607421875
22.88818359375
13.73291015625
20.1416015625
21.97265625
23.8037109375
32.04345703125
36.62109375
34.7900390625
37.53662109375
44.86083984375
45.7763671875
49.4384765625
49.4384765625
59.50927734375
54.931640625
53.1005859375
59.50927734375
60.4248046875
64.0869140625
72.32666015625
72.32666015625
67.7490234375
69.580078125
76.904296875
83.31298828125
92.46826171875
98.876953125
101.62353515625
103.45458984375
103.45458984375
105.28564453125
105.28564453125
117.1875
116.27197265625
117.1875
121.76513671875
124.51171875
120.849609375
123.59619140625
126.3427734375
129.08935546875
131.8359375
130.92041015625
128.173828125
132.75146484375
135.498046875
132.75146484375
128.173828125
131.8359375
130.0048828125
128.173828125
126.3427734375
126.3427734375
122.6806640625
123.59619140625
117.1875
109.86328125
109.86328125
107.11669921875
97.96142578125
88.80615234375
88.80615234375
64.0869140625
52.18505859375
39.36767578125
34.7900390625
32.04345703125
20.1416015625
14.6484375
6.40869140625
-7.32421875
-14.6484375
-15.56396484375
-21.97265625
-30.21240234375
-38.4521484375
-43.9453125
-48.52294921875
-51.26953125
-59.50927734375
-63.17138671875
-70.49560546875
-74.15771484375
-65.00244140625
-75.0732421875
-76.904296875
-75.98876953125
-74.15771484375
-78.7353515625
-84.228515625
-86.0595703125
-78.7353515625
-78.7353515625
-85.14404296875
-89.7216796875
-85.14404296875
-81.48193359375
-77.81982421875
-83.31298828125
-84.228515625
-85.14404296875
-82.3974609375
-83.31298828125
-84.228515625
-81.48193359375
-75.0732421875
-77.81982421875
-76.904296875
-77.81982421875
-77.81982421875
-68.66455078125
-65.91796875
-75.98876953125
-78.7353515625
-73.2421875
-75.0732421875
-79.65087890625
-76.904296875
-68.66455078125
-67.7490234375
-70.49560546875
-67.7490234375
-65.91796875
-70.49560546875
-69.580078125
-61.34033203125
-64.0869140625
-64.0869140625
-66.83349609375
-63.17138671875
-69.580078125
-68.66455078125
-73.2421875
-69.580078125
-63.17138671875
-68.66455078125
-69.580078125
-67.7490234375
-65.00244140625
-73.2421875
-70.49560546875
-63.17138671875
-65.00244140625
-68.66455078125
-71.4111328125
-65.00244140625
-63.17138671875
-65.91796875
-65.91796875
-65.91796875
-68.66455078125
-66.83349609375
-65.91796875
-65.91796875
-75.98876953125
-74.15771484375
-70.49560546875
-68.66455078125
-75.0732421875
-54.01611328125
-67.7490234375
-82.3974609375
-75.98876953125
-75.0732421875
-73.2421875
-73.2421875
-73.2421875
-75.98876953125
-75.0732421875
-74.15771484375
-71.4111328125
-79.65087890625
-76.904296875
-85.14404296875
-85.14404296875
-81.48193359375
-73.2421875
-73.2421875
-82.3974609375
-84.228515625
-86.0595703125
-86.0595703125
-86.97509765625
-81.48193359375
-78.7353515625
-83.31298828125
-84.228515625
-81.48193359375
-85.14404296875
-82.3974609375
-74.15771484375
-89.7216796875
-94.29931640625
-84.228515625
-86.0595703125
-92.46826171875
-94.29931640625
-81.48193359375
-81.48193359375
-92.46826171875
-86.97509765625
-88.80615234375
-88.80615234375
-80.56640625
-78.7353515625
-81.48193359375
-79.65087890625
-86.97509765625
-86.97509765625
-84.228515625
-84.228515625
-82.3974609375
-86.0595703125
-86.0595703125
-86.97509765625
-80.56640625
-83.31298828125
-86.0595703125
-80.56640625
-86.0595703125
-86.0595703125
-81.48193359375
-86.0595703125
-70.49560546875
-81.48193359375
-90.63720703125
-86.0595703125
-78.7353515625
-80.56640625
-89.7216796875
-86.97509765625
-80.56640625
-83.31298828125
-78.7353515625
-77.81982421875
-82.3974609375
-78.7353515625
-77.81982421875
-76.904296875
-75.0732421875
-72.32666015625
-76.904296875
-82.3974609375
-79.65087890625
-84.228515625
-77.81982421875
-72.32666015625
-73.2421875
-82.3974609375
-78.7353515625
-74.15771484375
-77.81982421875
-79.65087890625
-82.3974609375
-82.3974609375
-80.56640625
-77.81982421875
-78.7353515625
-80.56640625
-80.56640625
-81.48193359375
-75.98876953125
-83.31298828125
-88.80615234375
-85.14404296875
-81.48193359375
-80.56640625
-80.56640625
-75.98876953125
-75.0732421875
-78.7353515625
-73.2421875
-71.4111328125
-68.66455078125
-63.17138671875
-58.59375
-61.34033203125
-52.18505859375
-47.607421875
-32.04345703125
-25.634765625
-26.55029296875
-6.40869140625
11.90185546875
27.4658203125
39.36767578125
52.18505859375
64.0869140625
73.2421875
81.48193359375
68.66455078125
48.52294921875
39.36767578125
43.02978515625
57.67822265625
59.50927734375
64.0869140625
62.255859375
63.17138671875
53.1005859375
39.36767578125
41.19873046875
32.04345703125
23.8037109375
10.07080078125
-3.662109375
-11.90185546875
-21.05712890625
-30.21240234375
-34.7900390625
-42.1142578125
-45.7763671875
-43.9453125
-52.18505859375
-55.84716796875
-51.26953125
-50.35400390625
-51.26953125
-56.7626953125
-54.931640625
-54.931640625
-59.50927734375
-60.4248046875
-65.91796875
-65.00244140625
-65.00244140625
-56.7626953125
-60.4248046875
-60.4248046875
-56.7626953125
-58.59375
-61.34033203125
-67.7490234375
-71.4111328125
-60.4248046875
-43.02978515625
-25.634765625
12.8173828125
51.26953125
92.46826171875
135.498046875
199.5849609375
312.19482421875
432.12890625
564.88037109375
736.083984375
935.6689453125
1118.7744140625
1262.51220703125
1426.3916015625
1580.2001953125
1644.287109375
1657.1044921875
1652.52685546875
1572.8759765625
1316.5283203125
1076.66015625
879.82177734375
660.09521484375
406.494140625
166.6259765625
74.15771484375
43.9453125
10.986328125
-27.4658203125
-38.4521484375
-23.8037109375
0
26.55029296875
45.7763671875
49.4384765625
46.69189453125
46.69189453125
45.7763671875
31.1279296875
26.55029296875
23.8037109375
19.22607421875
17.39501953125
15.56396484375
9.1552734375
4.57763671875
-0.91552734375
9.1552734375
6.40869140625
-2.74658203125
-6.40869140625
0.91552734375
8.23974609375
7.32421875
1.8310546875
7.32421875
4.57763671875
7.32421875
2.74658203125
0.91552734375
3.662109375
4.57763671875
5.4931640625
2.74658203125
5.4931640625
8.23974609375
14.6484375
16.4794921875
16.4794921875
19.22607421875
21.97265625
26.55029296875
26.55029296875
29.296875
31.1279296875
32.04345703125
33.87451171875
32.958984375
35.70556640625
43.02978515625
40.283203125
43.02978515625
49.4384765625
54.931640625
56.7626953125
74.15771484375
73.2421875
53.1005859375
56.7626953125
65.00244140625
71.4111328125
72.32666015625
78.7353515625
75.0732421875
75.0732421875
77.81982421875
83.31298828125
89.7216796875
97.0458984375
102.5390625
102.5390625
105.28564453125
102.5390625
99.79248046875
105.28564453125
110.77880859375
116.27197265625
122.6806640625
119.93408203125
123.59619140625
129.08935546875
131.8359375
134.58251953125
138.24462890625
144.6533203125
146.484375
148.3154296875
151.9775390625
155.6396484375
164.794921875
163.87939453125
162.9638671875
168.45703125
173.03466796875
178.52783203125
185.85205078125
185.85205078125
191.34521484375
190.4296875
194.091796875
201.416015625
204.16259765625
195.00732421875
199.5849609375
203.2470703125
204.16259765625
199.5849609375
197.75390625
196.83837890625
200.50048828125
198.66943359375
203.2470703125
202.33154296875
197.75390625
194.091796875
196.83837890625
202.33154296875
185.85205078125
178.52783203125
178.52783203125
164.794921875
162.04833984375
149.23095703125
140.07568359375
136.41357421875
134.58251953125
119.93408203125
97.0458984375
91.552734375
84.228515625
77.81982421875
69.580078125
62.255859375
48.52294921875
39.36767578125
35.70556640625
23.8037109375
23.8037109375
21.05712890625
13.73291015625
13.73291015625
17.39501953125
0.91552734375
-5.4931640625
-4.57763671875
-5.4931640625
-14.6484375
-15.56396484375
-13.73291015625
-20.1416015625
-18.310546875
-19.22607421875
-19.22607421875
-19.22607421875
-21.05712890625
-21.05712890625
-22.88818359375
-26.55029296875
-25.634765625
-13.73291015625
-21.97265625
-18.310546875
-24.71923828125
-34.7900390625
-26.55029296875
-26.55029296875
-26.55029296875
-25.634765625
-21.05712890625
-20.1416015625
-22.88818359375
-23.8037109375
-18.310546875
-13.73291015625
-8.23974609375
-10.07080078125
-14.6484375
-20.1416015625
-15.56396484375
-10.07080078125
-3.662109375
-8.23974609375
-10.986328125
-7.32421875
-10.986328125
-10.07080078125
-10.986328125
-10.07080078125
-9.1552734375
-7.32421875
-4.57763671875
-4.57763671875
-3.662109375
-0.91552734375
-6.40869140625
-2.74658203125
-1.8310546875
-3.662109375
3.662109375
-0.91552734375
-3.662109375
-0.91552734375
-10.07080078125
-13.73291015625
-11.90185546875
-9.1552734375
-14.6484375
-9.1552734375
-5.4931640625
-8.23974609375
-10.986328125
-12.8173828125
-10.986328125
-6.40869140625
-12.8173828125
-10.07080078125
-3.662109375
0
-0.91552734375
-1.8310546875
-10.07080078125
-16.4794921875
-10.986328125
-9.1552734375
-10.07080078125
-16.4794921875
-15.56396484375
-16.4794921875
-17.39501953125
-20.1416015625
-18.310546875
-15.56396484375
-10.986328125
-23.8037109375
-30.21240234375
-27.4658203125
-22.88818359375
-20.1416015625
-18.310546875
-21.05712890625
-23.8037109375
-22.88818359375
-21.05712890625
-23.8037109375
-28.38134765625
-26.55029296875
-21.97265625
-22.88818359375
-22.88818359375
-24.71923828125
-23.8037109375
-19.22607421875
-22.88818359375
-27.4658203125
-32.958984375
-31.1279296875
-33.87451171875
-32.958984375
-26.55029296875
-19.22607421875
-20.1416015625
-26.55029296875
-27.4658203125
-21.05712890625
-27.4658203125
-27.4658203125
-33.87451171875
-34.7900390625
-32.958984375
-36.62109375
-36.62109375
-29.296875
-22.88818359375
-29.296875
-31.1279296875
-30.21240234375
-34.7900390625
-37.53662109375
-31.1279296875
-27.4658203125
-30.21240234375
-28.38134765625
-22.88818359375
-31.1279296875
-34.7900390625
-28.38134765625
-29.296875
-27.4658203125
-26.55029296875
-31.1279296875
-34.7900390625
-31.1279296875
-29.296875
-28.38134765625
-29.296875
-40.283203125
-35.70556640625
-29.296875
-27.4658203125
-28.38134765625
-29.296875
-29.296875
-27.4658203125
-25.634765625
-32.04345703125
-38.4521484375
-33.87451171875
-31.1279296875
-29.296875
-32.04345703125
-32.958984375
-27.4658203125
-27.4658203125
-31.1279296875
-35.70556640625
-37.53662109375
-38.4521484375
-27.4658203125
-25.634765625
-29.296875
-24.71923828125
-30.21240234375
-25.634765625
-28.38134765625
-32.04345703125
-28.38134765625
-27.4658203125
-28.38134765625
-27.4658203125
-26.55029296875
-21.05712890625
-11.90185546875
-11.90185546875
-11.90185546875
-10.07080078125
-8.23974609375
-0.91552734375
10.986328125
21.05712890625
38.4521484375
51.26953125
72.32666015625
80.56640625
86.97509765625
104.3701171875
117.1875
119.0185546875
100.7080078125
95.21484375
86.0595703125
84.228515625
94.29931640625
97.96142578125
97.0458984375
99.79248046875
100.7080078125
100.7080078125
88.80615234375
82.3974609375
75.98876953125
65.91796875
54.01611328125
36.62109375
33.87451171875
17.39501953125
4.57763671875
2.74658203125
0.91552734375
5.4931640625
-1.8310546875
-2.74658203125
-1.8310546875
-6.40869140625
-5.4931640625
-9.1552734375
-20.1416015625
-22.88818359375
-17.39501953125
-19.22607421875
-21.05712890625
-19.22607421875
-18.310546875
-25.634765625
-30.21240234375
-29.296875
-26.55029296875
-31.1279296875
-23.8037109375
-21.05712890625
-27.4658203125
-33.87451171875
-12.8173828125
5.4931640625
35.70556640625
81.48193359375
108.94775390625
143.73779296875
190.4296875
266.41845703125
380.859375
501.708984375
640.869140625
818.4814453125
1007.080078125
1177.3681640625
1319.27490234375
1491.39404296875
1620.4833984375
1658.02001953125
1676.33056640625
1669.00634765625
1558.2275390625
1307.373046875
1069.3359375
867.00439453125
660.09521484375
401.91650390625
212.40234375
146.484375
101.62353515625
63.17138671875
16.4794921875
-11.90185546875
-16.4794921875
1.8310546875
24.71923828125
55.84716796875
75.98876953125
80.56640625
73.2421875
76.904296875
63.17138671875
57.67822265625
48.52294921875
44.86083984375
42.1142578125
37.53662109375
35.70556640625
35.70556640625
38.4521484375
32.958984375
37.53662109375
36.62109375
36.62109375
25.634765625
28.38134765625
35.70556640625
32.958984375
28.38134765625
32.958984375
34.7900390625
33.87451171875
42.1142578125
40.283203125
34.7900390625
41.19873046875
38.4521484375
36.62109375
38.4521484375
40.283203125
47.607421875
54.931640625
54.931640625
44.86083984375
54.931640625
54.931640625
57.67822265625
63.17138671875
69.580078125
69.580078125
70.49560546875
65.91796875
72.32666015625
71.4111328125
69.580078125
72.32666015625
74.15771484375
75.0732421875
78.7353515625
83.31298828125
80.56640625
89.7216796875
91.552734375
89.7216796875
95.21484375
99.79248046875
99.79248046875
99.79248046875
102.5390625
107.11669921875
107.11669921875
104.3701171875
113.525390625
119.0185546875
119.0185546875
118.10302734375
127.25830078125
128.173828125
130.92041015625
136.41357421875
138.24462890625
137.3291015625
138.24462890625
143.73779296875
146.484375
151.9775390625
156.55517578125
159.3017578125
165.71044921875
172.119140625
167.54150390625
172.119140625
174.86572265625
175.78125
176.69677734375
181.2744140625
185.85205078125
190.4296875
187.68310546875
189.51416015625
194.091796875
193.17626953125
194.091796875
196.83837890625
193.17626953125
196.83837890625
197.75390625
190.4296875
200.50048828125
197.75390625
192.2607421875
192.2607421875
193.17626953125
195.00732421875
195.9228515625
184.02099609375
183.10546875
185.85205078125
186.767578125
184.02099609375
181.2744140625
175.78125
168.45703125
154.72412109375
142.822265625
144.6533203125
130.0048828125
114.44091796875
109.86328125
97.96142578125
97.96142578125
90.63720703125
84.228515625
77.81982421875
61.34033203125
54.931640625
46.69189453125
32.04345703125
29.296875
37.53662109375
26.55029296875
14.6484375
14.6484375
5.4931640625
-3.662109375
-9.1552734375
-9.1552734375
-1.8310546875
-0.91552734375
-4.57763671875
-9.1552734375
-11.90185546875
-10.07080078125
-16.4794921875
-16.4794921875
-15.56396484375
-21.05712890625
-22.88818359375
-22.88818359375
-22.88818359375
-22.88818359375
-21.97265625
-17.39501953125
-20.1416015625
-24.71923828125
-25.634765625
-30.21240234375
-24.71923828125
-21.05712890625
-23.8037109375
-21.97265625
-18.310546875
-19.22607421875
-21.05712890625
-19.22607421875
-16.4794921875
-19.22607421875
-23.8037109375
-18.310546875
-18.310546875
-16.4794921875
-14.6484375
-4.57763671875
-10.986328125
-4.57763671875
-9.1552734375
-10.986328125
-10.986328125
-10.07080078125
-11.90185546875
-5.4931640625
-6.40869140625
-6.40869140625
-10.07080078125
-8.23974609375
-7.32421875
-5.4931640625
-7.32421875
-9.1552734375
-4.57763671875
-5.4931640625
-8.23974609375
-7.32421875
-12.8173828125
-9.1552734375
-8.23974609375
-9.1552734375
0.91552734375
0.91552734375
-13.73291015625
-14.6484375
-5.4931640625
-6.40869140625
-10.986328125
-17.39501953125
-11.90185546875
-8.23974609375
-5.4931640625
-6.40869140625
-17.39501953125
-13.73291015625
-21.05712890625
-14.6484375
-21.05712890625
-22.88818359375
-9.1552734375
-7.32421875
-11.90185546875
-19.22607421875
-16.4794921875
-17.39501953125
-20.1416015625
-23.8037109375
-25.634765625
-22.88818359375
-30.21240234375
-32.958984375
-28.38134765625
-25.634765625
-15.56396484375
-19.22607421875
-25.634765625
-31.1279296875
-25.634765625
-21.05712890625
-30.21240234375
-34.7900390625
-29.296875
-29.296875
-26.55029296875
-27.4658203125
-29.296875
-33.87451171875
-36.62109375
-36.62109375
-37.53662109375
-37.53662109375
-41.19873046875
-37.53662109375
-40.283203125
-35.70556640625
-30.21240234375
-32.958984375
-45.7763671875
-45.7763671875
-40.283203125
-39.36767578125
-34.7900390625
-32.958984375
-39.36767578125
-34.7900390625
-33.87451171875
-32.958984375
-33.87451171875
-34.7900390625
-42.1142578125
-46.69189453125
-43.9453125
-43.9453125
-35.70556640625
-36.62109375
-40.283203125
-39.36767578125
-43.9453125
-43.9453125
-43.02978515625
-43.9453125
-41.19873046875
-41.19873046875
-40.283203125
-37.53662109375
-43.9453125
-43.9453125
-43.02978515625
-44.86083984375
-46.69189453125
-44.86083984375
-41.19873046875
-46.69189453125
-46.69189453125
-41.19873046875
-43.9453125
-43.02978515625
-43.02978515625
-43.9453125
-43.02978515625
-43.9453125
-45.7763671875
-40.283203125
-42.1142578125
-38.4521484375
-43.02978515625
-42.1142578125
-39.36767578125
-43.02978515625
-48.52294921875
-43.9453125
-43.02978515625
-43.02978515625
-37.53662109375
-38.4521484375
-37.53662109375
-43.9453125
-41.19873046875
-42.1142578125
-39.36767578125
-40.283203125
-43.02978515625
-38.4521484375
-40.283203125
-45.7763671875
-40.283203125
-34.7900390625
-43.02978515625
-50.35400390625
-46.69189453125
-45.7763671875
-46.69189453125
-37.53662109375
-39.36767578125
-39.36767578125
-30.21240234375
-26.55029296875
-29.296875
-31.1279296875
-18.310546875
-5.4931640625
4.57763671875
8.23974609375
21.97265625
33.87451171875
47.607421875
63.17138671875
75.0732421875
82.3974609375
93.3837890625
100.7080078125
103.45458984375
80.56640625
61.34033203125
69.580078125
78.7353515625
80.56640625
82.3974609375
78.7353515625
76.904296875
76.904296875
69.580078125
62.255859375
52.18505859375
47.607421875
37.53662109375
19.22607421875
-0.91552734375
-5.4931640625
-13.73291015625
-18.310546875
-17.39501953125
-16.4794921875
-18.310546875
-22.88818359375
-27.4658203125
-27.4658203125
-36.62109375
-37.53662109375
-32.958984375
-38.4521484375
-32.958984375
-42.1142578125
-36.62109375
-36.62109375
-36.62109375
-41.19873046875
-37.53662109375
-44.86083984375
-56.7626953125
-51.26953125
-46.69189453125
-48.52294921875
-52.18505859375
-57.67822265625
-49.4384765625
-41.19873046875
-20.1416015625
17.39501953125
56.7626953125
87.890625
126.3427734375
182.18994140625
271.91162109375
393.6767578125
532.8369140625
692.138671875
888.97705078125
1080.322265625
1240.53955078125
1404.4189453125
1564.63623046875
1658.935546875
1676.33056640625
1668.0908203125
1621.39892578125
1404.4189453125
1144.4091796875
936.58447265625
726.01318359375
486.14501953125
222.47314453125
81.48193359375
49.4384765625
23.8037109375
2.74658203125
-21.97265625
-10.07080078125
12.8173828125
37.53662109375
62.255859375
70.49560546875
75.0732421875
63.17138671875
54.931640625
43.9453125
30.21240234375
30.21240234375
22.88818359375
21.05712890625
26.55029296875
23.8037109375
16.4794921875
15.56396484375
18.310546875
16.4794921875
17.39501953125
16.4794921875
11.90185546875
7.32421875
9.1552734375
11.90185546875
9.1552734375
11.90185546875
10.07080078125
16.4794921875
22.88818359375
17.39501953125
16.4794921875
6.40869140625
18.310546875
17.39501953125
18.310546875
22.88818359375
29.296875
24.71923828125
25.634765625
27.4658203125
37.53662109375
29.296875
30.21240234375
30.21240234375
36.62109375
33.87451171875
33.87451171875
35.70556640625
49.4384765625
48.52294921875
46.69189453125
49.4384765625
51.26953125
54.01611328125
52.18505859375
57.67822265625
66.83349609375
63.17138671875
70.49560546875
75.0732421875
71.4111328125
75.98876953125
75.98876953125
80.56640625
86.0595703125
90.63720703125
97.0458984375
93.3837890625
93.3837890625
101.62353515625
103.45458984375
106.201171875
105.28564453125
110.77880859375
114.44091796875
113.525390625
118.10302734375
121.76513671875
117.1875
123.59619140625
122.6806640625
130.0048828125
131.8359375
133.6669921875
146.484375
144.6533203125
142.822265625
147.39990234375
155.6396484375
156.55517578125
161.1328125
164.794921875
163.87939453125
166.6259765625
168.45703125
178.52783203125
180.35888671875
183.10546875
190.4296875
186.767578125
184.9365234375
192.2607421875
193.17626953125
186.767578125
184.9365234375
195.00732421875
191.34521484375
199.5849609375
196.83837890625
192.2607421875
191.34521484375
191.34521484375
187.68310546875
190.4296875
185.85205078125
182.18994140625
182.18994140625
178.52783203125
169.37255859375
168.45703125
160.21728515625
143.73779296875
137.3291015625
129.08935546875
111.6943359375
104.3701171875
100.7080078125
89.7216796875
76.904296875
69.580078125
52.18505859375
46.69189453125
41.19873046875
36.62109375
33.87451171875
25.634765625
10.07080078125
10.07080078125
5.4931640625
-6.40869140625
-10.986328125
-12.8173828125
-13.73291015625
-19.22607421875
-21.97265625
-22.88818359375
-21.05712890625
-25.634765625
-33.87451171875
-35.70556640625
-28.38134765625
-35.70556640625
-39.36767578125
-35.70556640625
-34.7900390625
-36.62109375
-39.36767578125
-34.7900390625
-38.4521484375
-43.02978515625
-46.69189453125
-43.02978515625
-42.1142578125
-39.36767578125
-36.62109375
-41.19873046875
-40.283203125
-39.36767578125
-36.62109375
-32.958984375
-42.1142578125
-43.02978515625
-38.4521484375
-35.70556640625
-35.70556640625
-32.958984375
-36.62109375
-41.19873046875
-39.36767578125
-35.70556640625
-33.87451171875
-35.70556640625
-37.53662109375
-35.70556640625
-38.4521484375
-30.21240234375
-29.296875
-28.38134765625
-24.71923828125
-26.55029296875
-29.296875
-32.04345703125
-31.1279296875
-30.21240234375
-32.04345703125
-24.71923828125
-25.634765625
-13.73291015625
-18.310546875
-28.38134765625
-31.1279296875
-21.05712890625
-27.4658203125
-19.22607421875
-11.90185546875
-15.56396484375
-15.56396484375
-26.55029296875
-32.958984375
-23.8037109375
-14.6484375
-16.4794921875
-22.88818359375
-25.634765625
-28.38134765625
-28.38134765625
-26.55029296875
-28.38134765625
-27.4658203125
-24.71923828125
-30.21240234375
-28.38134765625
-31.1279296875
-28.38134765625
-25.634765625
-25.634765625
-27.4658203125
-22.88818359375
-27.4658203125
-31.1279296875
-36.62109375
-35.70556640625
-33.87451171875
-32.958984375
-36.62109375
-33.87451171875
-31.1279296875
-29.296875
-32.04345703125
-42.1142578125
-45.7763671875
-39.36767578125
-35.70556640625
-41.19873046875
-33.87451171875
-34.7900390625
-40.283203125
-38.4521484375
-37.53662109375
-40.283203125
-39.36767578125
-42.1142578125
-40.283203125
-42.1142578125
-45.7763671875
-43.02978515625
-43.02978515625
-47.607421875
-45.7763671875
-45.7763671875
-39.36767578125
-46.69189453125
-52.18505859375
-44.86083984375
-43.02978515625
-46.69189453125
-42.1142578125
-41.19873046875
-50.35400390625
-57.67822265625
-57.67822265625
-47.607421875
-43.02978515625
-45.7763671875
-46.69189453125
-50.35400390625
-48.52294921875
-43.02978515625
-51.26953125
-50.35400390625
-49.4384765625
-50.35400390625
-45.7763671875
-43.02978515625
-46.69189453125
-43.9453125
-42.1142578125
-48.52294921875
-46.69189453125
-44.86083984375
-48.52294921875
-51.26953125
-43.9453125
-48.52294921875
-47.607421875
-46.69189453125
-46.69189453125
-43.02978515625
-46.69189453125
-50.35400390625
-45.7763671875
-50.35400390625
-54.01611328125
-54.931640625
-47.607421875
-44.86083984375
-43.9453125
-45.7763671875
-43.9453125
-43.02978515625
-49.4384765625
-45.7763671875
-46.69189453125
-44.86083984375
-49.4384765625
-52.18505859375
-51.26953125
-46.69189453125
-49.4384765625
-44.86083984375
-46.69189453125
-51.26953125
-46.69189453125
-47.607421875
-49.4384765625
-49.4384765625
-51.26953125
-48.52294921875
-41.19873046875
-45.7763671875
-49.4384765625
-49.4384765625
-49.4384765625
-40.283203125
-35.70556640625
-32.958984375
-26.55029296875
-24.71923828125
-26.55029296875
-30.21240234375
-25.634765625
-14.6484375
0.91552734375
4.57763671875
10.986328125
23.8037109375
39.36767578125
56.7626953125
71.4111328125
77.81982421875
95.21484375
103.45458984375
109.86328125
95.21484375
85.14404296875
75.98876953125
77.81982421875
86.0595703125
89.7216796875
85.14404296875
85.14404296875
88.80615234375
83.31298828125
72.32666015625
67.7490234375
55.84716796875
48.52294921875
42.1142578125
26.55029296875
10.07080078125
-4.57763671875
-9.1552734375
-4.57763671875
-13.73291015625
-21.97265625
-16.4794921875
-14.6484375
-17.39501953125
-30.21240234375
-35.70556640625
-32.04345703125
-29.296875
-29.296875
-35.70556640625
-33.87451171875
-27.4658203125
-33.87451171875
-37.53662109375
-34.7900390625
-29.296875
-32.958984375
-38.4521484375
-32.04345703125
-28.38134765625
-37.53662109375
-51.26953125
-57.67822265625
-42.1142578125
-28.38134765625
-7.32421875
31.1279296875
67.7490234375
105.28564453125
156.55517578125
215.14892578125
323.18115234375
446.77734375
574.03564453125
746.15478515625
953.9794921875
1133.4228515625
1291.80908203125
1452.94189453125
1607.666015625
1679.99267578125
1698.30322265625
1693.7255859375
1618.65234375
1368.71337890625
1115.1123046875
919.189453125
714.111328125
459.5947265625
215.14892578125
114.44091796875
77.81982421875
47.607421875
16.4794921875
-6.40869140625
-2.74658203125
21.97265625
41.19873046875
65.00244140625
81.48193359375
73.2421875
69.580078125
61.34033203125
49.4384765625
43.9453125
36.62109375
33.87451171875
35.70556640625
29.296875
29.296875
27.4658203125
21.05712890625
21.05712890625
24.71923828125
16.4794921875
19.22607421875
18.310546875
14.6484375
20.1416015625
18.310546875
25.634765625
21.97265625
17.39501953125
17.39501953125
23.8037109375
30.21240234375
31.1279296875
25.634765625
26.55029296875
33.87451171875
32.958984375
34.7900390625
35.70556640625
38.4521484375
47.607421875
44.86083984375
43.02978515625
49.4384765625
50.35400390625
54.931640625
54.931640625
55.84716796875
56.7626953125
57.67822265625
63.17138671875
61.34033203125
60.4248046875
65.00244140625
68.66455078125
74.15771484375
77.81982421875
73.2421875
82.3974609375
86.97509765625
79.65087890625
82.3974609375
84.228515625
88.80615234375
89.7216796875
94.29931640625
96.13037109375
99.79248046875
105.28564453125
109.86328125
107.11669921875
114.44091796875
113.525390625
120.849609375
124.51171875
120.849609375
122.6806640625
133.6669921875
140.07568359375
135.498046875
138.24462890625
140.9912109375
146.484375
153.80859375
161.1328125
149.23095703125
155.6396484375
166.6259765625
167.54150390625
169.37255859375
173.9501953125
182.18994140625
182.18994140625
183.10546875
191.34521484375
195.9228515625
199.5849609375
205.99365234375
206.9091796875
209.65576171875
208.740234375
205.078125
212.40234375
210.5712890625
208.740234375
217.8955078125
225.2197265625
219.7265625
220.64208984375
215.14892578125
219.7265625
217.8955078125
216.064453125
216.97998046875
216.97998046875
215.14892578125
207.82470703125
200.50048828125
201.416015625
195.9228515625
192.2607421875
181.2744140625
177.6123046875
170.2880859375
160.21728515625
142.822265625
133.6669921875
126.3427734375
118.10302734375
103.45458984375
95.21484375
86.0595703125
73.2421875
70.49560546875
69.580078125
54.931640625
47.607421875
36.62109375
30.21240234375
27.4658203125
19.22607421875
15.56396484375
6.40869140625
4.57763671875
7.32421875
-3.662109375
-6.40869140625
-9.1552734375
-10.986328125
-12.8173828125
-10.07080078125
-13.73291015625
-18.310546875
-15.56396484375
-15.56396484375
-15.56396484375
-11.90185546875
-15.56396484375
-21.05712890625
-19.22607421875
-18.310546875
-21.97265625
-27.4658203125
-28.38134765625
-21.97265625
-15.56396484375
-17.39501953125
-13.73291015625
-17.39501953125
-21.97265625
-23.8037109375
-18.310546875
-21.05712890625
-19.22607421875
-13.73291015625
-12.8173828125
-17.39501953125
-17.39501953125
-14.6484375
-7.32421875
-12.8173828125
-13.73291015625
-10.07080078125
-10.07080078125
-16.4794921875
-14.6484375
-9.1552734375
-6.40869140625
-4.57763671875
-10.07080078125
-14.6484375
-12.8173828125
-6.40869140625
-5.4931640625
-11.90185546875
-10.07080078125
-14.6484375
-7.32421875
-5.4931640625
-3.662109375
-6.40869140625
-9.1552734375
-11.90185546875
-10.07080078125
-8.23974609375
-9.1552734375
0
0.91552734375
-7.32421875
0.91552734375
-3.662109375
-7.32421875
-5.4931640625
-8.23974609375
-6.40869140625
-0.91552734375
-3.662109375
-5.4931640625
0.91552734375
-8.23974609375
-9.1552734375
-5.4931640625
-7.32421875
-10.986328125
-12.8173828125
-9.1552734375
-7.32421875
-9.1552734375
-5.4931640625
-10.986328125
-12.8173828125
-9.1552734375
-10.07080078125
-12.8173828125
-17.39501953125
-17.39501953125
-24.71923828125
-21.05712890625
-19.22607421875
-19.22607421875
-26.55029296875
-29.296875
-27.4658203125
-29.296875
-26.55029296875
-26.55029296875
-25.634765625
-29.296875
-27.4658203125
-28.38134765625
-29.296875
-23.8037109375
-30.21240234375
-32.958984375
-29.296875
-30.21240234375
-37.53662109375
-36.62109375
-30.21240234375
-27.4658203125
-27.4658203125
-24.71923828125
-31.1279296875
-29.296875
-32.04345703125
-31.1279296875
-34.7900390625
-30.21240234375
-29.296875
-27.4658203125
-32.04345703125
-31.1279296875
-30.21240234375
-34.7900390625
-33.87451171875
-35.70556640625
-29.296875
-28.38134765625
-31.1279296875
-23.8037109375
-27.4658203125
-31.1279296875
-38.4521484375
-43.02978515625
-40.283203125
-37.53662109375
-36.62109375
-34.7900390625
-34.7900390625
-32.958984375
-31.1279296875
-37.53662109375
-38.4521484375
-34.7900390625
-36.62109375
-33.87451171875
-34.7900390625
-32.958984375
-33.87451171875
-37.53662109375
-36.62109375
-35.70556640625
-37.53662109375
-38.4521484375
-39.36767578125
-37.53662109375
-37.53662109375
-36.62109375
-33.87451171875
-37.53662109375
-33.87451171875
-31.1279296875
-37.53662109375
-41.19873046875
-38.4521484375
-36.62109375
-36.62109375
-33.87451171875
-42.1142578125
-42.1142578125
-44.86083984375
-47.607421875
-48.52294921875
-43.9453125
-47.607421875
-43.9453125
-43.02978515625
-43.02978515625
-40.283203125
-43.02978515625
-42.1142578125
-38.4521484375
-31.1279296875
-30.21240234375
-35.70556640625
-24.71923828125
-18.310546875
-14.6484375
-7.32421875
-1.8310546875
10.986328125
21.05712890625
34.7900390625
43.9453125
56.7626953125
63.17138671875
82.3974609375
102.5390625
104.3701171875
99.79248046875
86.0595703125
76.904296875
75.98876953125
70.49560546875
79.65087890625
87.890625
88.80615234375
86.97509765625
82.3974609375
79.65087890625
75.0732421875
68.66455078125
56.7626953125
45.7763671875
29.296875
21.97265625
11.90185546875
6.40869140625
0
0
-3.662109375
-8.23974609375
-21.05712890625
-20.1416015625
-23.8037109375
-21.05712890625
-17.39501953125
-28.38134765625
-30.21240234375
-31.1279296875
-32.04345703125
-45.7763671875
-43.02978515625
-39.36767578125
-43.9453125
-43.9453125
-43.9453125
-45.7763671875
-47.607421875
-46.69189453125
-48.52294921875
-61.34033203125
-68.66455078125
-58.59375
-38.4521484375
-20.1416015625
12.8173828125
54.931640625
90.63720703125
135.498046875
180.35888671875
267.333984375
385.43701171875
511.77978515625
658.26416015625
842.28515625
1039.12353515625
1204.833984375
1355.89599609375
1529.84619140625
1623.22998046875
1654.35791015625
1662.59765625
1640.625
1493.22509765625
1238.70849609375
1008.9111328125
811.1572265625
590.51513671875
334.16748046875
175.78125
110.77880859375
65.91796875
22.88818359375
-20.1416015625
-43.02978515625
-29.296875
-1.8310546875
20.1416015625
40.283203125
54.931640625
57.67822265625
48.52294921875
33.87451171875
27.4658203125
27.4658203125
27.4658203125
18.310546875
13.73291015625
7.32421875
6.40869140625
1.8310546875
0
-5.4931640625
-9.1552734375
-2.74658203125
-3.662109375
-6.40869140625
-2.74658203125
0
-3.662109375
-6.40869140625
-1.8310546875
0.91552734375
0.91552734375
-4.57763671875
2.74658203125
5.4931640625
6.40869140625
13.73291015625
10.986328125
9.1552734375
13.73291015625
16.4794921875
14.6484375
15.56396484375
11.90185546875
21.05712890625
28.38134765625
26.55029296875
32.958984375
28.38134765625
22.88818359375
30.21240234375
41.19873046875
38.4521484375
38.4521484375
43.02978515625
41.19873046875
48.52294921875
54.01611328125
51.26953125
50.35400390625
44.86083984375
47.607421875
54.931640625
56.7626953125
65.00244140625
67.7490234375
65.91796875
73.2421875
71.4111328125
72.32666015625
69.580078125
70.49560546875
80.56640625
88.80615234375
92.46826171875
93.3837890625
88.80615234375
93.3837890625
94.29931640625
96.13037109375
98.876953125
102.5390625
114.44091796875
120.849609375
122.6806640625
120.849609375
123.59619140625
129.08935546875
130.92041015625
127.25830078125
130.0048828125
140.07568359375
139.16015625
140.07568359375
142.822265625
152.89306640625
154.72412109375
151.9775390625
153.80859375
153.80859375
153.80859375
162.04833984375
164.794921875
169.37255859375
171.20361328125
171.20361328125
171.20361328125
162.9638671875
162.04833984375
168.45703125
163.87939453125
173.03466796875
170.2880859375
168.45703125
165.71044921875
171.20361328125
162.9638671875
153.80859375
153.80859375
151.06201171875
152.89306640625
142.822265625
132.75146484375
128.173828125
129.08935546875
118.10302734375
105.28564453125
93.3837890625
79.65087890625
75.0732421875
68.66455078125
49.4384765625
43.9453125
32.04345703125
21.05712890625
20.1416015625
14.6484375
9.1552734375
0
-7.32421875
-20.1416015625
-23.8037109375
-25.634765625
-20.1416015625
-22.88818359375
-32.04345703125
-36.62109375
-40.283203125
-47.607421875
-50.35400390625
-46.69189453125
-53.1005859375
-53.1005859375
-53.1005859375
-53.1005859375
-55.84716796875
-57.67822265625
-60.4248046875
-64.0869140625
-65.91796875
-64.0869140625
-66.83349609375
-58.59375
-60.4248046875
-61.34033203125
-65.91796875
-61.34033203125
-65.00244140625
-65.00244140625
-62.255859375
-61.34033203125
-58.59375
-63.17138671875
-60.4248046875
-63.17138671875
-56.7626953125
-54.931640625
-61.34033203125
-68.66455078125
-62.255859375
-52.18505859375
-59.50927734375
-62.255859375
-58.59375
-58.59375
-46.69189453125
-48.52294921875
-51.26953125
-50.35400390625
-49.4384765625
-48.52294921875
-48.52294921875
-44.86083984375
-42.1142578125
-46.69189453125
-46.69189453125
-46.69189453125
-48.52294921875
-44.86083984375
-44.86083984375
-52.18505859375
-53.1005859375
-44.86083984375
-45.7763671875
-43.02978515625
-47.607421875
-48.52294921875
-46.69189453125
-48.52294921875
-56.7626953125
-54.01611328125
-50.35400390625
-53.1005859375
-56.7626953125
-55.84716796875
-50.35400390625
-54.01611328125
-51.26953125
-58.59375
-58.59375
-62.255859375
-58.59375
-57.67822265625
-58.59375
-52.18505859375
-62.255859375
-58.59375
-60.4248046875
-60.4248046875
-64.0869140625
-61.34033203125
-68.66455078125
-63.17138671875
-61.34033203125
-57.67822265625
-65.00244140625
-65.00244140625
-65.91796875
-67.7490234375
-68.66455078125
-71.4111328125
-70.49560546875
-63.17138671875
-65.91796875
-65.00244140625
-73.2421875
-70.49560546875
-67.7490234375
-71.4111328125
-75.98876953125
-73.2421875
-75.0732421875
-73.2421875
-70.49560546875
-70.49560546875
-75.98876953125
-86.0595703125
-84.228515625
-82.3974609375
-83.31298828125
-87.890625
-84.228515625
-86.0595703125
-86.97509765625
-80.56640625
-76.904296875
-80.56640625
-81.48193359375
-85.14404296875
-88.80615234375
-86.97509765625
-81.48193359375
-84.228515625
-86.97509765625
-82.3974609375
-82.3974609375
-80.56640625
-84.228515625
-85.14404296875
-85.14404296875
-86.0595703125
-89.7216796875
-83.31298828125
-83.31298828125
-86.0595703125
-81.48193359375
-79.65087890625
-86.97509765625
-88.80615234375
-85.14404296875
-86.0595703125
-84.228515625
-84.228515625
-82.3974609375
-84.228515625
-85.14404296875
-85.14404296875
-85.14404296875
-86.97509765625
-86.0595703125
-93.3837890625
-88.80615234375
-84.228515625
-86.0595703125
-88.80615234375
-93.3837890625
-88.80615234375
-88.80615234375
-86.97509765625
-88.80615234375
-90.63720703125
-91.552734375
-94.29931640625
-88.80615234375
-97.0458984375
-95.21484375
-95.21484375
-94.29931640625
-100.7080078125
-93.3837890625
-92.46826171875
-95.21484375
-93.3837890625
-90.63720703125
-88.80615234375
-90.63720703125
-89.7216796875
-90.63720703125
-94.29931640625
-95.21484375
-98.876953125
-97.96142578125
-90.63720703125
-88.80615234375
-93.3837890625
-93.3837890625
-96.13037109375
-93.3837890625
-93.3837890625
-90.63720703125
-87.890625
-78.7353515625
-74.15771484375
-78.7353515625
-74.15771484375
-69.580078125
-66.83349609375
-65.91796875
-62.255859375
-49.4384765625
-33.87451171875
-31.1279296875
-17.39501953125
-6.40869140625
5.4931640625
14.6484375
26.55029296875
43.9453125
57.67822265625
59.50927734375
49.4384765625
32.958984375
24.71923828125
29.296875
33.87451171875
33.87451171875
34.7900390625
34.7900390625
34.7900390625
27.4658203125
22.88818359375
23.8037109375
18.310546875
-4.57763671875
-15.56396484375
-32.04345703125
-40.283203125
-53.1005859375
-56.7626953125
-65.91796875
-65.00244140625
-70.49560546875
-72.32666015625
-70.49560546875
-76.904296875
-74.15771484375
-79.65087890625
-86.0595703125
-80.56640625
-82.3974609375
-77.81982421875
-81.48193359375
-84.228515625
-78.7353515625
-84.228515625
-76.904296875
-78.7353515625
-86.0595703125
-88.80615234375
-87.890625
-89.7216796875
-96.13037109375
-97.0458984375
-108.0322265625
-98.876953125
-80.56640625
-64.0869140625
-28.38134765625
0.91552734375
28.38134765625
86.0595703125
137.3291015625
216.064453125
339.66064453125
463.2568359375
613.4033203125
809.326171875
1003.41796875
1173.7060546875
1329.345703125
1490.478515625
1605.8349609375
1632.38525390625
1631.4697265625
1608.58154296875
1436.46240234375
1170.0439453125
951.23291015625
747.98583984375
509.94873046875
229.79736328125
47.607421875
8.23974609375
-15.56396484375
-40.283203125
-68.66455078125
-62.255859375
-42.1142578125
-19.22607421875
10.986328125
25.634765625
26.55029296875
19.22607421875
12.8173828125
0.91552734375
-9.1552734375
-13.73291015625
-15.56396484375
-20.1416015625
-33.87451171875
-26.55029296875
-32.958984375
-34.7900390625
-33.87451171875
-28.38134765625
-30.21240234375
-35.70556640625
-43.9453125
-34.7900390625
-36.62109375
-39.36767578125
-42.1142578125
-41.19873046875
-38.4521484375
-29.296875
-28.38134765625
-32.04345703125
-35.70556640625
-39.36767578125
-36.62109375
-27.4658203125
-27.4658203125
-29.296875
-32.04345703125
-25.634765625
-16.4794921875
-17.39501953125
-21.97265625
-24.71923828125
-15.56396484375
-13.73291015625
-8.23974609375
-10.986328125
-7.32421875
-3.662109375
9.1552734375
8.23974609375
3.662109375
7.32421875
0
10.07080078125
18.310546875
22.88818359375
22.88818359375
21.97265625
22.88818359375
26.55029296875
25.634765625
24.71923828125
29.296875
32.04345703125
37.53662109375
42.1142578125
40.283203125
45.7763671875
48.52294921875
55.84716796875
56.7626953125
57.67822265625
58.59375
61.34033203125
55.84716796875
68.66455078125
75.0732421875
75.0732421875
75.98876953125
80.56640625
77.81982421875
78.7353515625
76.904296875
81.48193359375
90.63720703125
101.62353515625
104.3701171875
108.0322265625
111.6943359375
113.525390625
112.60986328125
110.77880859375
113.525390625
127.25830078125
125.42724609375
123.59619140625
131.8359375
133.6669921875
139.16015625
134.58251953125
140.07568359375
138.24462890625
143.73779296875
149.23095703125
148.3154296875
150.146484375
141.90673828125
151.06201171875
150.146484375
153.80859375
151.06201171875
147.39990234375
138.24462890625
139.16015625
141.90673828125
141.90673828125
136.41357421875
130.92041015625
127.25830078125
113.525390625
100.7080078125
100.7080078125
89.7216796875
72.32666015625
67.7490234375
53.1005859375
37.53662109375
37.53662109375
31.1279296875
19.22607421875
10.07080078125
-2.74658203125
-7.32421875
-19.22607421875
-25.634765625
-37.53662109375
-41.19873046875
-43.02978515625
-53.1005859375
-56.7626953125
-59.50927734375
-67.7490234375
-69.580078125
-78.7353515625
-91.552734375
-84.228515625
-82.3974609375
-86.97509765625
-89.7216796875
-84.228515625
-97.0458984375
-99.79248046875
-100.7080078125
-101.62353515625
-104.3701171875
-108.94775390625
-107.11669921875
-101.62353515625
-104.3701171875
-108.0322265625
-105.28564453125
-103.45458984375
-98.876953125
-103.45458984375
-103.45458984375
-98.876953125
-99.79248046875
-96.13037109375
-101.62353515625
-100.7080078125
-108.0322265625
-107.11669921875
-101.62353515625
-99.79248046875
-97.96142578125
-100.7080078125
-93.3837890625
-88.80615234375
-91.552734375
-90.63720703125
-97.0458984375
-97.96142578125
-98.876953125
-101.62353515625
-93.3837890625
-92.46826171875
-90.63720703125
-83.31298828125
-89.7216796875
-90.63720703125
-90.63720703125
-94.29931640625
-96.13037109375
-90.63720703125
-89.7216796875
-92.46826171875
-93.3837890625
-90.63720703125
-86.0595703125
-86.0595703125
-86.0595703125
-83.31298828125
-90.63720703125
-92.46826171875
-91.552734375
-92.46826171875
-89.7216796875
-84.228515625
-87.890625
-86.97509765625
-97.96142578125
-97.96142578125
-97.0458984375
-95.21484375
-86.0595703125
-88.80615234375
-94.29931640625
-90.63720703125
-90.63720703125
-91.552734375
-94.29931640625
-94.29931640625
-97.0458984375
-91.552734375
-95.21484375
-98.876953125
-94.29931640625
-95.21484375
-101.62353515625
-103.45458984375
-106.201171875
-100.7080078125
-104.3701171875
-105.28564453125
-103.45458984375
-107.11669921875
-108.0322265625
-102.5390625
-100.7080078125
-109.86328125
-109.86328125
-111.6943359375
-115.3564453125
-112.60986328125
-112.60986328125
-109.86328125
-107.11669921875
-109.86328125
-112.60986328125
-111.6943359375
-113.525390625
-111.6943359375
-114.44091796875
-110.77880859375
-111.6943359375
-109.86328125
-110.77880859375
-109.86328125
-113.525390625
-111.6943359375
-108.94775390625
-112.60986328125
-114.44091796875
-119.0185546875
-110.77880859375
-105.28564453125
-107.11669921875
-105.28564453125
-112.60986328125
-112.60986328125
-108.0322265625
-106.201171875
-110.77880859375
-108.0322265625
-105.28564453125
-110.77880859375
-106.201171875
-111.6943359375
-114.44091796875
-109.86328125
-119.93408203125
-119.0185546875
-115.3564453125
-116.27197265625
-123.59619140625
-123.59619140625
-119.0185546875
-119.0185546875
-109.86328125
-117.1875
-119.0185546875
-109.86328125
-109.86328125
-116.27197265625
-115.3564453125
-114.44091796875
-114.44091796875
-119.93408203125
-119.0185546875
-115.3564453125
-114.44091796875
-117.1875
-118.10302734375
-119.0185546875
-115.3564453125
-111.6943359375
-104.3701171875
-105.28564453125
-107.11669921875
-104.3701171875
-110.77880859375
-110.77880859375
-104.3701171875
-108.94775390625
-108.94775390625
-105.28564453125
-104.3701171875
-101.62353515625
-101.62353515625
-100.7080078125
-108.0322265625
-115.3564453125
-117.1875
-112.60986328125
-109.86328125
-107.11669921875
-98.876953125
-100.7080078125
-105.28564453125
-100.7080078125
-107.11669921875
-108.0322265625
-106.201171875
-110.77880859375
-102.5390625
-100.7080078125
-105.28564453125
-97.0458984375
-91.552734375
-83.31298828125
-86.97509765625
-88.80615234375
-88.80615234375
-83.31298828125
-68.66455078125
-58.59375
-46.69189453125
-32.04345703125
-27.4658203125
-19.22607421875
-12.8173828125
9.1552734375
29.296875
40.283203125
46.69189453125
36.62109375
21.97265625
10.07080078125
6.40869140625
16.4794921875
28.38134765625
24.71923828125
25.634765625
23.8037109375
28.38134765625
23.8037109375
9.1552734375
-1.8310546875
-7.32421875
-21.05712890625
-42.1142578125
-55.84716796875
-62.255859375
-67.7490234375
-68.66455078125
-73.2421875
-75.98876953125
-80.56640625
-79.65087890625
-80.56640625
-86.97509765625
-89.7216796875
-91.552734375
-95.21484375
-92.46826171875
-95.21484375
-94.29931640625
-93.3837890625
-97.0458984375
-97.96142578125
-96.13037109375
-106.201171875
-98.876953125
-103.45458984375
-96.13037109375
-99.79248046875
-97.96142578125
-97.0458984375
-112.60986328125
-113.525390625
-102.5390625
-85.14404296875
-61.34033203125
-14.6484375
21.05712890625
65.91796875
113.525390625
172.119140625
289.306640625
415.6494140625
549.31640625
725.09765625
927.42919921875
1102.294921875
1258.85009765625
1422.7294921875
1560.05859375
1619.56787109375
1625.06103515625
1618.65234375
1504.21142578125
1236.87744140625
1010.7421875
816.650390625
588.68408203125
323.18115234375
105.28564453125
27.4658203125
2.74658203125
-30.21240234375
-48.52294921875
-62.255859375
-48.52294921875
-28.38134765625
-0.91552734375
16.4794921875
16.4794921875
11.90185546875
4.57763671875
-0.91552734375
-10.07080078125
-22.88818359375
-21.05712890625
-26.55029296875
-29.296875
-31.1279296875
-33.87451171875
-33.87451171875
-34.7900390625
-43.02978515625
-45.7763671875
-44.86083984375
-39.36767578125
-39.36767578125
-49.4384765625
-48.52294921875
-46.69189453125
-38.4521484375
-38.4521484375
-36.62109375
-38.4521484375
-32.958984375
-36.62109375
-28.38134765625
-25.634765625
-27.4658203125
-31.1279296875
-25.634765625
-21.97265625
-19.22607421875
-13.73291015625
-14.6484375
-14.6484375
-16.4794921875
-14.6484375
-8.23974609375
-2.74658203125
-10.07080078125
-3.662109375
-1.8310546875
1.8310546875
0
4.57763671875
8.23974609375
14.6484375
12.8173828125
16.4794921875
23.8037109375
24.71923828125
23.8037109375
29.296875
29.296875
33.87451171875
35.70556640625
35.70556640625
39.36767578125
52.18505859375
48.52294921875
55.84716796875
56.7626953125
54.01611328125
59.50927734375
61.34033203125
57.67822265625
57.67822265625
65.00244140625
74.15771484375
74.15771484375
83.31298828125
80.56640625
82.3974609375
89.7216796875
92.46826171875
92.46826171875
97.96142578125
95.21484375
100.7080078125
109.86328125
115.3564453125
120.849609375
126.3427734375
123.59619140625
131.8359375
130.0048828125
135.498046875
140.9912109375
151.06201171875
151.06201171875
144.6533203125
151.06201171875
158.38623046875
158.38623046875
159.3017578125
156.55517578125
155.6396484375
158.38623046875
162.9638671875
162.9638671875
168.45703125
161.1328125
162.9638671875
162.04833984375
162.9638671875
162.04833984375
162.9638671875
163.87939453125
157.470703125
158.38623046875
156.55517578125
149.23095703125
144.6533203125
140.07568359375
135.498046875
129.08935546875
116.27197265625
105.28564453125
100.7080078125
90.63720703125
78.7353515625
71.4111328125
60.4248046875
47.607421875
38.4521484375
36.62109375
23.8037109375
11.90185546875
8.23974609375
-0.91552734375
-1.8310546875
-7.32421875
-13.73291015625
-28.38134765625
-30.21240234375
-30.21240234375
-38.4521484375
-38.4521484375
-36.62109375
-41.19873046875
-47.607421875
-51.26953125
-54.01611328125
-58.59375
-61.34033203125
-55.84716796875
-59.50927734375
-59.50927734375
-61.34033203125
-62.255859375
-61.34033203125
-65.00244140625
-66.83349609375
-67.7490234375
-65.91796875
-67.7490234375
-70.49560546875
-70.49560546875
-67.7490234375
-63.17138671875
-68.66455078125
-65.91796875
-65.91796875
-64.0869140625
-65.00244140625
-63.17138671875
-68.66455078125
-63.17138671875
-62.255859375
-61.34033203125
-55.84716796875
-55.84716796875
-61.34033203125
-54.931640625
-57.67822265625
-56.7626953125
-53.1005859375
-60.4248046875
-56.7626953125
-50.35400390625
-46.69189453125
-46.69189453125
-50.35400390625
-56.7626953125
-54.931640625
-55.84716796875
-48.52294921875
-45.7763671875
-50.35400390625
-47.607421875
-49.4384765625
-52.18505859375
-57.67822265625
-54.01611328125
-53.1005859375
-54.931640625
-57.67822265625
-49.4384765625
-42.1142578125
-45.7763671875
-51.26953125
-54.931640625
-52.18505859375
-51.26953125
-54.931640625
-50.35400390625
-53.1005859375
-52.18505859375
-42.1142578125
-46.69189453125
-52.18505859375
-54.01611328125
-57.67822265625
-56.7626953125
-54.01611328125
-51.26953125
-53.1005859375
-53.1005859375
-51.26953125
-55.84716796875
-59.50927734375
-61.34033203125
-63.17138671875
-67.7490234375
-67.7490234375
-62.255859375
-62.255859375
-65.91796875
-63.17138671875
-63.17138671875
-68.66455078125
-65.91796875
-61.34033203125
-70.49560546875
-74.15771484375
-65.00244140625
-70.49560546875
-68.66455078125
-65.91796875
-65.00244140625
-58.59375
-71.4111328125
-74.15771484375
-69.580078125
-63.17138671875
-65.91796875
-67.7490234375
-72.32666015625
-72.32666015625
-59.50927734375
-62.255859375
-65.00244140625
-71.4111328125
-68.66455078125
-67.7490234375
-66.83349609375
-71.4111328125
-74.15771484375
-68.66455078125
-73.2421875
-70.49560546875
-67.7490234375
-66.83349609375
-74.15771484375
-73.2421875
-75.0732421875
-76.904296875
-66.83349609375
-72.32666015625
-75.0732421875
-71.4111328125
-71.4111328125
-75.0732421875
-79.65087890625
-75.98876953125
-70.49560546875
-69.580078125
-70.49560546875
-68.66455078125
-75.98876953125
-74.15771484375
-72.32666015625
-73.2421875
-75.0732421875
-71.4111328125
-72.32666015625
-76.904296875
-75.98876953125
-65.91796875
-74.15771484375
-72.32666015625
-73.2421875
-70.49560546875
-71.4111328125
-76.904296875
-74.15771484375
-74.15771484375
-72.32666015625
-70.49560546875
-66.83349609375
-65.91796875
-74.15771484375
-77.81982421875
-72.32666015625
-68.66455078125
-69.580078125
-72.32666015625
-67.7490234375
-65.91796875
-70.49560546875
-71.4111328125
-67.7490234375
-65.91796875
-65.00244140625
-70.49560546875
-69.580078125
-72.32666015625
-74.15771484375
-70.49560546875
-75.0732421875
-71.4111328125
-66.83349609375
-70.49560546875
-72.32666015625
-74.15771484375
-72.32666015625
-70.49560546875
-65.00244140625
-55.84716796875
-60.4248046875
-62.255859375
-54.01611328125
-53.1005859375
-47.607421875
-36.62109375
-29.296875
-24.71923828125
-6.40869140625
12.8173828125
22.88818359375
29.296875
49.4384765625
58.59375
57.67822265625
58.59375
60.4248046875
67.7490234375
60.4248046875
56.7626953125
66.83349609375
75.98876953125
79.65087890625
75.98876953125
68.66455078125
59.50927734375
54.931640625
43.9453125
33.87451171875
27.4658203125
18.310546875
7.32421875
-9.1552734375
-24.71923828125
-25.634765625
-27.4658203125
-34.7900390625
-33.87451171875
-33.87451171875
-33.87451171875
-43.02978515625
-46.69189453125
-44.86083984375
-49.4384765625
-50.35400390625
-59.50927734375
-60.4248046875
-55.84716796875
-58.59375
-61.34033203125
-60.4248046875
-54.01611328125
-58.59375
-66.83349609375
-67.7490234375
-63.17138671875
-62.255859375
-68.66455078125
-76.904296875
-66.83349609375
-50.35400390625
-30.21240234375
-3.662109375
35.70556640625
66.83349609375
98.876953125
153.80859375
235.29052734375
344.23828125
459.5947265625
595.0927734375
776.3671875
974.12109375
1138.916015625
1280.82275390625
1457.51953125
1572.8759765625
1612.24365234375
1631.4697265625
1630.55419921875
1532.5927734375
1293.64013671875
1051.025390625
848.69384765625
652.77099609375
395.5078125
209.65576171875
140.9912109375
91.552734375
39.36767578125
-10.986328125
-41.19873046875
-54.931640625
-37.53662109375
-8.23974609375
18.310546875
41.19873046875
47.607421875
45.7763671875
38.4521484375
28.38134765625
30.21240234375
24.71923828125
6.40869140625
0.91552734375
-3.662109375
-3.662109375
-8.23974609375
-11.90185546875
-12.8173828125
-6.40869140625
-10.07080078125
-14.6484375
-18.310546875
-16.4794921875
-14.6484375
-12.8173828125
-17.39501953125
-20.1416015625
-12.8173828125
-12.8173828125
-15.56396484375
-11.90185546875
-11.90185546875
-10.986328125
-10.986328125
-10.986328125
-5.4931640625
-1.8310546875
-1.8310546875
1.8310546875
5.4931640625
0.91552734375
0.91552734375
4.57763671875
10.986328125
15.56396484375
16.4794921875
21.97265625
25.634765625
24.71923828125
31.1279296875
26.55029296875
25.634765625
35.70556640625
40.283203125
40.283203125
46.69189453125
44.86083984375
43.02978515625
43.9453125
46.69189453125
48.52294921875
48.52294921875
52.18505859375
55.84716796875
59.50927734375
66.83349609375
70.49560546875
69.580078125
67.7490234375
69.580078125
70.49560546875
75.0732421875
76.904296875
71.4111328125
74.15771484375
78.7353515625
82.3974609375
89.7216796875
97.96142578125
97.0458984375
96.13037109375
96.13037109375
97.96142578125
97.0458984375
103.45458984375
108.0322265625
119.0185546875
119.0185546875
122.6806640625
121.76513671875
123.59619140625
124.51171875
123.59619140625
123.59619140625
124.51171875
133.6669921875
146.484375
144.6533203125
151.06201171875
146.484375
144.6533203125
142.822265625
146.484375
144.6533203125
139.16015625
145.56884765625
147.39990234375
146.484375
149.23095703125
146.484375
142.822265625
140.9912109375
140.9912109375
134.58251953125
137.3291015625
139.16015625
130.92041015625
132.75146484375
131.8359375
123.59619140625
116.27197265625
106.201171875
99.79248046875
86.0595703125
84.228515625
70.49560546875
63.17138671875
54.931640625
42.1142578125
36.62109375
26.55029296875
21.05712890625
10.07080078125
1.8310546875
1.8310546875
-4.57763671875
-13.73291015625
-13.73291015625
-21.05712890625
-26.55029296875
-28.38134765625
-34.7900390625
-48.52294921875
-53.1005859375
-55.84716796875
-47.607421875
-56.7626953125
-58.59375
-55.84716796875
-55.84716796875
-60.4248046875
-65.00244140625
-62.255859375
-60.4248046875
-61.34033203125
-64.0869140625
-63.17138671875
-60.4248046875
-63.17138671875
-57.67822265625
-57.67822265625
-68.66455078125
-67.7490234375
-73.2421875
-72.32666015625
-66.83349609375
-67.7490234375
-63.17138671875
-63.17138671875
-64.0869140625
-66.83349609375
-65.91796875
-65.00244140625
-72.32666015625
-65.91796875
-65.00244140625
-62.255859375
-65.91796875
-59.50927734375
-64.0869140625
-63.17138671875
-56.7626953125
-57.67822265625
-65.00244140625
-60.4248046875
-56.7626953125
-58.59375
-55.84716796875
-60.4248046875
-52.18505859375
-55.84716796875
-59.50927734375
-59.50927734375
-58.59375
-53.1005859375
-55.84716796875
-57.67822265625
-57.67822265625
-56.7626953125
-52.18505859375
-60.4248046875
-58.59375
-55.84716796875
-55.84716796875
-54.931640625
-57.67822265625
-55.84716796875
-54.931640625
-57.67822265625
-56.7626953125
-65.00244140625
-64.0869140625
-64.0869140625
-61.34033203125
-66.83349609375
-65.00244140625
-65.00244140625
-69.580078125
-70.49560546875
-62.255859375
-67.7490234375
-72.32666015625
-78.7353515625
-76.904296875
-72.32666015625
-71.4111328125
-74.15771484375
-73.2421875
-78.7353515625
-77.81982421875
-78.7353515625
-77.81982421875
-79.65087890625
-81.48193359375
-85.14404296875
-86.0595703125
-80.56640625
-79.65087890625
-83.31298828125
-76.904296875
-78.7353515625
-80.56640625
-79.65087890625
-81.48193359375
-85.14404296875
-82.3974609375
-83.31298828125
-86.0595703125
-85.14404296875
-77.81982421875
-85.14404296875
-86.0595703125
-91.552734375
-93.3837890625
-88.80615234375
-87.890625
-88.80615234375
-90.63720703125
-86.0595703125
-85.14404296875
-86.0595703125
-89.7216796875
-88.80615234375
-85.14404296875
-88.80615234375
-86.97509765625
-88.80615234375
-88.80615234375
-88.80615234375
-90.63720703125
-88.80615234375
-86.0595703125
-89.7216796875
-91.552734375
-91.552734375
-82.3974609375
-83.31298828125
-83.31298828125
-89.7216796875
-97.0458984375
-89.7216796875
-97.0458984375
-98.876953125
-93.3837890625
-88.80615234375
-90.63720703125
-91.552734375
-95.21484375
-90.63720703125
-90.63720703125
-86.0595703125
-92.46826171875
-94.29931640625
-93.3837890625
-90.63720703125
-91.552734375
-86.0595703125
-86.97509765625
-86.0595703125
-83.31298828125
-81.48193359375
-84.228515625
-95.21484375
-94.29931640625
-87.890625
-86.0595703125
-91.552734375
-81.48193359375
-82.3974609375
-86.0595703125
-92.46826171875
-87.890625
-94.29931640625
-92.46826171875
-97.0458984375
-88.80615234375
-79.65087890625
-86.97509765625
-88.80615234375
-87.890625
-89.7216796875
-97.96142578125
-90.63720703125
-90.63720703125
-94.29931640625
-98.876953125
-94.29931640625
-92.46826171875
-91.552734375
-98.876953125
-98.876953125
-95.21484375
-97.96142578125
-96.13037109375
-94.29931640625
-98.876953125
-95.21484375
-90.63720703125
-89.7216796875
-93.3837890625
-93.3837890625
-92.46826171875
-88.80615234375
-87.890625
-84.228515625
-79.65087890625
-76.904296875
-71.4111328125
-69.580078125
-67.7490234375
-56.7626953125
-48.52294921875
-38.4521484375
-30.21240234375
-16.4794921875
-8.23974609375
18.310546875
29.296875
41.19873046875
60.4248046875
68.66455078125
52.18505859375
36.62109375
23.8037109375
22.88818359375
34.7900390625
37.53662109375
43.02978515625
46.69189453125
49.4384765625
43.02978515625
29.296875
26.55029296875
20.1416015625
5.4931640625
-10.986328125
-23.8037109375
-33.87451171875
-48.52294921875
-56.7626953125
-60.4248046875
-65.91796875
-73.2421875
-74.15771484375
-72.32666015625
-72.32666015625
-77.81982421875
-78.7353515625
-86.0595703125
-85.14404296875
-85.14404296875
-81.48193359375
-81.48193359375
-87.890625
-94.29931640625
-86.97509765625
-86.0595703125
-92.46826171875
-86.97509765625
-86.0595703125
-94.29931640625
-87.890625
-83.31298828125
-95.21484375
-108.94775390625
-101.62353515625
-88.80615234375
-77.81982421875
-47.607421875
-4.57763671875
19.22607421875
65.00244140625
109.86328125
177.6123046875
292.05322265625
422.9736328125
564.88037109375
747.0703125
953.9794921875
1127.9296875
1283.5693359375
1444.7021484375
1575.62255859375
1619.56787109375
1622.314453125
1612.24365234375
1490.478515625
1228.6376953125
997.9248046875
802.001953125
579.52880859375
305.7861328125
95.21484375
21.97265625
-0.91552734375
-32.04345703125
-61.34033203125
-67.7490234375
-45.7763671875
-26.55029296875
2.74658203125
23.8037109375
24.71923828125
21.05712890625
15.56396484375
1.8310546875
-6.40869140625
-12.8173828125
-17.39501953125
-21.05712890625
-28.38134765625
-31.1279296875
-36.62109375
-33.87451171875
-35.70556640625
-37.53662109375
-34.7900390625
-37.53662109375
-33.87451171875
-32.958984375
-35.70556640625
-40.283203125
-41.19873046875
-35.70556640625
-31.1279296875
-28.38134765625
-33.87451171875
-32.958984375
-29.296875
-24.71923828125
-32.04345703125
-38.4521484375
-34.7900390625
-27.4658203125
-19.22607421875
-18.310546875
-17.39501953125
-9.1552734375
-7.32421875
-7.32421875
-8.23974609375
-9.1552734375
-3.662109375
-6.40869140625
-12.8173828125
-2.74658203125
6.40869140625
10.07080078125
10.986328125
10.07080078125
11.90185546875
14.6484375
15.56396484375
10.986328125
15.56396484375
20.1416015625
23.8037109375
30.21240234375
32.04345703125
33.87451171875
32.04345703125
30.21240234375
40.283203125
39.36767578125
44.86083984375
42.1142578125
49.4384765625
55.84716796875
54.931640625
56.7626953125
55.84716796875
58.59375
61.34033203125
73.2421875
76.904296875
79.65087890625
79.65087890625
83.31298828125
84.228515625
84.228515625
85.14404296875
91.552734375
90.63720703125
93.3837890625
97.0458984375
100.7080078125
110.77880859375
112.60986328125
110.77880859375
111.6943359375
119.0185546875
124.51171875
123.59619140625
132.75146484375
129.08935546875
129.08935546875
132.75146484375
141.90673828125
139.16015625
139.16015625
137.3291015625
138.24462890625
134.58251953125
139.16015625
145.56884765625
144.6533203125
148.3154296875
150.146484375
143.73779296875
140.9912109375
138.24462890625
137.3291015625
131.8359375
130.0048828125
126.3427734375
131.8359375
134.58251953125
129.08935546875
120.849609375
108.94775390625
101.62353515625
98.876953125
83.31298828125
74.15771484375
63.17138671875
61.34033203125
47.607421875
32.958984375
31.1279296875
21.05712890625
11.90185546875
2.74658203125
-5.4931640625
-19.22607421875
-21.97265625
-27.4658203125
-30.21240234375
-37.53662109375
-43.02978515625
-44.86083984375
-48.52294921875
-54.01611328125
-58.59375
-57.67822265625
-59.50927734375
-62.255859375
-65.91796875
-69.580078125
-69.580078125
-75.98876953125
-81.48193359375
-77.81982421875
-78.7353515625
-81.48193359375
-71.4111328125
-73.2421875
-70.49560546875
-70.49560546875
-68.66455078125
-75.98876953125
-77.81982421875
-79.65087890625
-78.7353515625
-75.0732421875
-75.98876953125
-75.0732421875
-74.15771484375
-72.32666015625
-68.66455078125
-73.2421875
-71.4111328125
-69.580078125
-76.904296875
-70.49560546875
-65.91796875
-63.17138671875
-66.83349609375
-66.83349609375
-65.00244140625
-61.34033203125
-69.580078125
-69.580078125
-69.580078125
-71.4111328125
-72.32666015625
-72.32666015625
-70.49560546875
-65.91796875
-59.50927734375
-60.4248046875
-66.83349609375
-71.4111328125
-72.32666015625
-70.49560546875
-74.15771484375
-74.15771484375
-73.2421875
-63.17138671875
-63.17138671875
-64.0869140625
-71.4111328125
-70.49560546875
-74.15771484375
-75.98876953125
-65.00244140625
-67.7490234375
-68.66455078125
-68.66455078125
-68.66455078125
-75.0732421875
-75.98876953125
-74.15771484375
-71.4111328125
-67.7490234375
-76.904296875
-75.98876953125
-73.2421875
-73.2421875
-70.49560546875
-75.98876953125
-83.31298828125
-83.31298828125
-82.3974609375
-82.3974609375
-82.3974609375
-86.0595703125
-81.48193359375
-73.2421875
-72.32666015625
-75.0732421875
-84.228515625
-85.14404296875
-86.97509765625
-91.552734375
-87.890625
-89.7216796875
-83.31298828125
-83.31298828125
-83.31298828125
-86.0595703125
-91.552734375
-91.552734375
-89.7216796875
-93.3837890625
-94.29931640625
-91.552734375
-90.63720703125
-92.46826171875
-89.7216796875
-89.7216796875
-90.63720703125
-89.7216796875
-91.552734375
-100.7080078125
-102.5390625
-102.5390625
-99.79248046875
-93.3837890625
-95.21484375
-102.5390625
-103.45458984375
-96.13037109375
-99.79248046875
-105.28564453125
-101.62353515625
-96.13037109375
-93.3837890625
-92.46826171875
-94.29931640625
-101.62353515625
-100.7080078125
-94.29931640625
-93.3837890625
-97.96142578125
-98.876953125
-96.13037109375
-95.21484375
-95.21484375
-91.552734375
-94.29931640625
-102.5390625
-93.3837890625
-92.46826171875
-97.0458984375
-97.96142578125
-96.13037109375
-92.46826171875
-102.5390625
-96.13037109375
-96.13037109375
-96.13037109375
-97.96142578125
-96.13037109375
-99.79248046875
-101.62353515625
-91.552734375
-92.46826171875
-93.3837890625
-94.29931640625
-99.79248046875
-92.46826171875
-99.79248046875
-102.5390625
-108.94775390625
-102.5390625
-106.201171875
-106.201171875
-100.7080078125
-102.5390625
-108.94775390625
-102.5390625
-97.0458984375
-107.11669921875
-109.86328125
-107.11669921875
-106.201171875
-106.201171875
-108.94775390625
-108.0322265625
-99.79248046875
-101.62353515625
-108.0322265625
-106.201171875
-102.5390625
-105.28564453125
-108.0322265625
-106.201171875
-99.79248046875
-100.7080078125
-104.3701171875
-95.21484375
-104.3701171875
-108.94775390625
-107.11669921875
-108.0322265625
-100.7080078125
-96.13037109375
-94.29931640625
-100.7080078125
-94.29931640625
-88.80615234375
-91.552734375
-89.7216796875
-81.48193359375
-75.0732421875
-75.98876953125
-61.34033203125
-47.607421875
-36.62109375
-24.71923828125
-16.4794921875
-9.1552734375
7.32421875
22.88818359375
46.69189453125
53.1005859375
58.59375
43.02978515625
30.21240234375
22.88818359375
21.97265625
28.38134765625
37.53662109375
44.86083984375
35.70556640625
34.7900390625
24.71923828125
24.71923828125
15.56396484375
5.4931640625
-4.57763671875
-23.8037109375
-45.7763671875
-55.84716796875
-59.50927734375
-69.580078125
-72.32666015625
-67.7490234375
-70.49560546875
-71.4111328125
-77.81982421875
-81.48193359375
-88.80615234375
-85.14404296875
-93.3837890625
-97.0458984375
-95.21484375
-88.80615234375
-88.80615234375
-92.46826171875
-98.876953125
-95.21484375
-99.79248046875
-103.45458984375
-101.62353515625
-107.11669921875
-98.876953125
-92.46826171875
-97.0458984375
-106.201171875
-110.77880859375
-101.62353515625
-95.21484375
-71.4111328125
-26.55029296875
14.6484375
47.607421875
99.79248046875
158.38623046875
260.92529296875
379.0283203125
508.11767578125
676.57470703125
869.7509765625
1050.10986328125
1206.6650390625
1370.54443359375
1529.84619140625
1614.07470703125
1622.314453125
1625.9765625
1558.2275390625
1311.03515625
1072.998046875
869.7509765625
657.3486328125
411.07177734375
164.794921875
49.4384765625
24.71923828125
2.74658203125
-36.62109375
-59.50927734375
-47.607421875
-22.88818359375
-6.40869140625
18.310546875
27.4658203125
25.634765625
20.1416015625
10.986328125
5.4931640625
-8.23974609375
-14.6484375
-10.986328125
-19.22607421875
-18.310546875
-23.8037109375
-26.55029296875
-33.87451171875
-33.87451171875
-32.958984375
-31.1279296875
-34.7900390625
-32.958984375
-32.958984375
-35.70556640625
-32.958984375
-35.70556640625
-35.70556640625
-33.87451171875
-40.283203125
-42.1142578125
-32.958984375
-28.38134765625
-27.4658203125
-24.71923828125
-30.21240234375
-26.55029296875
-10.07080078125
-12.8173828125
-13.73291015625
-14.6484375
-15.56396484375
-17.39501953125
-14.6484375
-8.23974609375
-3.662109375
5.4931640625
3.662109375
5.4931640625
3.662109375
1.8310546875
10.07080078125
17.39501953125
19.22607421875
19.22607421875
23.8037109375
22.88818359375
28.38134765625
29.296875
22.88818359375
31.1279296875
33.87451171875
27.4658203125
39.36767578125
45.7763671875
40.283203125
44.86083984375
51.26953125
46.69189453125
46.69189453125
54.931640625
60.4248046875
62.255859375
65.00244140625
65.91796875
71.4111328125
69.580078125
78.7353515625
79.65087890625
75.98876953125
81.48193359375
83.31298828125
85.14404296875
90.63720703125
95.21484375
98.876953125
97.96142578125
97.96142578125
99.79248046875
102.5390625
103.45458984375
112.60986328125
121.76513671875
121.76513671875
126.3427734375
127.25830078125
133.6669921875
130.0048828125
133.6669921875
140.9912109375
137.3291015625
135.498046875
140.9912109375
141.90673828125
146.484375
149.23095703125
142.822265625
141.90673828125
145.56884765625
145.56884765625
145.56884765625
144.6533203125
141.90673828125
142.822265625
140.07568359375
143.73779296875
144.6533203125
146.484375
140.9912109375
132.75146484375
127.25830078125
125.42724609375
119.93408203125
115.3564453125
110.77880859375
97.96142578125
93.3837890625
82.3974609375
69.580078125
56.7626953125
52.18505859375
46.69189453125
34.7900390625
21.97265625
10.07080078125
11.90185546875
2.74658203125
-3.662109375
-13.73291015625
-23.8037109375
-29.296875
-33.87451171875
-36.62109375
-43.02978515625
-48.52294921875
-50.35400390625
-50.35400390625
-49.4384765625
-57.67822265625
-58.59375
-54.01611328125
-61.34033203125
-68.66455078125
-59.50927734375
-54.931640625
-60.4248046875
-65.91796875
-65.00244140625
-65.91796875
-67.7490234375
-65.91796875
-66.83349609375
-65.00244140625
-62.255859375
-61.34033203125
-63.17138671875
-62.255859375
-65.91796875
-65.91796875
-63.17138671875
-65.00244140625
-68.66455078125
-65.91796875
-67.7490234375
-66.83349609375
-60.4248046875
-63.17138671875
-59.50927734375
-59.50927734375
-60.4248046875
-56.7626953125
-55.84716796875
-59.50927734375
-61.34033203125
-54.931640625
-53.1005859375
-54.01611328125
-56.7626953125
-53.1005859375
-49.4384765625
-50.35400390625
-53.1005859375
-50.35400390625
-52.18505859375
-51.26953125
-53.1005859375
-50.35400390625
-54.01611328125
-54.01611328125
-62.255859375
-57.67822265625
-53.1005859375
-61.34033203125
-63.17138671875
-56.7626953125
-54.01611328125
-56.7626953125
-55.84716796875
-51.26953125
-54.931640625
-60.4248046875
-56.7626953125
-46.69189453125
-54.01611328125
-58.59375
-62.255859375
-59.50927734375
-52.18505859375
-60.4248046875
-66.83349609375
-69.580078125
-65.91796875
-62.255859375
-55.84716796875
-61.34033203125
-62.255859375
-60.4248046875
-58.59375
-62.255859375
-69.580078125
-73.2421875
-70.49560546875
-71.4111328125
-75.0732421875
-71.4111328125
-72.32666015625
-66.83349609375
-64.0869140625
-65.91796875
-63.17138671875
-68.66455078125
-67.7490234375
-69.580078125
-76.904296875
-80.56640625
-72.32666015625
-74.15771484375
-81.48193359375
-79.65087890625
-81.48193359375
-85.14404296875
-81.48193359375
-81.48193359375
-79.65087890625
-81.48193359375
-86.97509765625
-85.14404296875
-78.7353515625
-80.56640625
-82.3974609375
-86.0595703125
-86.97509765625
-85.14404296875
-82.3974609375
-77.81982421875
-84.228515625
-82.3974609375
-76.904296875
-79.65087890625
-85.14404296875
-86.0595703125
-85.14404296875
-82.3974609375
-86.0595703125
-84.228515625
-84.228515625
-88.80615234375
-83.31298828125
-78.7353515625
-76.904296875
-75.0732421875
-88.80615234375
-84.228515625
-86.97509765625
-83.31298828125
-80.56640625
-83.31298828125
-85.14404296875
-86.97509765625
-77.81982421875
-85.14404296875
-87.890625
-81.48193359375
-86.0595703125
-81.48193359375
-78.7353515625
-78.7353515625
-83.31298828125
-83.31298828125
-85.14404296875
-84.228515625
-86.0595703125
-88.80615234375
-91.552734375
-89.7216796875
-83.31298828125
-81.48193359375
-86.0595703125
-87.890625
-97.0458984375
-93.3837890625
-87.890625
-86.0595703125
-84.228515625
-84.228515625
-81.48193359375
-85.14404296875
-86.0595703125
-87.890625
-89.7216796875
-86.97509765625
-86.0595703125
-86.97509765625
-87.890625
-91.552734375
-91.552734375
-87.890625
-90.63720703125
-88.80615234375
-90.63720703125
-86.0595703125
-87.890625
-85.14404296875
-83.31298828125
-86.97509765625
-77.81982421875
-75.0732421875
-85.14404296875
-83.31298828125
-75.98876953125
-77.81982421875
-72.32666015625
-68.66455078125
-64.0869140625
-63.17138671875
-64.0869140625
-60.4248046875
-44.86083984375
-38.4521484375
-32.958984375
-14.6484375
-0.91552734375
14.6484375
28.38134765625
41.19873046875
59.50927734375
66.83349609375
56.7626953125
42.1142578125
32.04345703125
23.8037109375
33.87451171875
36.62109375
51.26953125
48.52294921875
46.69189453125
43.02978515625
41.19873046875
38.4521484375
31.1279296875
13.73291015625
3.662109375
-8.23974609375
-21.05712890625
-25.634765625
-43.02978515625
-47.607421875
-50.35400390625
-54.01611328125
-57.67822265625
-64.0869140625
-57.67822265625
-61.34033203125
-67.7490234375
-70.49560546875
-65.91796875
-69.580078125
-73.2421875
-73.2421875
-73.2421875
-73.2421875
-81.48193359375
-84.228515625
-82.3974609375
-80.56640625
-82.3974609375
-80.56640625
-86.0595703125
-79.65087890625
-85.14404296875
-94.29931640625
-80.56640625
-64.0869140625
-45.7763671875
-7.32421875
33.87451171875
65.91796875
101.62353515625
151.06201171875
244.44580078125
360.7177734375
487.97607421875
638.12255859375
825.8056640625
1011.65771484375
1164.55078125
1318.359375
1487.73193359375
1585.693359375
1613.1591796875
1632.38525390625
1617.73681640625
1457.51953125
1203.0029296875
981.4453125
790.10009765625
570.37353515625
315.85693359375
177.6123046875
113.525390625
65.00244140625
6.40869140625
-45.7763671875
-70.49560546875
-65.00244140625
-39.36767578125
-16.4794921875
7.32421875
21.97265625
22.88818359375
20.1416015625
12.8173828125
0
-4.57763671875
-14.6484375
-19.22607421875
-18.310546875
-25.634765625
-23.8037109375
-27.4658203125
-30.21240234375
-30.21240234375
-26.55029296875
-29.296875
-26.55029296875
-25.634765625
-19.22607421875
-19.22607421875
-28.38134765625
-25.634765625
-23.8037109375
-28.38134765625
-21.97265625
-23.8037109375
-22.88818359375
-19.22607421875
-21.05712890625
-17.39501953125
-12.8173828125
-19.22607421875
-14.6484375
-10.07080078125
-8.23974609375
-7.32421875
-7.32421875
-1.8310546875
0
0.91552734375
0.91552734375
-0.91552734375
-2.74658203125
4.57763671875
10.986328125
13.73291015625
19.22607421875
20.1416015625
20.1416015625
14.6484375
17.39501953125
26.55029296875
23.8037109375
21.97265625
26.55029296875
24.71923828125
30.21240234375
37.53662109375
43.9453125
42.1142578125
39.36767578125
42.1142578125
43.02978515625
44.86083984375
43.9453125
49.4384765625
49.4384765625
54.01611328125
55.84716796875
58.59375
64.0869140625
62.255859375
65.91796875
66.83349609375
74.15771484375
78.7353515625
77.81982421875
78.7353515625
86.0595703125
92.46826171875
90.63720703125
97.0458984375
99.79248046875
101.62353515625
101.62353515625
107.11669921875
112.60986328125
110.77880859375
117.1875
120.849609375
121.76513671875
121.76513671875
120.849609375
123.59619140625
125.42724609375
127.25830078125
127.25830078125
127.25830078125
131.8359375
130.0048828125
123.59619140625
117.1875
119.0185546875
114.44091796875
114.44091796875
112.60986328125
115.3564453125
111.6943359375
121.76513671875
122.6806640625
114.44091796875
118.10302734375
107.11669921875
105.28564453125
106.201171875
109.86328125
95.21484375
86.0595703125
82.3974609375
77.81982421875
65.00244140625
54.931640625
46.69189453125
34.7900390625
33.87451171875
33.87451171875
23.8037109375
12.8173828125
7.32421875
-8.23974609375
-8.23974609375
-21.97265625
-29.296875
-31.1279296875
-32.958984375
-37.53662109375
-43.9453125
-45.7763671875
-50.35400390625
-58.59375
-57.67822265625
-65.00244140625
-77.81982421875
-71.4111328125
-75.0732421875
-74.15771484375
-68.66455078125
-60.4248046875
-69.580078125
-68.66455078125
-72.32666015625
-75.0732421875
-79.65087890625
-77.81982421875
-74.15771484375
-76.904296875
-70.49560546875
-69.580078125
-69.580078125
-70.49560546875
-75.0732421875
-82.3974609375
-79.65087890625
-66.83349609375
-66.83349609375
-67.7490234375
-64.0869140625
-66.83349609375
-65.91796875
-62.255859375
-62.255859375
-64.0869140625
-67.7490234375
-67.7490234375
-65.00244140625
-60.4248046875
-63.17138671875
-58.59375
-57.67822265625
-57.67822265625
-63.17138671875
-62.255859375
-61.34033203125
-65.91796875
-67.7490234375
-63.17138671875
-58.59375
-62.255859375
-58.59375
-61.34033203125
-62.255859375
-62.255859375
-65.00244140625
-65.91796875
-67.7490234375
-65.00244140625
-65.00244140625
-65.00244140625
-64.0869140625
-71.4111328125
-66.83349609375
-63.17138671875
-65.91796875
-73.2421875
-70.49560546875
-65.00244140625
-67.7490234375
-69.580078125
-66.83349609375
-73.2421875
-72.32666015625
-68.66455078125
-75.0732421875
-75.98876953125
-68.66455078125
-73.2421875
-78.7353515625
-72.32666015625
-71.4111328125
-83.31298828125
-81.48193359375
-86.97509765625
-78.7353515625
-79.65087890625
-81.48193359375
-75.98876953125
-82.3974609375
-86.0595703125
-80.56640625
-83.31298828125
-86.0595703125
-82.3974609375
-86.0595703125
-87.890625
-89.7216796875
-86.97509765625
-90.63720703125
-92.46826171875
-87.890625
-89.7216796875
-90.63720703125
-87.890625
-94.29931640625
-91.552734375
-81.48193359375
-86.97509765625
-95.21484375
-86.0595703125
-88.80615234375
-95.21484375
-97.96142578125
-104.3701171875
-97.0458984375
-88.80615234375
-93.3837890625
-95.21484375
-93.3837890625
-93.3837890625
-93.3837890625
-95.21484375
-98.876953125
-102.5390625
-105.28564453125
-104.3701171875
-106.201171875
-111.6943359375
-109.86328125
-100.7080078125
-100.7080078125
-107.11669921875
-106.201171875
-110.77880859375
-103.45458984375
-105.28564453125
-107.11669921875
-99.79248046875
-108.0322265625
-98.876953125
-93.3837890625
-105.28564453125
-107.11669921875
-107.11669921875
-103.45458984375
-100.7080078125
-103.45458984375
-106.201171875
-105.28564453125
-101.62353515625
-99.79248046875
-100.7080078125
-103.45458984375
-104.3701171875
-111.6943359375
-110.77880859375
-101.62353515625
-102.5390625
-105.28564453125
-99.79248046875
-102.5390625
-105.28564453125
-108.0322265625
-106.201171875
-105.28564453125
-115.3564453125
-108.94775390625
-101.62353515625
-104.3701171875
-104.3701171875
-107.11669921875
-106.201171875
-110.77880859375
-112.60986328125
-110.77880859375
-115.3564453125
-116.27197265625
-108.94775390625
-100.7080078125
-106.201171875
-108.94775390625
-110.77880859375
-108.0322265625
-113.525390625
-116.27197265625
-113.525390625
-105.28564453125
-104.3701171875
-102.5390625
-99.79248046875
-103.45458984375
-102.5390625
-105.28564453125
-113.525390625
-109.86328125
-115.3564453125
-111.6943359375
-107.11669921875
-102.5390625
-104.3701171875
-103.45458984375
-100.7080078125
-101.62353515625
-103.45458984375
-104.3701171875
-94.29931640625
-92.46826171875
-86.97509765625
-86.0595703125
-84.228515625
-80.56640625
-73.2421875
-61.34033203125
-52.18505859375
-43.02978515625
-32.04345703125
-13.73291015625
0.91552734375
7.32421875
24.71923828125
40.283203125
43.02978515625
27.4658203125
16.4794921875
6.40869140625
4.57763671875
17.39501953125
21.97265625
32.04345703125
32.04345703125
30.21240234375
27.4658203125
15.56396484375
6.40869140625
-0.91552734375
-15.56396484375
-22.88818359375
-36.62109375
-45.7763671875
-61.34033203125
-65.91796875
-70.49560546875
-76.904296875
-78.7353515625
-85.14404296875
-86.0595703125
-88.80615234375
-86.0595703125
-88.80615234375
-91.552734375
-96.13037109375
-91.552734375
-97.96142578125
-109.86328125
-106.201171875
-101.62353515625
-104.3701171875
-107.11669921875
-102.5390625
-96.13037109375
-108.0322265625
-101.62353515625
-101.62353515625
-108.94775390625
-119.0185546875
-114.44091796875
-99.79248046875
-85.14404296875
-52.18505859375
-16.4794921875
16.4794921875
55.84716796875
102.5390625
174.86572265625
287.4755859375
417.48046875
560.302734375
749.81689453125
952.1484375
1107.7880859375
1258.85009765625
1430.96923828125
1554.5654296875
1601.25732421875
1611.328125
1600.341796875
1490.478515625
1224.9755859375
988.76953125
788.26904296875
565.7958984375
305.7861328125
94.29931640625
22.88818359375
-11.90185546875
-46.69189453125
-73.2421875
-90.63720703125
-72.32666015625
-47.607421875
-25.634765625
-0.91552734375
5.4931640625
-0.91552734375
-17.39501953125
-24.71923828125
-33.87451171875
-29.296875
-31.1279296875
-42.1142578125
-47.607421875
-50.35400390625
-54.01611328125
-54.01611328125
-59.50927734375
-65.91796875
-65.91796875
-65.00244140625
-63.17138671875
-69.580078125
-64.0869140625
-65.00244140625
-65.00244140625
-58.59375
-58.59375
-58.59375
-52.18505859375
-49.4384765625
-48.52294921875
-47.607421875
-56.7626953125
-56.7626953125
-52.18505859375
-43.9453125
-52.18505859375
-47.607421875
-43.9453125
-39.36767578125
-41.19873046875
-40.283203125
-38.4521484375
-40.283203125
-39.36767578125
-27.4658203125
-25.634765625
-21.97265625
-17.39501953125
-13.73291015625
-11.90185546875
-15.56396484375
-16.4794921875
-21.05712890625
-5.4931640625
-1.8310546875
-10.07080078125
0
3.662109375
-1.8310546875
4.57763671875
7.32421875
11.90185546875
10.07080078125
16.4794921875
17.39501953125
23.8037109375
31.1279296875
20.1416015625
26.55029296875
29.296875
31.1279296875
36.62109375
38.4521484375
46.69189453125
51.26953125
35.70556640625
43.02978515625
48.52294921875
53.1005859375
54.01611328125
60.4248046875
68.66455078125
66.83349609375
69.580078125
71.4111328125
75.0732421875
77.81982421875
75.98876953125
79.65087890625
86.0595703125
88.80615234375
95.21484375
97.0458984375
101.62353515625
98.876953125
101.62353515625
98.876953125
99.79248046875
101.62353515625
114.44091796875
116.27197265625
119.0185546875
103.45458984375
105.28564453125
115.3564453125
100.7080078125
105.28564453125
106.201171875
103.45458984375
115.3564453125
104.3701171875
104.3701171875
100.7080078125
101.62353515625
90.63720703125
94.29931640625
99.79248046875
99.79248046875
97.0458984375
98.876953125
87.890625
77.81982421875
71.4111328125
58.59375
45.7763671875
44.86083984375
32.958984375
26.55029296875
15.56396484375
2.74658203125
-4.57763671875
-9.1552734375
-14.6484375
-27.4658203125
-45.7763671875
-43.9453125
-49.4384765625
-62.255859375
-60.4248046875
-65.00244140625
-69.580078125
-73.2421875
-75.98876953125
-82.3974609375
-86.0595703125
-83.31298828125
-81.48193359375
-81.48193359375
-94.29931640625
-92.46826171875
-94.29931640625
-99.79248046875
-101.62353515625
-106.201171875
-100.7080078125
-98.876953125
-106.201171875
-102.5390625
-92.46826171875
-99.79248046875
-97.0458984375
-90.63720703125
-104.3701171875
-107.11669921875
-109.86328125
-109.86328125
-92.46826171875
-91.552734375
-79.65087890625
-91.552734375
-104.3701171875
-104.3701171875
-95.21484375
-99.79248046875
-94.29931640625
-95.21484375
-78.7353515625
-87.890625
-94.29931640625
-86.97509765625
-87.890625
-85.14404296875
-75.98876953125
-88.80615234375
-101.62353515625
-89.7216796875
-83.31298828125
-86.0595703125
-83.31298828125
-82.3974609375
-83.31298828125
-83.31298828125
-76.904296875
-79.65087890625
-87.890625
-94.29931640625
-90.63720703125
-86.0595703125
-86.97509765625
-86.97509765625
-90.63720703125
-91.552734375
-95.21484375
-92.46826171875
-85.14404296875
-86.0595703125
-89.7216796875
-89.7216796875
-83.31298828125
-86.97509765625
-92.46826171875
-88.80615234375
-88.80615234375
-94.29931640625
-89.7216796875
-86.97509765625
-89.7216796875
-91.552734375
-97.96142578125
-97.96142578125
-97.0458984375
-98.876953125
-97.0458984375
-95.21484375
-105.28564453125
-99.79248046875
-99.79248046875
-104.3701171875
-106.201171875
-94.29931640625
-99.79248046875
-110.77880859375
-109.86328125
-105.28564453125
-106.201171875
-109.86328125
-111.6943359375
-108.0322265625
-97.96142578125
-96.13037109375
-114.44091796875
-110.77880859375
-112.60986328125
-112.60986328125
-110.77880859375
-102.5390625
-105.28564453125
-111.6943359375
-112.60986328125
-108.94775390625
-106.201171875
-101.62353515625
-110.77880859375
-117.1875
-111.6943359375
-112.60986328125
-115.3564453125
-112.60986328125
-110.77880859375
-107.11669921875
-112.60986328125
-117.1875
-119.0185546875
-123.59619140625
-119.93408203125
-115.3564453125
-117.1875
-118.10302734375
-123.59619140625
-116.27197265625
-111.6943359375
-109.86328125
-120.849609375
-121.76513671875
-117.1875
-108.0322265625
-108.0322265625
-116.27197265625
-120.849609375
-114.44091796875
-111.6943359375
-107.11669921875
-100.7080078125
-119.0185546875
-119.93408203125
-113.525390625
-116.27197265625
-116.27197265625
-116.27197265625
-113.525390625
-120.849609375
-113.525390625
-113.525390625
-114.44091796875
-119.0185546875
-107.11669921875
-119.93408203125
-125.42724609375
-119.93408203125
-121.76513671875
-119.93408203125
-116.27197265625
-114.44091796875
-122.6806640625
-118.10302734375
-115.3564453125
-113.525390625
-122.6806640625
-119.93408203125
-115.3564453125
-115.3564453125
-113.525390625
-115.3564453125
-118.10302734375
-122.6806640625
-115.3564453125
-115.3564453125
-117.1875
-116.27197265625
-112.60986328125
-120.849609375
-112.60986328125
-120.849609375
-130.0048828125
-131.8359375
-130.92041015625
-123.59619140625
-119.0185546875
-117.1875
-115.3564453125
-116.27197265625
-118.10302734375
-116.27197265625
-118.10302734375
-117.1875
-123.59619140625
-119.0185546875
-113.525390625
-117.1875
-119.93408203125
-115.3564453125
-113.525390625
-105.28564453125
-102.5390625
-103.45458984375
-97.0458984375
-98.876953125
-97.0458984375
-86.97509765625
-69.580078125
-75.98876953125
-59.50927734375
-43.02978515625
-26.55029296875
-15.56396484375
-15.56396484375
-3.662109375
16.4794921875
32.04345703125
37.53662109375
24.71923828125
10.07080078125
-5.4931640625
0
10.07080078125
17.39501953125
15.56396484375
17.39501953125
13.73291015625
2.74658203125
1.8310546875
-0.91552734375
-15.56396484375
-25.634765625
-32.958984375
-53.1005859375
-65.00244140625
-75.0732421875
-73.2421875
-77.81982421875
-80.56640625
-84.228515625
-91.552734375
-86.97509765625
-95.21484375
-105.28564453125
-102.5390625
-103.45458984375
-103.45458984375
-106.201171875
-101.62353515625
-108.0322265625
-113.525390625
-111.6943359375
-104.3701171875
-100.7080078125
-104.3701171875
-120.849609375
-112.60986328125
-108.0322265625
-101.62353515625
-106.201171875
-114.44091796875
-125.42724609375
-119.93408203125
-107.11669921875
-81.48193359375
-36.62109375
-2.74658203125
37.53662109375
83.31298828125
144.6533203125
243.5302734375
366.2109375
498.046875
667.41943359375
864.2578125
1050.10986328125
1207.58056640625
1376.953125
1537.17041015625
1608.58154296875
1604.00390625
1593.93310546875
1501.46484375
1241.455078125
1021.728515625
821.22802734375
601.50146484375
347.900390625
121.76513671875
24.71923828125
0
-32.958984375
-68.66455078125
-83.31298828125
-69.580078125
-39.36767578125
-17.39501953125
3.662109375
11.90185546875
2.74658203125
-9.1552734375
-18.310546875
-30.21240234375
-31.1279296875
-32.04345703125
-36.62109375
-36.62109375
-44.86083984375
-43.9453125
-43.9453125
-50.35400390625
-56.7626953125
-54.01611328125
-55.84716796875
-61.34033203125
-54.01611328125
-53.1005859375
-53.1005859375
-56.7626953125
-61.34033203125
-54.01611328125
-50.35400390625
-55.84716796875
-46.69189453125
-43.02978515625
-45.7763671875
-46.69189453125
-38.4521484375
-36.62109375
-35.70556640625
-38.4521484375
-38.4521484375
-36.62109375
-32.958984375
-28.38134765625
-27.4658203125
-21.97265625
-24.71923828125
-23.8037109375
-20.1416015625
-16.4794921875
-15.56396484375
-17.39501953125
-15.56396484375
-12.8173828125
-13.73291015625
-0.91552734375
1.8310546875
1.8310546875
6.40869140625
9.1552734375
10.986328125
14.6484375
17.39501953125
16.4794921875
22.88818359375
32.958984375
36.62109375
38.4521484375
30.21240234375
36.62109375
40.283203125
44.86083984375
37.53662109375
42.1142578125
45.7763671875
53.1005859375
57.67822265625
56.7626953125
61.34033203125
68.66455078125
64.0869140625
70.49560546875
76.904296875
72.32666015625
75.0732421875
74.15771484375
87.890625
96.13037109375
96.13037109375
97.0458984375
94.29931640625
91.552734375
97.96142578125
100.7080078125
105.28564453125
116.27197265625
120.849609375
113.525390625
113.525390625
129.08935546875
131.8359375
119.93408203125
124.51171875
131.8359375
131.8359375
130.0048828125
135.498046875
135.498046875
138.24462890625
137.3291015625
136.41357421875
137.3291015625
136.41357421875
144.6533203125
140.07568359375
137.3291015625
140.07568359375
136.41357421875
136.41357421875
137.3291015625
129.08935546875
125.42724609375
128.173828125
119.0185546875
109.86328125
108.0322265625
103.45458984375
98.876953125
93.3837890625
83.31298828125
72.32666015625
67.7490234375
56.7626953125
45.7763671875
39.36767578125
34.7900390625
29.296875
13.73291015625
5.4931640625
1.8310546875
-5.4931640625
-13.73291015625
-17.39501953125
-21.05712890625
-25.634765625
-30.21240234375
-36.62109375
-37.53662109375
-35.70556640625
-38.4521484375
-48.52294921875
-48.52294921875
-50.35400390625
-49.4384765625
-51.26953125
-54.931640625
-49.4384765625
-52.18505859375
-51.26953125
-57.67822265625
-61.34033203125
-55.84716796875
-52.18505859375
-46.69189453125
-50.35400390625
-51.26953125
-52.18505859375
-57.67822265625
-60.4248046875
-44.86083984375
-50.35400390625
-61.34033203125
-55.84716796875
-55.84716796875
-54.01611328125
-50.35400390625
-46.69189453125
-47.607421875
-53.1005859375
-54.01611328125
-54.01611328125
-54.931640625
-58.59375
-56.7626953125
-49.4384765625
-48.52294921875
-43.9453125
-39.36767578125
-34.7900390625
-47.607421875
-52.18505859375
-47.607421875
-44.86083984375
-47.607421875
-52.18505859375
-45.7763671875
-46.69189453125
-46.69189453125
-48.52294921875
-45.7763671875
-44.86083984375
-44.86083984375
-40.283203125
-45.7763671875
-47.607421875
-48.52294921875
-46.69189453125
-46.69189453125
-46.69189453125
-45.7763671875
-51.26953125
-54.01611328125
-49.4384765625
-43.9453125
-43.9453125
-43.9453125
-44.86083984375
-47.607421875
-47.607421875
-49.4384765625
-57.67822265625
-60.4248046875
-54.01611328125
-50.35400390625
-51.26953125
-49.4384765625
-46.69189453125
-54.931640625
-63.17138671875
-57.67822265625
-55.84716796875
-61.34033203125
-60.4248046875
-55.84716796875
-47.607421875
-44.86083984375
-50.35400390625
-46.69189453125
-51.26953125
-57.67822265625
-54.931640625
-52.18505859375
-58.59375
-61.34033203125
-58.59375
-60.4248046875
-54.01611328125
-51.26953125
-55.84716796875
-65.00244140625
-65.91796875
-60.4248046875
-59.50927734375
-60.4248046875
-58.59375
-58.59375
-58.59375
-51.26953125
-53.1005859375
-67.7490234375
-69.580078125
-65.91796875
-68.66455078125
-69.580078125
-70.49560546875
-67.7490234375
-72.32666015625
-64.0869140625
-66.83349609375
-70.49560546875
-75.98876953125
-70.49560546875
-74.15771484375
-70.49560546875
-65.00244140625
-54.931640625
-54.01611328125
-64.0869140625
-63.17138671875
-65.91796875
-69.580078125
-66.83349609375
-67.7490234375
-62.255859375
-62.255859375
-66.83349609375
-60.4248046875
-56.7626953125
-58.59375
-58.59375
-62.255859375
-67.7490234375
-63.17138671875
-58.59375
-60.4248046875
-57.67822265625
-61.34033203125
-62.255859375
-59.50927734375
-66.83349609375
-65.00244140625
-65.00244140625
-65.91796875
-65.00244140625
-58.59375
-57.67822265625
-66.83349609375
-58.59375
-60.4248046875
-65.00244140625
-67.7490234375
-68.66455078125
-64.0869140625
-61.34033203125
-67.7490234375
-62.255859375
-60.4248046875
-62.255859375
-60.4248046875
-62.255859375
-65.91796875
-70.49560546875
-58.59375
-60.4248046875
-62.255859375
-58.59375
-54.931640625
-55.84716796875
-63.17138671875
-61.34033203125
-61.34033203125
-59.50927734375
-57.67822265625
-46.69189453125
-49.4384765625
-48.52294921875
-54.01611328125
-54.01611328125
-52.18505859375
-41.19873046875
-53.1005859375
-57.67822265625
-49.4384765625
-42.1142578125
-38.4521484375
-38.4521484375
-36.62109375
-34.7900390625
-24.71923828125
-13.73291015625
-10.986328125
-0.91552734375
15.56396484375
31.1279296875
46.69189453125
51.26953125
62.255859375
85.14404296875
92.46826171875
83.31298828125
66.83349609375
56.7626953125
60.4248046875
62.255859375
69.580078125
80.56640625
81.48193359375
74.15771484375
84.228515625
71.4111328125
54.931640625
48.52294921875
37.53662109375
28.38134765625
14.6484375
9.1552734375
0.91552734375
-8.23974609375
-13.73291015625
-22.88818359375
-21.05712890625
-21.97265625
-23.8037109375
-27.4658203125
-29.296875
-30.21240234375
-31.1279296875
-32.958984375
-32.958984375
-28.38134765625
-36.62109375
-42.1142578125
-42.1142578125
-37.53662109375
-36.62109375
-36.62109375
-39.36767578125
-38.4521484375
-38.4521484375
-39.36767578125
-46.69189453125
-53.1005859375
-52.18505859375
-38.4521484375
-26.55029296875
0.91552734375
35.70556640625
65.91796875
100.7080078125
150.146484375
201.416015625
312.19482421875
431.21337890625
555.72509765625
716.85791015625
909.11865234375
1093.1396484375
1236.87744140625
1404.4189453125
1558.2275390625
1634.21630859375
1653.4423828125
1666.259765625
1625.06103515625
1421.81396484375
1173.7060546875
949.40185546875
761.71875
531.005859375
292.96875
175.78125
128.173828125
78.7353515625
25.634765625
-11.90185546875
-38.4521484375
-23.8037109375
3.662109375
32.958984375
61.34033203125
65.91796875
58.59375
57.67822265625
50.35400390625
43.02978515625
32.04345703125
30.21240234375
29.296875
24.71923828125
21.97265625
23.8037109375
18.310546875
11.90185546875
19.22607421875
15.56396484375
14.6484375
10.986328125
10.986328125
15.56396484375
15.56396484375
15.56396484375
8.23974609375
8.23974609375
16.4794921875
17.39501953125
14.6484375
18.310546875
18.310546875
21.05712890625
21.97265625
17.39501953125
21.97265625
31.1279296875
28.38134765625
27.4658203125
27.4658203125
26.55029296875
35.70556640625
44.86083984375
36.62109375
37.53662109375
43.02978515625
41.19873046875
35.70556640625
37.53662109375
44.86083984375
51.26953125
55.84716796875
53.1005859375
51.26953125
60.4248046875
62.255859375
59.50927734375
63.17138671875
68.66455078125
70.49560546875
76.904296875
73.2421875
74.15771484375
78.7353515625
75.98876953125
79.65087890625
88.80615234375
86.97509765625
89.7216796875
92.46826171875
95.21484375
107.11669921875
107.11669921875
102.5390625
108.0322265625
108.0322265625
107.11669921875
115.3564453125
113.525390625
120.849609375
122.6806640625
130.92041015625
134.58251953125
130.0048828125
134.58251953125
130.92041015625
132.75146484375
139.16015625
148.3154296875
151.9775390625
160.21728515625
162.9638671875
164.794921875
168.45703125
164.794921875
169.37255859375
168.45703125
171.20361328125
176.69677734375
182.18994140625
175.78125
180.35888671875
177.6123046875
176.69677734375
176.69677734375
184.02099609375
180.35888671875
180.35888671875
178.52783203125
184.02099609375
185.85205078125
176.69677734375
169.37255859375
174.86572265625
171.20361328125
169.37255859375
163.87939453125
162.04833984375
160.21728515625
151.9775390625
144.6533203125
140.07568359375
133.6669921875
121.76513671875
109.86328125
102.5390625
92.46826171875
83.31298828125
66.83349609375
61.34033203125
61.34033203125
51.26953125
45.7763671875
40.283203125
26.55029296875
24.71923828125
19.22607421875
10.986328125
6.40869140625
6.40869140625
8.23974609375
-1.8310546875
-5.4931640625
-10.986328125
-18.310546875
-13.73291015625
-10.986328125
-13.73291015625
-12.8173828125
-22.88818359375
-31.1279296875
-31.1279296875
-32.04345703125
-36.62109375
-32.04345703125
-30.21240234375
-27.4658203125
-32.04345703125
-29.296875
-25.634765625
-21.05712890625
-29.296875
-37.53662109375
-31.1279296875
-33.87451171875
-28.38134765625
-25.634765625
-29.296875
-29.296875
-29.296875
-34.7900390625
-31.1279296875
-29.296875
-21.05712890625
-29.296875
-32.04345703125
-22.88818359375
-27.4658203125
-24.71923828125
-25.634765625
-21.97265625
-19.22607421875
-19.22607421875
-23.8037109375
-20.1416015625
-21.05712890625
-21.97265625
-19.22607421875
-21.05712890625
-12.8173828125
-4.57763671875
-7.32421875
-5.4931640625
-18.310546875
-22.88818359375
-18.310546875
-15.56396484375
-9.1552734375
-9.1552734375
-19.22607421875
-10.986328125
-12.8173828125
-10.986328125
-14.6484375
-15.56396484375
-17.39501953125
-6.40869140625
-12.8173828125
-15.56396484375
-10.07080078125
-15.56396484375
-7.32421875
-4.57763671875
-17.39501953125
-21.97265625
-19.22607421875
-18.310546875
-15.56396484375
-14.6484375
-19.22607421875
-21.97265625
-23.8037109375
-28.38134765625
-28.38134765625
-35.70556640625
-41.19873046875
-31.1279296875
-25.634765625
-26.55029296875
-25.634765625
-25.634765625
-31.1279296875
-26.55029296875
-29.296875
-40.283203125
-38.4521484375
-32.958984375
-43.02978515625
-37.53662109375
-33.87451171875
-32.958984375
-37.53662109375
-32.958984375
-35.70556640625
-40.283203125
-46.69189453125
-41.19873046875
-38.4521484375
-40.283203125
-36.62109375
-40.283203125
-35.70556640625
-32.958984375
-41.19873046875
-43.02978515625
-35.70556640625
-38.4521484375
-32.04345703125
-37.53662109375
-40.283203125
-41.19873046875
-40.283203125
-39.36767578125
-31.1279296875
-45.7763671875
-48.52294921875
-39.36767578125
-43.9453125
-38.4521484375
-42.1142578125
-47.607421875
-45.7763671875
-39.36767578125
-33.87451171875
-38.4521484375
-51.26953125
-54.01611328125
-48.52294921875
-40.283203125
-37.53662109375
-43.9453125
-35.70556640625
-43.9453125
-56.7626953125
-47.607421875
-47.607421875
-45.7763671875
-45.7763671875
-43.02978515625
-33.87451171875
-34.7900390625
-49.4384765625
-50.35400390625
-46.69189453125
-48.52294921875
-56.7626953125
-49.4384765625
-47.607421875
-44.86083984375
-50.35400390625
-51.26953125
-51.26953125
-54.931640625
-52.18505859375
-54.931640625
-57.67822265625
-54.931640625
-58.59375
-49.4384765625
-45.7763671875
-49.4384765625
-51.26953125
-53.1005859375
-51.26953125
-52.18505859375
-46.69189453125
-52.18505859375
-49.4384765625
-44.86083984375
-44.86083984375
-50.35400390625
-53.1005859375
-52.18505859375
-48.52294921875
-49.4384765625
-53.1005859375
-51.26953125
-53.1005859375
-54.01611328125
-53.1005859375
-45.7763671875
-44.86083984375
-47.607421875
-48.52294921875
-54.01611328125
-50.35400390625
-57.67822265625
-52.18505859375
-47.607421875
-49.4384765625
-50.35400390625
-45.7763671875
-44.86083984375
-45.7763671875
-43.9453125
-42.1142578125
-42.1142578125
-32.958984375
-25.634765625
-17.39501953125
-8.23974609375
-5.4931640625
10.07080078125
24.71923828125
37.53662109375
43.02978515625
54.931640625
79.65087890625
95.21484375
97.96142578125
89.7216796875
76.904296875
61.34033203125
66.83349609375
65.00244140625
71.4111328125
79.65087890625
81.48193359375
84.228515625
81.48193359375
71.4111328125
69.580078125
55.84716796875
41.19873046875
26.55029296875
9.1552734375
4.57763671875
-9.1552734375
-15.56396484375
-21.97265625
-18.310546875
-21.05712890625
-28.38134765625
-32.04345703125
-33.87451171875
-37.53662109375
-40.283203125
-38.4521484375
-34.7900390625
-39.36767578125
-38.4521484375
-43.02978515625
-42.1142578125
-42.1142578125
-42.1142578125
-43.9453125
-49.4384765625
-48.52294921875
-47.607421875
-46.69189453125
-48.52294921875
-52.18505859375
-58.59375
-58.59375
-46.69189453125
-34.7900390625
0.91552734375
43.02978515625
74.15771484375
110.77880859375
165.71044921875
229.79736328125
339.66064453125
467.83447265625
609.7412109375
793.76220703125
994.2626953125
1174.62158203125
1322.93701171875
1494.140625
1630.55419921875
1679.0771484375
1680.908203125
1677.24609375
1589.35546875
1330.26123046875
1087.646484375
886.23046875
674.74365234375
415.6494140625
196.83837890625
110.77880859375
66.83349609375
27.4658203125
-8.23974609375
-32.04345703125
-22.88818359375
5.4931640625
32.958984375
59.50927734375
73.2421875
61.34033203125
56.7626953125
46.69189453125
42.1142578125
36.62109375
28.38134765625
21.05712890625
20.1416015625
21.97265625
12.8173828125
11.90185546875
8.23974609375
2.74658203125
-3.662109375
0
4.57763671875
6.40869140625
7.32421875
8.23974609375
8.23974609375
7.32421875
10.07080078125
4.57763671875
7.32421875
10.986328125
9.1552734375
10.986328125
15.56396484375
20.1416015625
19.22607421875
17.39501953125
19.22607421875
20.1416015625
20.1416015625
20.1416015625
26.55029296875
33.87451171875
33.87451171875
35.70556640625
38.4521484375
37.53662109375
40.283203125
43.02978515625
45.7763671875
49.4384765625
49.4384765625
53.1005859375
52.18505859375
53.1005859375
59.50927734375
65.00244140625
67.7490234375
65.00244140625
58.59375
65.00244140625
67.7490234375
75.0732421875
75.0732421875
79.65087890625
84.228515625
86.97509765625
88.80615234375
91.552734375
90.63720703125
93.3837890625
97.0458984375
100.7080078125
101.62353515625
101.62353515625
105.28564453125
107.11669921875
108.0322265625
110.77880859375
119.0185546875
112.60986328125
116.27197265625
125.42724609375
126.3427734375
133.6669921875
134.58251953125
141.90673828125
136.41357421875
138.24462890625
141.90673828125
150.146484375
156.55517578125
157.470703125
162.04833984375
162.04833984375
172.119140625
175.78125
173.9501953125
173.03466796875
172.119140625
178.52783203125
178.52783203125
178.52783203125
184.02099609375
185.85205078125
183.10546875
184.02099609375
185.85205078125
181.2744140625
183.10546875
181.2744140625
179.443359375
183.10546875
181.2744140625
175.78125
183.10546875
178.52783203125
172.119140625
174.86572265625
172.119140625
167.54150390625
160.21728515625
154.72412109375
147.39990234375
136.41357421875
124.51171875
116.27197265625
105.28564453125
93.3837890625
81.48193359375
74.15771484375
63.17138671875
57.67822265625
48.52294921875
36.62109375
25.634765625
21.97265625
22.88818359375
21.05712890625
5.4931640625
4.57763671875
-9.1552734375
-10.986328125
-10.07080078125
-13.73291015625
-25.634765625
-21.97265625
-8.23974609375
-14.6484375
-18.310546875
-25.634765625
-31.1279296875
-28.38134765625
-28.38134765625
-24.71923828125
-30.21240234375
-25.634765625
-31.1279296875
-42.1142578125
-32.958984375
-25.634765625
-35.70556640625
-35.70556640625
-32.04345703125
-31.1279296875
-32.958984375
-31.1279296875
-27.4658203125
-33.87451171875
-34.7900390625
-36.62109375
-33.87451171875
-27.4658203125
-23.8037109375
-27.4658203125
-28.38134765625
-30.21240234375
-27.4658203125
-29.296875
-32.958984375
-28.38134765625
-27.4658203125
-28.38134765625
-23.8037109375
-23.8037109375
-27.4658203125
-32.958984375
-26.55029296875
-18.310546875
-18.310546875
-16.4794921875
-24.71923828125
-19.22607421875
-19.22607421875
-20.1416015625
-27.4658203125
-29.296875
-30.21240234375
-28.38134765625
-26.55029296875
-26.55029296875
-21.97265625
-22.88818359375
-22.88818359375
-20.1416015625
-22.88818359375
-22.88818359375
-26.55029296875
-33.87451171875
-32.04345703125
-35.70556640625
-30.21240234375
-32.958984375
-26.55029296875
-29.296875
-27.4658203125
-30.21240234375
-37.53662109375
-36.62109375
-28.38134765625
-26.55029296875
-27.4658203125
-32.958984375
-31.1279296875
-27.4658203125
-27.4658203125
-27.4658203125
-30.21240234375
-36.62109375
-33.87451171875
-39.36767578125
-44.86083984375
-38.4521484375
-38.4521484375
-42.1142578125
-41.19873046875
-37.53662109375
-43.9453125
-48.52294921875
-42.1142578125
-42.1142578125
-37.53662109375
-43.9453125
-41.19873046875
-43.02978515625
-43.9453125
-41.19873046875
-44.86083984375
-47.607421875
-49.4384765625
-58.59375
-54.931640625
-50.35400390625
-47.607421875
-51.26953125
-51.26953125
-50.35400390625
-51.26953125
-48.52294921875
-48.52294921875
-48.52294921875
-50.35400390625
-49.4384765625
-51.26953125
-54.01611328125
-54.01611328125
-46.69189453125
-54.01611328125
-48.52294921875
-52.18505859375
-50.35400390625
-53.1005859375
-53.1005859375
-46.69189453125
-45.7763671875
-53.1005859375
-53.1005859375
-51.26953125
-49.4384765625
-50.35400390625
-53.1005859375
-51.26953125
-55.84716796875
-53.1005859375
-53.1005859375
-51.26953125
-51.26953125
-48.52294921875
-47.607421875
-50.35400390625
-54.931640625
-52.18505859375
-51.26953125
-45.7763671875
-50.35400390625
-54.931640625
-57.67822265625
-63.17138671875
-65.00244140625
-63.17138671875
-58.59375
-51.26953125
-46.69189453125
-54.01611328125
-54.931640625
-54.01611328125
-53.1005859375
-58.59375
-59.50927734375
-58.59375
-61.34033203125
-54.931640625
-54.931640625
-51.26953125
-56.7626953125
-58.59375
-54.01611328125
-54.01611328125
-57.67822265625
-63.17138671875
-69.580078125
-59.50927734375
-52.18505859375
-51.26953125
-53.1005859375
-48.52294921875
-51.26953125
-54.01611328125
-54.01611328125
-53.1005859375
-56.7626953125
-49.4384765625
-54.01611328125
-55.84716796875
-57.67822265625
-54.01611328125
-51.26953125
-57.67822265625
-60.4248046875
-65.91796875
-67.7490234375
-62.255859375
-54.931640625
-49.4384765625
-51.26953125
-43.02978515625
-34.7900390625
-39.36767578125
-37.53662109375
-37.53662109375
-31.1279296875
-16.4794921875
-1.8310546875
1.8310546875
11.90185546875
26.55029296875
38.4521484375
49.4384765625
66.83349609375
78.7353515625
89.7216796875
97.96142578125
88.80615234375
68.66455078125
62.255859375
65.91796875
73.2421875
77.81982421875
75.98876953125
73.2421875
75.0732421875
76.904296875
61.34033203125
51.26953125
39.36767578125
36.62109375
30.21240234375
11.90185546875
1.8310546875
-13.73291015625
-23.8037109375
-34.7900390625
-31.1279296875
-32.958984375
-36.62109375
-38.4521484375
-43.02978515625
-40.283203125
-43.9453125
-42.1142578125
-49.4384765625
-52.18505859375
-54.931640625
-52.18505859375
-48.52294921875
-45.7763671875
-50.35400390625
-54.01611328125
-58.59375
-57.67822265625
-60.4248046875
-57.67822265625
-63.17138671875
-57.67822265625
-68.66455078125
-77.81982421875
-69.580078125
-59.50927734375
-45.7763671875
-9.1552734375
32.958984375
63.17138671875
113.525390625
165.71044921875
250.8544921875
370.78857421875
501.708984375
650.0244140625
845.03173828125
1040.0390625
1203.0029296875
1364.1357421875
1525.2685546875
1633.30078125
1658.02001953125
1648.86474609375
1619.56787109375
1432.80029296875
1171.875
959.47265625
755.31005859375
525.5126953125
262.75634765625
99.79248046875
45.7763671875
29.296875
-1.8310546875
-29.296875
-30.21240234375
-6.40869140625
10.07080078125
37.53662109375
49.4384765625
46.69189453125
38.4521484375
28.38134765625
20.1416015625
19.22607421875
5.4931640625
0.91552734375
-0.91552734375
-10.07080078125
-10.07080078125
-5.4931640625
-8.23974609375
-6.40869140625
-4.57763671875
-10.986328125
-12.8173828125
-18.310546875
-14.6484375
-16.4794921875
-21.05712890625
-15.56396484375
-15.56396484375
-13.73291015625
-13.73291015625
-9.1552734375
-0.91552734375
-2.74658203125
0
-5.4931640625
-0.91552734375
-1.8310546875
3.662109375
3.662109375
8.23974609375
6.40869140625
7.32421875
5.4931640625
6.40869140625
7.32421875
7.32421875
11.90185546875
16.4794921875
15.56396484375
19.22607421875
16.4794921875
19.22607421875
23.8037109375
28.38134765625
32.958984375
36.62109375
37.53662109375
34.7900390625
42.1142578125
54.931640625
46.69189453125
46.69189453125
51.26953125
49.4384765625
54.01611328125
59.50927734375
59.50927734375
61.34033203125
65.91796875
59.50927734375
63.17138671875
68.66455078125
71.4111328125
68.66455078125
78.7353515625
83.31298828125
97.0458984375
89.7216796875
94.29931640625
95.21484375
95.21484375
87.890625
98.876953125
108.0322265625
101.62353515625
103.45458984375
113.525390625
114.44091796875
118.10302734375
118.10302734375
119.93408203125
126.3427734375
127.25830078125
130.0048828125
133.6669921875
134.58251953125
140.9912109375
137.3291015625
144.6533203125
145.56884765625
148.3154296875
149.23095703125
156.55517578125
151.9775390625
150.146484375
152.89306640625
156.55517578125
160.21728515625
159.3017578125
161.1328125
161.1328125
156.55517578125
149.23095703125
152.89306640625
154.72412109375
153.80859375
150.146484375
145.56884765625
147.39990234375
147.39990234375
140.9912109375
135.498046875
124.51171875
112.60986328125
107.11669921875
107.11669921875
91.552734375
86.0595703125
79.65087890625
65.00244140625
60.4248046875
47.607421875
26.55029296875
20.1416015625
21.05712890625
7.32421875
1.8310546875
-3.662109375
-6.40869140625
-20.1416015625
-27.4658203125
-27.4658203125
-32.958984375
-40.283203125
-42.1142578125
-48.52294921875
-50.35400390625
-45.7763671875
-44.86083984375
-49.4384765625
-54.01611328125
-60.4248046875
-58.59375
-61.34033203125
-58.59375
-63.17138671875
-62.255859375
-63.17138671875
-65.00244140625
-64.0869140625
-67.7490234375
-64.0869140625
-65.91796875
-64.0869140625
-65.00244140625
-64.0869140625
-62.255859375
-57.67822265625
-62.255859375
-65.00244140625
-68.66455078125
-62.255859375
-63.17138671875
-71.4111328125
-67.7490234375
-63.17138671875
-62.255859375
-62.255859375
-61.34033203125
-58.59375
-65.00244140625
-63.17138671875
-59.50927734375
-49.4384765625
-51.26953125
-51.26953125
-50.35400390625
-48.52294921875
-51.26953125
-48.52294921875
-55.84716796875
-53.1005859375
-51.26953125
-55.84716796875
-51.26953125
-47.607421875
-47.607421875
-51.26953125
-52.18505859375
-51.26953125
-53.1005859375
-54.931640625
-57.67822265625
-56.7626953125
-54.01611328125
-54.01611328125
-49.4384765625
-54.931640625
-57.67822265625
-53.1005859375
-57.67822265625
-66.83349609375
-65.00244140625
-65.00244140625
-60.4248046875
-62.255859375
-61.34033203125
-62.255859375
-64.0869140625
-65.00244140625
-62.255859375
-57.67822265625
-64.0869140625
-66.83349609375
-58.59375
-63.17138671875
-66.83349609375
-66.83349609375
-70.49560546875
-70.49560546875
-69.580078125
-71.4111328125
-69.580078125
-67.7490234375
-64.0869140625
-66.83349609375
-66.83349609375
-65.00244140625
-67.7490234375
-64.0869140625
-67.7490234375
-77.81982421875
-83.31298828125
-75.0732421875
-72.32666015625
-79.65087890625
-76.904296875
-78.7353515625
-79.65087890625
-75.98876953125
-73.2421875
-75.98876953125
-76.904296875
-75.98876953125
-75.0732421875
-77.81982421875
-80.56640625
-77.81982421875
-78.7353515625
-82.3974609375
-83.31298828125
-82.3974609375
-86.0595703125
-84.228515625
-76.904296875
-76.904296875
