ECG
7.32421875
0
-0.91552734375
-5.4931640625
-8.23974609375
-12.8173828125
-16.4794921875
-21.97265625
-25.634765625
-21.05712890625
-26.55029296875
-29.296875
-25.634765625
-22.88818359375
-22.88818359375
-29.296875
-31.1279296875
-33.87451171875
-31.1279296875
-28.38134765625
-31.1279296875
-35.70556640625
-35.70556640625
-37.53662109375
-37.53662109375
-40.283203125
-43.9453125
-38.4521484375
-38.4521484375
-42.1142578125
-34.7900390625
-36.62109375
-33.87451171875
-35.70556640625
-34.7900390625
-32.958984375
-28.38134765625
-30.21240234375
-32.958984375
-31.1279296875
-32.958984375
-29.296875
-30.21240234375
-31.1279296875
-31.1279296875
-33.87451171875
-30.21240234375
-27.4658203125
-29.296875
-25.634765625
-21.05712890625
-21.97265625
-18.310546875
-19.22607421875
-18.310546875
-21.05712890625
-23.8037109375
-23.8037109375
-23.8037109375
-21.05712890625
-19.22607421875
-17.39501953125
-14.6484375
-15.56396484375
-18.310546875
-19.22607421875
-18.310546875
-21.97265625
-25.634765625
-21.05712890625
-20.1416015625
-14.6484375
-17.39501953125
-19.22607421875
-20.1416015625
-21.97265625
-24.71923828125
-33.87451171875
-32.04345703125
-28.38134765625
-29.296875
-30.21240234375
-28.38134765625
-32.04345703125
-34.7900390625
-38.4521484375
-40.283203125
-37.53662109375
-39.36767578125
-37.53662109375
-39.36767578125
-38.4521484375
-38.4521484375
-41.19873046875
-43.02978515625
-40.283203125
-41.19873046875
-38.4521484375
-45.7763671875
-42.1142578125
-42.1142578125
-41.19873046875
-43.9453125
-42.1142578125
-38.4521484375
-40.283203125
-43.02978515625
-47.607421875
-43.9453125
-45.7763671875
-44.86083984375
-49.4384765625
-48.52294921875
-42.1142578125
-44.86083984375
-50.35400390625
-49.4384765625
-50.35400390625
-51.26953125
-49.4384765625
-49.4384765625
-49.4384765625
-47.607421875
-51.26953125
-51.26953125
-53.1005859375
-54.931640625
-49.4384765625
-46.69189453125
-48.52294921875
-54.01611328125
-53.1005859375
-51.26953125
-54.931640625
-56.7626953125
-50.35400390625
-49.4384765625
-54.01611328125
-54.931640625
-55.84716796875
-55.84716796875
-57.67822265625
-57.67822265625
-56.7626953125
-56.7626953125
-54.931640625
-54.01611328125
-53.1005859375
-53.1005859375
-55.84716796875
-54.931640625
-53.1005859375
-50.35400390625
-52.18505859375
-51.26953125
-51.26953125
-52.18505859375
-56.7626953125
-61.34033203125
-57.67822265625
-61.34033203125
-61.34033203125
-61.34033203125
-65.00244140625
-62.255859375
-58.59375
-61.34033203125
-61.34033203125
-59.50927734375
-58.59375
-57.67822265625
-59.50927734375
-61.34033203125
-60.4248046875
-54.01611328125
-57.67822265625
-58.59375
-56.7626953125
-56.7626953125
-59.50927734375
-59.50927734375
-55.84716796875
-56.7626953125
-59.50927734375
-59.50927734375
-59.50927734375
-63.17138671875
-61.34033203125
-55.84716796875
-57.67822265625
-61.34033203125
-54.931640625
-49.4384765625
-51.26953125
-52.18505859375
-53.1005859375
-53.1005859375
-57.67822265625
-58.59375
-55.84716796875
-53.1005859375
-53.1005859375
-52.18505859375
-52.18505859375
-54.01611328125
-55.84716796875
-58.59375
-60.4248046875
-54.01611328125
-52.18505859375
-51.26953125
-51.26953125
-44.86083984375
-43.9453125
-43.02978515625
-39.36767578125
-37.53662109375
-31.1279296875
-20.1416015625
-4.57763671875
6.40869140625
14.6484375
28.38134765625
40.283203125
49.4384765625
62.255859375
80.56640625
91.552734375
92.46826171875
80.56640625
66.83349609375
58.59375
62.255859375
69.580078125
73.2421875
74.15771484375
66.83349609375
64.0869140625
59.50927734375
56.7626953125
45.7763671875
35.70556640625
27.4658203125
11.90185546875
3.662109375
-10.986328125
-16.4794921875
-26.55029296875
-32.04345703125
-32.958984375
-32.04345703125
-31.1279296875
-33.87451171875
-34.7900390625
-43.9453125
-45.7763671875
-50.35400390625
-45.7763671875
-46.69189453125
-47.607421875
-50.35400390625
-46.69189453125
-45.7763671875
-50.35400390625
-49.4384765625
-54.931640625
-58.59375
-61.34033203125
-59.50927734375
-56.7626953125
-59.50927734375
-61.34033203125
-70.49560546875
-74.15771484375
-64.0869140625
-46.69189453125
-19.22607421875
17.39501953125
54.931640625
89.7216796875
141.90673828125
209.65576171875
323.18115234375
444.03076171875
579.52880859375
755.31005859375
954.89501953125
1131.591796875
1280.82275390625
1446.533203125
1582.03125
1636.04736328125
1635.1318359375
1629.638671875
1524.35302734375
1278.076171875
1056.5185546875
860.595703125
632.62939453125
371.7041015625
143.73779296875
65.00244140625
40.283203125
9.1552734375
-20.1416015625
-32.958984375
-15.56396484375
4.57763671875
30.21240234375
47.607421875
53.1005859375
51.26953125
41.19873046875
32.04345703125
25.634765625
13.73291015625
4.57763671875
3.662109375
3.662109375
-2.74658203125
-10.07080078125
-7.32421875
-7.32421875
-8.23974609375
-12.8173828125
-8.23974609375
-9.1552734375
-15.56396484375
-15.56396484375
-14.6484375
-21.05712890625
-18.310546875
-14.6484375
-13.73291015625
-16.4794921875
-16.4794921875
-15.56396484375
-17.39501953125
-19.22607421875
-15.56396484375
-10.07080078125
-8.23974609375
-1.8310546875
0
-2.74658203125
8.23974609375
6.40869140625
6.40869140625
7.32421875
12.8173828125
11.90185546875
15.56396484375
19.22607421875
19.22607421875
20.1416015625
25.634765625
27.4658203125
23.8037109375
26.55029296875
33.87451171875
37.53662109375
39.36767578125
43.02978515625
42.1142578125
43.02978515625
48.52294921875
43.9453125
45.7763671875
46.69189453125
51.26953125
56.7626953125
59.50927734375
66.83349609375
63.17138671875
67.7490234375
66.83349609375
67.7490234375
65.91796875
72.32666015625
80.56640625
85.14404296875
84.228515625
87.890625
87.890625
93.3837890625
94.29931640625
95.21484375
92.46826171875
92.46826171875
100.7080078125
101.62353515625
100.7080078125
102.5390625
108.94775390625
113.525390625
113.525390625
116.27197265625
120.849609375
126.3427734375
123.59619140625
120.849609375
128.173828125
133.6669921875
140.9912109375
135.498046875
135.498046875
137.3291015625
134.58251953125
132.75146484375
138.24462890625
140.07568359375
143.73779296875
144.6533203125
140.9912109375
140.07568359375
137.3291015625
140.07568359375
135.498046875
133.6669921875
133.6669921875
130.92041015625
131.8359375
131.8359375
127.25830078125
125.42724609375
119.0185546875
116.27197265625
107.11669921875
97.0458984375
93.3837890625
92.46826171875
82.3974609375
71.4111328125
67.7490234375
63.17138671875
53.1005859375
46.69189453125
35.70556640625
30.21240234375
24.71923828125
14.6484375
12.8173828125
5.4931640625
-4.57763671875
-10.986328125
-13.73291015625
-14.6484375
-13.73291015625
-21.97265625
-24.71923828125
-20.1416015625
-28.38134765625
-24.71923828125
-32.04345703125
-37.53662109375
-41.19873046875
-45.7763671875
-37.53662109375
-38.4521484375
-39.36767578125
-43.9453125
-42.1142578125
-38.4521484375
-37.53662109375
-38.4521484375
-37.53662109375
-42.1142578125
-48.52294921875
-44.86083984375
-39.36767578125
-37.53662109375
-34.7900390625
-38.4521484375
-37.53662109375
-37.53662109375
-37.53662109375
-42.1142578125
-40.283203125
-41.19873046875
-35.70556640625
-31.1279296875
-32.958984375
-36.62109375
-38.4521484375
-34.7900390625
-37.53662109375
-35.70556640625
-32.958984375
-33.87451171875
-32.04345703125
-31.1279296875
-32.958984375
-32.04345703125
-32.04345703125
-28.38134765625
-32.04345703125
-34.7900390625
-36.62109375
-32.04345703125
-32.04345703125
-27.4658203125
-23.8037109375
-31.1279296875
-26.55029296875
-23.8037109375
-27.4658203125
-31.1279296875
-30.21240234375
-33.87451171875
-28.38134765625
-29.296875
-28.38134765625
-30.21240234375
-31.1279296875
-31.1279296875
-35.70556640625
-31.1279296875
-31.1279296875
-34.7900390625
-34.7900390625
-38.4521484375
-35.70556640625
-34.7900390625
-37.53662109375
-37.53662109375
-36.62109375
-41.19873046875
-41.19873046875
-41.19873046875
-43.02978515625
-41.19873046875
-40.283203125
-39.36767578125
-42.1142578125
-43.9453125
-40.283203125
-48.52294921875
-52.18505859375
-52.18505859375
-50.35400390625
-45.7763671875
-43.02978515625
-44.86083984375
-47.607421875
-55.84716796875
-56.7626953125
-51.26953125
-46.69189453125
-46.69189453125
-54.931640625
-55.84716796875
-55.84716796875
-55.84716796875
-56.7626953125
-51.26953125
-50.35400390625
-53.1005859375
-55.84716796875
-54.931640625
-58.59375
-59.50927734375
-58.59375
-56.7626953125
-54.931640625
-60.4248046875
-59.50927734375
-62.255859375
-62.255859375
-65.00244140625
-65.91796875
-65.00244140625
-64.0869140625
-61.34033203125
-62.255859375
-60.4248046875
-62.255859375
-64.0869140625
-67.7490234375
-76.904296875
-71.4111328125
-65.91796875
-65.91796875
-66.83349609375
-64.0869140625
-71.4111328125
-69.580078125
-72.32666015625
-77.81982421875
-77.81982421875
-71.4111328125
-66.83349609375
-72.32666015625
-72.32666015625
-69.580078125
-69.580078125
-71.4111328125
-74.15771484375
-71.4111328125
-72.32666015625
-73.2421875
-70.49560546875
-71.4111328125
-66.83349609375
-65.91796875
-69.580078125
-72.32666015625
-71.4111328125
-73.2421875
-75.0732421875
-74.15771484375
-70.49560546875
-67.7490234375
-65.00244140625
-67.7490234375
-70.49560546875
-74.15771484375
-72.32666015625
-74.15771484375
-75.0732421875
-78.7353515625
-77.81982421875
-76.904296875
-75.0732421875
-75.0732421875
-75.0732421875
-81.48193359375
-80.56640625
-83.31298828125
-82.3974609375
-78.7353515625
-75.0732421875
-77.81982421875
-80.56640625
-76.904296875
-74.15771484375
-79.65087890625
-86.97509765625
-81.48193359375
-79.65087890625
-84.228515625
-86.97509765625
-82.3974609375
-77.81982421875
-74.15771484375
-78.7353515625
-75.0732421875
-77.81982421875
-81.48193359375
-84.228515625
-86.0595703125
-84.228515625
-83.31298828125
-81.48193359375
-79.65087890625
-74.15771484375
-75.98876953125
-67.7490234375
-63.17138671875
-65.00244140625
-57.67822265625
-54.01611328125
-48.52294921875
-43.02978515625
-32.04345703125
-20.1416015625
-8.23974609375
3.662109375
16.4794921875
27.4658203125
44.86083984375
61.34033203125
73.2421875
76.904296875
61.34033203125
48.52294921875
38.4521484375
38.4521484375
43.02978515625
52.18505859375
52.18505859375
52.18505859375
49.4384765625
37.53662109375
31.1279296875
22.88818359375
11.90185546875
7.32421875
-5.4931640625
-22.88818359375
-36.62109375
-46.69189453125
-46.69189453125
-51.26953125
-54.01611328125
-60.4248046875
-64.0869140625
-63.17138671875
-66.83349609375
-74.15771484375
-75.98876953125
-70.49560546875
-74.15771484375
-77.81982421875
-75.98876953125
-76.904296875
-78.7353515625
-80.56640625
-84.228515625
-83.31298828125
-82.3974609375
-77.81982421875
-79.65087890625
-80.56640625
-82.3974609375
-82.3974609375
-88.80615234375
-98.876953125
-103.45458984375
-95.21484375
-80.56640625
-59.50927734375
-21.05712890625
18.310546875
52.18505859375
97.0458984375
149.23095703125
247.1923828125
368.0419921875
488.8916015625
649.10888671875
841.36962890625
1029.052734375
1183.77685546875
1336.669921875
1497.802734375
1582.94677734375
1592.10205078125
1586.60888671875
1551.81884765625
1354.06494140625
1111.4501953125
912.78076171875
700.37841796875
454.1015625
189.51416015625
53.1005859375
16.4794921875
-13.73291015625
-50.35400390625
-69.580078125
-63.17138671875
-43.02978515625
-19.22607421875
8.23974609375
18.310546875
13.73291015625
5.4931640625
-6.40869140625
-12.8173828125
-23.8037109375
-26.55029296875
-27.4658203125
-34.7900390625
-41.19873046875
-40.283203125
-40.283203125
-41.19873046875
-43.9453125
-47.607421875
-48.52294921875
-47.607421875
-52.18505859375
-50.35400390625
-49.4384765625
-51.26953125
-50.35400390625
-50.35400390625
-48.52294921875
-49.4384765625
-45.7763671875
-42.1142578125
-45.7763671875
-40.283203125
-38.4521484375
-43.02978515625
-41.19873046875
-42.1142578125
-41.19873046875
-38.4521484375
-29.296875
-32.958984375
-27.4658203125
-25.634765625
-30.21240234375
-23.8037109375
-23.8037109375
-23.8037109375
-26.55029296875
-23.8037109375
-22.88818359375
-14.6484375
-14.6484375
-12.8173828125
-10.07080078125
-5.4931640625
-2.74658203125
-2.74658203125
0
1.8310546875
-1.8310546875
6.40869140625
7.32421875
10.986328125
11.90185546875
16.4794921875
21.05712890625
21.05712890625
26.55029296875
28.38134765625
25.634765625
26.55029296875
33.87451171875
39.36767578125
41.19873046875
40.283203125
40.283203125
41.19873046875
49.4384765625
50.35400390625
51.26953125
53.1005859375
53.1005859375
61.34033203125
65.00244140625
69.580078125
69.580078125
70.49560546875
67.7490234375
64.0869140625
70.49560546875
75.98876953125
80.56640625
76.904296875
79.65087890625
87.890625
86.0595703125
87.890625
88.80615234375
87.890625
89.7216796875
93.3837890625
89.7216796875
90.63720703125
90.63720703125
91.552734375
91.552734375
86.97509765625
88.80615234375
86.0595703125
92.46826171875
91.552734375
90.63720703125
86.97509765625
85.14404296875
85.14404296875
78.7353515625
78.7353515625
82.3974609375
78.7353515625
67.7490234375
67.7490234375
70.49560546875
62.255859375
58.59375
50.35400390625
42.1142578125
35.70556640625
23.8037109375
11.90185546875
13.73291015625
-0.91552734375
-8.23974609375
-12.8173828125
-22.88818359375
-31.1279296875
-31.1279296875
-43.02978515625
-48.52294921875
-53.1005859375
-54.01611328125
-54.01611328125
-56.7626953125
-58.59375
-66.83349609375
-65.91796875
-69.580078125
-72.32666015625
-75.0732421875
-82.3974609375
-84.228515625
-80.56640625
-86.97509765625
-86.97509765625
-86.97509765625
-87.890625
-86.97509765625
-83.31298828125
-92.46826171875
-91.552734375
-91.552734375
-84.228515625
-76.904296875
-88.80615234375
-90.63720703125
-86.97509765625
-86.0595703125
-89.7216796875
-95.21484375
-97.96142578125
-86.0595703125
-86.0595703125
-93.3837890625
-91.552734375
-84.228515625
-79.65087890625
-82.3974609375
-86.97509765625
-88.80615234375
-83.31298828125
-82.3974609375
-84.228515625
-81.48193359375
-77.81982421875
-77.81982421875
-75.98876953125
-80.56640625
-85.14404296875
-82.3974609375
-83.31298828125
-79.65087890625
-76.904296875
-77.81982421875
-79.65087890625
-77.81982421875
-75.0732421875
-75.98876953125
-84.228515625
-81.48193359375
-79.65087890625
-77.81982421875
-78.7353515625
-75.0732421875
-73.2421875
-74.15771484375
-75.0732421875
-78.7353515625
-80.56640625
-82.3974609375
-81.48193359375
-78.7353515625
-81.48193359375
-77.81982421875
-81.48193359375
-80.56640625
-80.56640625
-86.0595703125
-82.3974609375
-86.97509765625
-92.46826171875
-86.97509765625
-86.97509765625
-90.63720703125
-84.228515625
-91.552734375
-95.21484375
-97.96142578125
-97.96142578125
-98.876953125
-97.0458984375
-99.79248046875
-105.28564453125
-98.876953125
-97.0458984375
-102.5390625
-103.45458984375
-105.28564453125
-103.45458984375
-103.45458984375
-104.3701171875
-107.11669921875
-106.201171875
-106.201171875
-109.86328125
-104.3701171875
-102.5390625
-107.11669921875
-107.11669921875
-110.77880859375
-108.94775390625
-104.3701171875
-108.94775390625
-109.86328125
-108.0322265625
-106.201171875
-109.86328125
-113.525390625
-112.60986328125
-110.77880859375
-109.86328125
-110.77880859375
-108.0322265625
-107.11669921875
-108.94775390625
-110.77880859375
-109.86328125
-108.0322265625
-118.10302734375
-107.11669921875
-108.94775390625
-114.44091796875
-113.525390625
-109.86328125
-105.28564453125
-105.28564453125
-109.86328125
-108.94775390625
-110.77880859375
-117.1875
-119.93408203125
-121.76513671875
-114.44091796875
-113.525390625
-122.6806640625
-119.0185546875
-118.10302734375
-119.0185546875
-117.1875
-119.93408203125
-119.0185546875
-116.27197265625
-115.3564453125
-112.60986328125
-111.6943359375
-116.27197265625
-125.42724609375
-126.3427734375
-127.25830078125
-127.25830078125
-118.10302734375
-119.0185546875
-120.849609375
-117.1875
-119.0185546875
-123.59619140625
-126.3427734375
-117.1875
-122.6806640625
-125.42724609375
-117.1875
-111.6943359375
-117.1875
-117.1875
-117.1875
-118.10302734375
-120.849609375
-121.76513671875
-125.42724609375
-124.51171875
-119.0185546875
-121.76513671875
-120.849609375
-121.76513671875
-120.849609375
-119.93408203125
-121.76513671875
-124.51171875
-125.42724609375
-121.76513671875
-122.6806640625
-127.25830078125
-130.0048828125
-119.93408203125
-117.1875
-125.42724609375
-126.3427734375
-126.3427734375
-130.92041015625
-131.8359375
-130.0048828125
-126.3427734375
-125.42724609375
-124.51171875
-119.93408203125
-125.42724609375
-130.0048828125
-128.173828125
-128.173828125
-121.76513671875
-119.93408203125
-108.94775390625
-101.62353515625
-104.3701171875
-95.21484375
-89.7216796875
-86.0595703125
-76.904296875
-67.7490234375
-64.0869140625
-42.1142578125
-20.1416015625
-9.1552734375
0
14.6484375
30.21240234375
27.4658203125
10.986328125
-6.40869140625
-6.40869140625
0
0.91552734375
4.57763671875
12.8173828125
8.23974609375
7.32421875
-7.32421875
-11.90185546875
-16.4794921875
-32.958984375
-34.7900390625
-47.607421875
-59.50927734375
-69.580078125
-87.890625
-98.876953125
-99.79248046875
-101.62353515625
-104.3701171875
-106.201171875
-106.201171875
-108.94775390625
-111.6943359375
-113.525390625
-117.1875
-119.0185546875
-123.59619140625
-122.6806640625
-120.849609375
-121.76513671875
-121.76513671875
-125.42724609375
-120.849609375
-120.849609375
-122.6806640625
-119.0185546875
-120.849609375
-125.42724609375
-122.6806640625
-129.08935546875
-140.07568359375
-136.41357421875
-112.60986328125
-97.0458984375
-67.7490234375
-23.8037109375
10.07080078125
39.36767578125
86.97509765625
163.87939453125
271.91162109375
388.18359375
508.11767578125
679.3212890625
867.919921875
1047.36328125
1177.3681640625
1350.40283203125
1468.505859375
1517.02880859375
1533.50830078125
1548.15673828125
1456.60400390625
1225.89111328125
1001.5869140625
804.74853515625
600.5859375
357.0556640625
156.55517578125
70.49560546875
23.8037109375
-27.4658203125
-77.81982421875
-111.6943359375
-130.92041015625
-114.44091796875
-80.56640625
-59.50927734375
-42.1142578125
-33.87451171875
-33.87451171875
-39.36767578125
-49.4384765625
-61.34033203125
-72.32666015625
-71.4111328125
-71.4111328125
-75.98876953125
-81.48193359375
-81.48193359375
-85.14404296875
-83.31298828125
-81.48193359375
-86.97509765625
-89.7216796875
-89.7216796875
-87.890625
-84.228515625
-83.31298828125
-81.48193359375
-86.97509765625
-90.63720703125
-86.0595703125
-81.48193359375
-86.0595703125
-84.228515625
-81.48193359375
-76.904296875
-81.48193359375
-78.7353515625
-74.15771484375
-73.2421875
-69.580078125
-65.00244140625
-67.7490234375
-66.83349609375
-70.49560546875
-66.83349609375
-66.83349609375
-64.0869140625
-55.84716796875
-56.7626953125
-54.931640625
-54.01611328125
-53.1005859375
-54.01611328125
-48.52294921875
-46.69189453125
-43.02978515625
-52.18505859375
-45.7763671875
-35.70556640625
-31.1279296875
-34.7900390625
-33.87451171875
-29.296875
-27.4658203125
-26.55029296875
-27.4658203125
-26.55029296875
-20.1416015625
-17.39501953125
-15.56396484375
-10.07080078125
-10.986328125
-10.07080078125
-10.07080078125
-5.4931640625
0
-0.91552734375
2.74658203125
4.57763671875
11.90185546875
14.6484375
12.8173828125
14.6484375
14.6484375
21.05712890625
21.97265625
24.71923828125
29.296875
26.55029296875
32.958984375
33.87451171875
37.53662109375
38.4521484375
39.36767578125
39.36767578125
46.69189453125
42.1142578125
49.4384765625
50.35400390625
48.52294921875
53.1005859375
54.01611328125
53.1005859375
48.52294921875
45.7763671875
43.9453125
44.86083984375
47.607421875
46.69189453125
43.9453125
44.86083984375
36.62109375
34.7900390625
34.7900390625
31.1279296875
29.296875
24.71923828125
21.05712890625
23.8037109375
16.4794921875
15.56396484375
18.310546875
7.32421875
4.57763671875
5.4931640625
-5.4931640625
-13.73291015625
-15.56396484375
-22.88818359375
-27.4658203125
-35.70556640625
-42.1142578125
-45.7763671875
-54.931640625
-60.4248046875
-64.0869140625
-73.2421875
-77.81982421875
-79.65087890625
-76.904296875
-82.3974609375
-91.552734375
-93.3837890625
-97.0458984375
-101.62353515625
-101.62353515625
-109.86328125
-112.60986328125
-105.28564453125
-106.201171875
-111.6943359375
-116.27197265625
-111.6943359375
-113.525390625
-119.93408203125
-122.6806640625
-122.6806640625
-119.93408203125
-122.6806640625
-120.849609375
-119.0185546875
-124.51171875
-120.849609375
-120.849609375
-123.59619140625
-124.51171875
-120.849609375
-117.1875
-117.1875
-116.27197265625
-118.10302734375
-114.44091796875
-117.1875
-117.1875
-119.0185546875
-118.10302734375
-117.1875
-116.27197265625
-114.44091796875
-119.93408203125
-114.44091796875
-113.525390625
-113.525390625
-111.6943359375
-110.77880859375
-109.86328125
-110.77880859375
-110.77880859375
-114.44091796875
-114.44091796875
-114.44091796875
-108.94775390625
-108.0322265625
-107.11669921875
-108.94775390625
-102.5390625
-102.5390625
-103.45458984375
-111.6943359375
-108.0322265625
-102.5390625
-100.7080078125
-106.201171875
-109.86328125
-109.86328125
-112.60986328125
-109.86328125
-115.3564453125
-115.3564453125
-108.94775390625
-107.11669921875
-108.0322265625
-108.94775390625
-111.6943359375
-108.0322265625
-109.86328125
-117.1875
-113.525390625
-109.86328125
-111.6943359375
-112.60986328125
-113.525390625
-112.60986328125
-120.849609375
-123.59619140625
-120.849609375
-120.849609375
-120.849609375
-124.51171875
-124.51171875
-122.6806640625
-125.42724609375
-125.42724609375
-125.42724609375
-126.3427734375
-128.173828125
-129.08935546875
-131.8359375
-135.498046875
-134.58251953125
-129.08935546875
-127.25830078125
-132.75146484375
-133.6669921875
-137.3291015625
-140.07568359375
-133.6669921875
-136.41357421875
-134.58251953125
-139.16015625
-136.41357421875
-132.75146484375
-136.41357421875
-138.24462890625
-136.41357421875
-132.75146484375
-130.0048828125
-135.498046875
-140.9912109375
-136.41357421875
-132.75146484375
-131.8359375
-139.16015625
-143.73779296875
-139.16015625
-141.90673828125
-141.90673828125
-130.92041015625
-135.498046875
-136.41357421875
-133.6669921875
-138.24462890625
-130.0048828125
-134.58251953125
-135.498046875
-140.07568359375
-140.9912109375
-140.9912109375
-142.822265625
-143.73779296875
-141.90673828125
-139.16015625
-139.16015625
-142.822265625
-140.9912109375
-140.07568359375
-146.484375
-147.39990234375
-141.90673828125
-140.9912109375
-141.90673828125
-136.41357421875
-140.07568359375
-146.484375
-148.3154296875
-145.56884765625
-146.484375
-149.23095703125
-146.484375
-142.822265625
-143.73779296875
-140.9912109375
-139.16015625
-140.9912109375
-140.9912109375
-146.484375
-145.56884765625
-140.9912109375
-138.24462890625
-144.6533203125
-140.9912109375
-140.07568359375
-140.9912109375
-144.6533203125
-145.56884765625
-140.07568359375
-147.39990234375
-140.9912109375
-141.90673828125
-144.6533203125
-141.90673828125
-138.24462890625
-139.16015625
-145.56884765625
-137.3291015625
-138.24462890625
-140.9912109375
-140.9912109375
-142.822265625
-140.07568359375
-140.9912109375
-143.73779296875
-143.73779296875
-147.39990234375
-149.23095703125
-148.3154296875
-148.3154296875
-144.6533203125
-145.56884765625
-142.822265625
-140.9912109375
-140.9912109375
-140.9912109375
-144.6533203125
-147.39990234375
-150.146484375
-146.484375
-147.39990234375
-147.39990234375
-142.822265625
-147.39990234375
-144.6533203125
-141.90673828125
-147.39990234375
-145.56884765625
-151.06201171875
-140.9912109375
-129.08935546875
-128.173828125
-123.59619140625
-119.93408203125
-118.10302734375
-119.93408203125
-115.3564453125
-108.0322265625
-96.13037109375
-79.65087890625
-71.4111328125
-59.50927734375
-46.69189453125
-37.53662109375
-22.88818359375
-4.57763671875
9.1552734375
16.4794921875
2.74658203125
-10.986328125
-21.05712890625
-24.71923828125
-15.56396484375
-4.57763671875
-2.74658203125
-7.32421875
-9.1552734375
-11.90185546875
-25.634765625
-32.958984375
-40.283203125
-53.1005859375
-59.50927734375
-75.0732421875
-84.228515625
-98.876953125
-105.28564453125
-108.0322265625
-110.77880859375
-118.10302734375
-125.42724609375
-122.6806640625
-118.10302734375
-121.76513671875
-125.42724609375
-130.0048828125
-131.8359375
-134.58251953125
-133.6669921875
-137.3291015625
-137.3291015625
-134.58251953125
-135.498046875
-138.24462890625
-136.41357421875
-134.58251953125
-132.75146484375
-137.3291015625
-139.16015625
-139.16015625
-144.6533203125
-157.470703125
-150.146484375
-138.24462890625
-117.1875
-86.97509765625
-42.1142578125
-9.1552734375
18.310546875
74.15771484375
148.3154296875
258.1787109375
379.0283203125
519.10400390625
701.2939453125
892.63916015625
1059.26513671875
1203.91845703125
1375.1220703125
1504.21142578125
1547.2412109375
1556.396484375
1559.14306640625
1464.84375
1215.8203125
986.02294921875
775.45166015625
549.31640625
291.1376953125
68.66455078125
-9.1552734375
-38.4521484375
-70.49560546875
-107.11669921875
-123.59619140625
-105.28564453125
-82.3974609375
-61.34033203125
-43.02978515625
-32.958984375
-34.7900390625
-45.7763671875
-52.18505859375
-58.59375
-65.91796875
-74.15771484375
-78.7353515625
-82.3974609375
-80.56640625
-85.14404296875
-89.7216796875
-85.14404296875
-84.228515625
-83.31298828125
-86.97509765625
-84.228515625
-86.0595703125
-90.63720703125
-90.63720703125
-89.7216796875
-86.97509765625
-84.228515625
-84.228515625
-87.890625
-89.7216796875
-86.0595703125
-85.14404296875
-83.31298828125
-81.48193359375
-80.56640625
-75.98876953125
-79.65087890625
-76.904296875
-68.66455078125
-66.83349609375
-68.66455078125
-67.7490234375
-70.49560546875
-64.0869140625
-64.0869140625
-57.67822265625
-54.01611328125
-51.26953125
-53.1005859375
-53.1005859375
-49.4384765625
-54.01611328125
-52.18505859375
-42.1142578125
-39.36767578125
-39.36767578125
-36.62109375
-32.958984375
-29.296875
-30.21240234375
-26.55029296875
-24.71923828125
-25.634765625
-27.4658203125
-19.22607421875
-12.8173828125
-10.07080078125
-6.40869140625
1.8310546875
1.8310546875
2.74658203125
5.4931640625
4.57763671875
8.23974609375
11.90185546875
23.8037109375
21.05712890625
16.4794921875
21.97265625
26.55029296875
30.21240234375
32.04345703125
22.88818359375
27.4658203125
32.04345703125
38.4521484375
41.19873046875
43.9453125
46.69189453125
51.26953125
55.84716796875
58.59375
54.01611328125
61.34033203125
66.83349609375
65.00244140625
68.66455078125
71.4111328125
74.15771484375
74.15771484375
74.15771484375
75.0732421875
72.32666015625
69.580078125
70.49560546875
73.2421875
72.32666015625
69.580078125
65.91796875
69.580078125
67.7490234375
66.83349609375
64.0869140625
68.66455078125
74.15771484375
69.580078125
62.255859375
56.7626953125
58.59375
55.84716796875
53.1005859375
47.607421875
38.4521484375
26.55029296875
21.97265625
26.55029296875
15.56396484375
7.32421875
-0.91552734375
-9.1552734375
-14.6484375
-25.634765625
-33.87451171875
-38.4521484375
-44.86083984375
-51.26953125
-55.84716796875
-57.67822265625
-60.4248046875
-58.59375
-63.17138671875
-73.2421875
-74.15771484375
-81.48193359375
-86.97509765625
-94.29931640625
-92.46826171875
-94.29931640625
-109.86328125
-113.525390625
-113.525390625
-114.44091796875
-113.525390625
-112.60986328125
-115.3564453125
-113.525390625
-110.77880859375
-113.525390625
-109.86328125
-111.6943359375
-113.525390625
-112.60986328125
-107.11669921875
-108.0322265625
-107.11669921875
-109.86328125
-108.0322265625
-99.79248046875
-107.11669921875
-105.28564453125
-105.28564453125
-105.28564453125
-98.876953125
-100.7080078125
-102.5390625
-96.13037109375
-95.21484375
-91.552734375
-97.96142578125
-93.3837890625
-94.29931640625
-93.3837890625
-94.29931640625
-101.62353515625
-96.13037109375
-92.46826171875
-95.21484375
-93.3837890625
-86.97509765625
-88.80615234375
-89.7216796875
-90.63720703125
-92.46826171875
-94.29931640625
-99.79248046875
-98.876953125
-92.46826171875
-92.46826171875
-94.29931640625
-93.3837890625
-93.3837890625
-92.46826171875
-96.13037109375
-95.21484375
-96.13037109375
-97.0458984375
-96.13037109375
-94.29931640625
-91.552734375
-89.7216796875
-95.21484375
-100.7080078125
-101.62353515625
-101.62353515625
-98.876953125
-99.79248046875
-102.5390625
-102.5390625
-108.0322265625
-105.28564453125
-100.7080078125
-97.0458984375
-101.62353515625
-104.3701171875
-106.201171875
-108.0322265625
-103.45458984375
-103.45458984375
-104.3701171875
-108.94775390625
-106.201171875
-108.94775390625
-111.6943359375
-113.525390625
-119.93408203125
-119.0185546875
-114.44091796875
-112.60986328125
-113.525390625
-119.0185546875
-118.10302734375
-119.0185546875
-118.10302734375
-124.51171875
-128.173828125
-126.3427734375
-125.42724609375
-131.8359375
-132.75146484375
-123.59619140625
-129.08935546875
-133.6669921875
-129.08935546875
-135.498046875
-131.8359375
-130.92041015625
-123.59619140625
-123.59619140625
-127.25830078125
-130.0048828125
-127.25830078125
-126.3427734375
-128.173828125
-128.173828125
-125.42724609375
-127.25830078125
-129.08935546875
-127.25830078125
-130.0048828125
-127.25830078125
-126.3427734375
-126.3427734375
-127.25830078125
-127.25830078125
-126.3427734375
-125.42724609375
-129.08935546875
-123.59619140625
-123.59619140625
-119.93408203125
-118.10302734375
-120.849609375
-127.25830078125
-129.08935546875
-123.59619140625
-117.1875
-123.59619140625
-118.10302734375
-119.0185546875
-125.42724609375
-123.59619140625
-119.93408203125
-130.0048828125
-129.08935546875
-126.3427734375
-124.51171875
-128.173828125
-127.25830078125
-128.173828125
-125.42724609375
-124.51171875
-125.42724609375
-127.25830078125
-130.0048828125
-129.08935546875
-131.8359375
-126.3427734375
-124.51171875
-125.42724609375
-125.42724609375
-127.25830078125
-126.3427734375
-127.25830078125
-128.173828125
-128.173828125
-122.6806640625
-122.6806640625
-120.849609375
-121.76513671875
-121.76513671875
-118.10302734375
-118.10302734375
-120.849609375
-120.849609375
-116.27197265625
-116.27197265625
-115.3564453125
-118.10302734375
-113.525390625
-114.44091796875
-118.10302734375
-121.76513671875
-121.76513671875
-121.76513671875
-118.10302734375
-115.3564453125
-120.849609375
-121.76513671875
-121.76513671875
-117.1875
-115.3564453125
-118.10302734375
-118.10302734375
-121.76513671875
-120.849609375
-119.0185546875
-119.0185546875
-115.3564453125
-118.10302734375
-123.59619140625
-124.51171875
-123.59619140625
-115.3564453125
-114.44091796875
-108.0322265625
-108.94775390625
-103.45458984375
-97.96142578125
-94.29931640625
-89.7216796875
-78.7353515625
-68.66455078125
-56.7626953125
-43.9453125
-27.4658203125
-17.39501953125
-7.32421875
11.90185546875
28.38134765625
34.7900390625
29.296875
10.986328125
1.8310546875
-1.8310546875
3.662109375
10.07080078125
18.310546875
15.56396484375
11.90185546875
7.32421875
-9.1552734375
-14.6484375
-21.97265625
-31.1279296875
-30.21240234375
-43.9453125
-54.01611328125
-63.17138671875
-75.0732421875
-84.228515625
-93.3837890625
-92.46826171875
-93.3837890625
-93.3837890625
-96.13037109375
-97.0458984375
-98.876953125
-104.3701171875
-105.28564453125
-101.62353515625
-107.11669921875
-108.94775390625
-112.60986328125
-116.27197265625
-117.1875
-124.51171875
-124.51171875
-119.0185546875
-113.525390625
-114.44091796875
-115.3564453125
-124.51171875
-125.42724609375
-132.75146484375
-132.75146484375
-120.849609375
-106.201171875
-75.98876953125
-28.38134765625
6.40869140625
45.7763671875
90.63720703125
154.72412109375
260.92529296875
384.521484375
513.61083984375
687.56103515625
886.23046875
1061.09619140625
1208.49609375
1375.1220703125
1516.11328125
1576.5380859375
1584.77783203125
1572.8759765625
1475.830078125
1233.21533203125
1008.9111328125
807.4951171875
585.02197265625
327.7587890625
100.7080078125
21.05712890625
-7.32421875
-38.4521484375
-77.81982421875
-92.46826171875
-76.904296875
-51.26953125
-33.87451171875
-18.310546875
-11.90185546875
-20.1416015625
-26.55029296875
-37.53662109375
-43.02978515625
-46.69189453125
-56.7626953125
-55.84716796875
-56.7626953125
-60.4248046875
-65.91796875
-69.580078125
-73.2421875
-73.2421875
-75.0732421875
-71.4111328125
-73.2421875
-76.904296875
-79.65087890625
-73.2421875
-72.32666015625
-72.32666015625
-70.49560546875
-75.0732421875
-73.2421875
-73.2421875
-69.580078125
-65.91796875
-68.66455078125
-61.34033203125
-69.580078125
-67.7490234375
-65.00244140625
-59.50927734375
-57.67822265625
-50.35400390625
-55.84716796875
-54.931640625
-47.607421875
-43.02978515625
-45.7763671875
-46.69189453125
-48.52294921875
-41.19873046875
-40.283203125
-42.1142578125
-37.53662109375
-39.36767578125
-33.87451171875
-32.04345703125
-30.21240234375
-28.38134765625
-23.8037109375
-22.88818359375
-21.97265625
-16.4794921875
-15.56396484375
-10.986328125
-2.74658203125
-9.1552734375
-9.1552734375
-3.662109375
0.91552734375
0
8.23974609375
11.90185546875
12.8173828125
15.56396484375
16.4794921875
17.39501953125
25.634765625
25.634765625
24.71923828125
26.55029296875
27.4658203125
32.04345703125
39.36767578125
46.69189453125
44.86083984375
43.02978515625
50.35400390625
51.26953125
52.18505859375
54.01611328125
55.84716796875
58.59375
61.34033203125
65.00244140625
71.4111328125
71.4111328125
71.4111328125
70.49560546875
79.65087890625
77.81982421875
79.65087890625
84.228515625
81.48193359375
79.65087890625
81.48193359375
81.48193359375
77.81982421875
74.15771484375
70.49560546875
73.2421875
79.65087890625
75.98876953125
75.0732421875
79.65087890625
75.0732421875
65.00244140625
66.83349609375
65.91796875
63.17138671875
65.91796875
62.255859375
65.00244140625
64.0869140625
57.67822265625
47.607421875
38.4521484375
30.21240234375
27.4658203125
19.22607421875
1.8310546875
0.91552734375
4.57763671875
2.74658203125
-13.73291015625
-23.8037109375
-32.958984375
-41.19873046875
-43.9453125
-46.69189453125
-51.26953125
-56.7626953125
-58.59375
-64.0869140625
-70.49560546875
-76.904296875
-79.65087890625
-79.65087890625
-89.7216796875
-95.21484375
-93.3837890625
-93.3837890625
-91.552734375
-94.29931640625
-97.0458984375
-97.0458984375
-100.7080078125
-101.62353515625
-100.7080078125
-97.0458984375
-100.7080078125
-100.7080078125
-102.5390625
-104.3701171875
-106.201171875
-103.45458984375
-104.3701171875
-106.201171875
-102.5390625
-103.45458984375
-105.28564453125
-105.28564453125
-108.0322265625
-107.11669921875
-104.3701171875
-102.5390625
-105.28564453125
-98.876953125
-97.0458984375
-100.7080078125
-100.7080078125
-99.79248046875
-98.876953125
-93.3837890625
-87.890625
-86.0595703125
-86.97509765625
-93.3837890625
-92.46826171875
-90.63720703125
-90.63720703125
-88.80615234375
-87.890625
-93.3837890625
-97.0458984375
-90.63720703125
-88.80615234375
-93.3837890625
-94.29931640625
-90.63720703125
-87.890625
-92.46826171875
-90.63720703125
-91.552734375
-89.7216796875
-87.890625
-88.80615234375
-97.0458984375
-93.3837890625
-92.46826171875
-89.7216796875
-90.63720703125
-93.3837890625
-94.29931640625
-93.3837890625
-97.0458984375
-95.21484375
-91.552734375
-90.63720703125
-95.21484375
-94.29931640625
-92.46826171875
-90.63720703125
-89.7216796875
-92.46826171875
-101.62353515625
-99.79248046875
-101.62353515625
-99.79248046875
-99.79248046875
-104.3701171875
-102.5390625
-104.3701171875
-106.201171875
-106.201171875
-106.201171875
-101.62353515625
-103.45458984375
-110.77880859375
-109.86328125
-112.60986328125
-112.60986328125
-110.77880859375
-113.525390625
-107.11669921875
-109.86328125
-114.44091796875
-114.44091796875
-110.77880859375
-109.86328125
-115.3564453125
-108.0322265625
-112.60986328125
-115.3564453125
-118.10302734375
-110.77880859375
-112.60986328125
-118.10302734375
-116.27197265625
-118.10302734375
-120.849609375
-118.10302734375
-120.849609375
-119.93408203125
-120.849609375
-122.6806640625
-128.173828125
-128.173828125
-121.76513671875
-127.25830078125
-121.76513671875
-121.76513671875
-122.6806640625
-124.51171875
-119.93408203125
-120.849609375
-124.51171875
-122.6806640625
-125.42724609375
-119.93408203125
-120.849609375
-121.76513671875
-121.76513671875
-123.59619140625
-120.849609375
-120.849609375
-120.849609375
-125.42724609375
-125.42724609375
-126.3427734375
-126.3427734375
-123.59619140625
-119.93408203125
-118.10302734375
-118.10302734375
-117.1875
-123.59619140625
-116.27197265625
-123.59619140625
-123.59619140625
-119.93408203125
-122.6806640625
-120.849609375
-125.42724609375
-129.08935546875
-127.25830078125
-122.6806640625
-120.849609375
-123.59619140625
-123.59619140625
-122.6806640625
-120.849609375
-123.59619140625
-124.51171875
-127.25830078125
-125.42724609375
-125.42724609375
-119.93408203125
-124.51171875
-124.51171875
-129.08935546875
-122.6806640625
-118.10302734375
-123.59619140625
-121.76513671875
-125.42724609375
-127.25830078125
-124.51171875
-121.76513671875
-118.10302734375
-118.10302734375
-116.27197265625
-119.93408203125
-123.59619140625
-118.10302734375
-115.3564453125
-110.77880859375
-113.525390625
-114.44091796875
-117.1875
-121.76513671875
-117.1875
-116.27197265625
-119.93408203125
-119.93408203125
-119.0185546875
-114.44091796875
-119.0185546875
-124.51171875
-123.59619140625
-116.27197265625
-115.3564453125
-117.1875
-113.525390625
-105.28564453125
-106.201171875
-114.44091796875
-108.0322265625
-101.62353515625
-99.79248046875
-90.63720703125
-86.0595703125
-75.98876953125
-60.4248046875
-44.86083984375
-32.04345703125
-25.634765625
-21.97265625
-7.32421875
8.23974609375
20.1416015625
25.634765625
8.23974609375
0
-0.91552734375
-3.662109375
-10.07080078125
-3.662109375
-1.8310546875
-5.4931640625
-10.07080078125
-11.90185546875
-21.97265625
-25.634765625
-27.4658203125
-36.62109375
-48.52294921875
-64.0869140625
-72.32666015625
-84.228515625
-95.21484375
-97.0458984375
-97.96142578125
-99.79248046875
-103.45458984375
-106.201171875
-105.28564453125
-103.45458984375
-111.6943359375
-112.60986328125
-103.45458984375
-108.0322265625
-103.45458984375
-106.201171875
-105.28564453125
-104.3701171875
-111.6943359375
-115.3564453125
-117.1875
-114.44091796875
-114.44091796875
-114.44091796875
-117.1875
-108.94775390625
-115.3564453125
-108.0322265625
-103.45458984375
-84.228515625
-52.18505859375
-10.07080078125
25.634765625
65.00244140625
118.10302734375
185.85205078125
295.71533203125
410.15625
538.330078125
710.44921875
907.28759765625
1067.5048828125
1201.171875
1373.291015625
1502.38037109375
1544.49462890625
1561.8896484375
1559.14306640625
1458.43505859375
1233.21533203125
1006.16455078125
812.98828125
613.4033203125
369.873046875
176.69677734375
90.63720703125
42.1142578125
-11.90185546875
-65.91796875
-97.0458984375
-103.45458984375
-78.7353515625
-50.35400390625
-30.21240234375
-16.4794921875
-10.986328125
-16.4794921875
-27.4658203125
-30.21240234375
-38.4521484375
-43.02978515625
-44.86083984375
-48.52294921875
-53.1005859375
-50.35400390625
-52.18505859375
-55.84716796875
-65.91796875
-59.50927734375
-57.67822265625
-58.59375
-54.01611328125
-62.255859375
-66.83349609375
-59.50927734375
-57.67822265625
-62.255859375
-63.17138671875
-56.7626953125
-51.26953125
-54.01611328125
-52.18505859375
-48.52294921875
-44.86083984375
-46.69189453125
-48.52294921875
-43.02978515625
-36.62109375
-42.1142578125
-43.9453125
-46.69189453125
-41.19873046875
-41.19873046875
-32.958984375
-27.4658203125
-23.8037109375
-29.296875
-27.4658203125
-24.71923828125
-27.4658203125
-21.97265625
-21.05712890625
-21.97265625
-21.05712890625
-16.4794921875
-13.73291015625
-10.986328125
-11.90185546875
-10.07080078125
-8.23974609375
-3.662109375
-1.8310546875
2.74658203125
1.8310546875
9.1552734375
9.1552734375
3.662109375
8.23974609375
13.73291015625
18.310546875
16.4794921875
20.1416015625
25.634765625
27.4658203125
30.21240234375
32.04345703125
36.62109375
36.62109375
38.4521484375
37.53662109375
33.87451171875
41.19873046875
48.52294921875
52.18505859375
56.7626953125
61.34033203125
65.00244140625
69.580078125
71.4111328125
68.66455078125
71.4111328125
79.65087890625
77.81982421875
83.31298828125
86.0595703125
84.228515625
87.890625
87.890625
86.97509765625
81.48193359375
86.0595703125
81.48193359375
88.80615234375
87.890625
84.228515625
87.890625
87.890625
78.7353515625
77.81982421875
86.0595703125
76.904296875
73.2421875
69.580078125
67.7490234375
75.0732421875
71.4111328125
64.0869140625
64.0869140625
63.17138671875
64.0869140625
54.01611328125
50.35400390625
45.7763671875
43.02978515625
31.1279296875
26.55029296875
24.71923828125
20.1416015625
10.07080078125
1.8310546875
-2.74658203125
-8.23974609375
-16.4794921875
-28.38134765625
-32.04345703125
-32.04345703125
-35.70556640625
-42.1142578125
-48.52294921875
-54.01611328125
-54.931640625
-55.84716796875
-58.59375
-64.0869140625
-62.255859375
-65.00244140625
-67.7490234375
-66.83349609375
-70.49560546875
-70.49560546875
-74.15771484375
-78.7353515625
-75.0732421875
-74.15771484375
-75.98876953125
-75.0732421875
-81.48193359375
-83.31298828125
-83.31298828125
-85.14404296875
-80.56640625
-83.31298828125
-82.3974609375
-80.56640625
-79.65087890625
-78.7353515625
-78.7353515625
-78.7353515625
-87.890625
-81.48193359375
-80.56640625
-82.3974609375
-78.7353515625
-82.3974609375
-77.81982421875
-71.4111328125
-68.66455078125
-71.4111328125
-71.4111328125
-73.2421875
-71.4111328125
-71.4111328125
-71.4111328125
-71.4111328125
-68.66455078125
-67.7490234375
-68.66455078125
-73.2421875
-68.66455078125
-65.00244140625
-67.7490234375
-63.17138671875
-58.59375
-58.59375
-58.59375
-55.84716796875
-52.18505859375
-56.7626953125
-59.50927734375
-64.0869140625
-71.4111328125
-67.7490234375
-61.34033203125
-65.00244140625
-65.91796875
-67.7490234375
-56.7626953125
-61.34033203125
-66.83349609375
-70.49560546875
-71.4111328125
-74.15771484375
-73.2421875
-71.4111328125
-69.580078125
-72.32666015625
-73.2421875
-69.580078125
-73.2421875
-77.81982421875
-79.65087890625
-78.7353515625
-76.904296875
-75.98876953125
-79.65087890625
-77.81982421875
-78.7353515625
-79.65087890625
-85.14404296875
-86.0595703125
-87.890625
-89.7216796875
-88.80615234375
-90.63720703125
-86.0595703125
-80.56640625
-86.97509765625
-92.46826171875
-92.46826171875
-95.21484375
-89.7216796875
-92.46826171875
-90.63720703125
-82.3974609375
-93.3837890625
-86.0595703125
-91.552734375
-97.0458984375
-92.46826171875
-88.80615234375
-91.552734375
-87.890625
-95.21484375
-91.552734375
-93.3837890625
-94.29931640625
-91.552734375
-89.7216796875
-94.29931640625
-92.46826171875
-98.876953125
-99.79248046875
-100.7080078125
-98.876953125
-103.45458984375
-102.5390625
-96.13037109375
-98.876953125
-99.79248046875
-98.876953125
-100.7080078125
-104.3701171875
-101.62353515625
-107.11669921875
-108.0322265625
-105.28564453125
-108.94775390625
-108.0322265625
-108.0322265625
-113.525390625
-111.6943359375
-109.86328125
-112.60986328125
-103.45458984375
-107.11669921875
-99.79248046875
-101.62353515625
-107.11669921875
-107.11669921875
-103.45458984375
-109.86328125
-107.11669921875
-105.28564453125
-107.11669921875
-105.28564453125
-105.28564453125
-107.11669921875
-105.28564453125
-103.45458984375
-108.94775390625
-108.94775390625
-108.0322265625
-109.86328125
-111.6943359375
-112.60986328125
-107.11669921875
-106.201171875
-103.45458984375
-103.45458984375
-105.28564453125
-116.27197265625
-113.525390625
-113.525390625
-111.6943359375
-106.201171875
-105.28564453125
-109.86328125
-103.45458984375
-104.3701171875
-111.6943359375
-110.77880859375
-111.6943359375
-114.44091796875
-111.6943359375
-108.0322265625
-112.60986328125
-112.60986328125
-112.60986328125
-112.60986328125
-115.3564453125
-116.27197265625
-113.525390625
-110.77880859375
-108.94775390625
-114.44091796875
-110.77880859375
-111.6943359375
-109.86328125
-108.94775390625
-111.6943359375
-111.6943359375
-107.11669921875
-103.45458984375
-106.201171875
-105.28564453125
-99.79248046875
-94.29931640625
-95.21484375
-91.552734375
-89.7216796875
-85.14404296875
-77.81982421875
-67.7490234375
-60.4248046875
-54.931640625
-43.9453125
-14.6484375
0
13.73291015625
26.55029296875
32.04345703125
14.6484375
-5.4931640625
-19.22607421875
-10.986328125
-3.662109375
3.662109375
8.23974609375
5.4931640625
0
-14.6484375
-24.71923828125
-22.88818359375
-34.7900390625
-33.87451171875
-44.86083984375
-58.59375
-72.32666015625
-82.3974609375
-88.80615234375
-93.3837890625
-97.0458984375
-95.21484375
-100.7080078125
-97.0458984375
-92.46826171875
-97.96142578125
-97.96142578125
-103.45458984375
-108.0322265625
-107.11669921875
-108.94775390625
-106.201171875
-104.3701171875
-106.201171875
-99.79248046875
-98.876953125
-102.5390625
-102.5390625
-105.28564453125
-108.0322265625
-110.77880859375
-107.11669921875
-110.77880859375
-118.10302734375
-100.7080078125
-90.63720703125
-65.00244140625
-28.38134765625
6.40869140625
34.7900390625
72.32666015625
128.173828125
217.8955078125
333.251953125
455.01708984375
604.248046875
789.1845703125
975.9521484375
1130.67626953125
1281.73828125
1454.77294921875
1542.66357421875
1569.2138671875
1582.94677734375
1565.5517578125
1437.3779296875
1188.3544921875
958.55712890625
763.5498046875
556.640625
300.29296875
135.498046875
65.91796875
18.310546875
-30.21240234375
-79.65087890625
-103.45458984375
-98.876953125
-76.904296875
-50.35400390625
-26.55029296875
-7.32421875
-4.57763671875
-0.91552734375
-8.23974609375
-16.4794921875
-27.4658203125
-38.4521484375
-46.69189453125
-54.931640625
-53.1005859375
-53.1005859375
-55.84716796875
-55.84716796875
-57.67822265625
-53.1005859375
-56.7626953125
-57.67822265625
-63.17138671875
-64.0869140625
-62.255859375
-62.255859375
-58.59375
-56.7626953125
-55.84716796875
-53.1005859375
-55.84716796875
-58.59375
-58.59375
-54.931640625
-50.35400390625
-49.4384765625
-47.607421875
-46.69189453125
-44.86083984375
-44.86083984375
-42.1142578125
-42.1142578125
-38.4521484375
-34.7900390625
-31.1279296875
-34.7900390625
-31.1279296875
-32.958984375
-32.04345703125
-27.4658203125
-24.71923828125
-22.88818359375
-20.1416015625
-16.4794921875
-15.56396484375
-15.56396484375
-8.23974609375
-9.1552734375
-10.07080078125
-8.23974609375
-6.40869140625
-5.4931640625
-4.57763671875
-3.662109375
2.74658203125
0.91552734375
2.74658203125
2.74658203125
4.57763671875
10.986328125
13.73291015625
15.56396484375
17.39501953125
20.1416015625
19.22607421875
24.71923828125
25.634765625
31.1279296875
36.62109375
34.7900390625
35.70556640625
41.19873046875
45.7763671875
48.52294921875
44.86083984375
54.01611328125
61.34033203125
64.0869140625
64.0869140625
65.00244140625
66.83349609375
71.4111328125
68.66455078125
71.4111328125
71.4111328125
72.32666015625
78.7353515625
86.97509765625
88.80615234375
83.31298828125
88.80615234375
85.14404296875
86.0595703125
86.97509765625
84.228515625
84.228515625
81.48193359375
81.48193359375
83.31298828125
85.14404296875
82.3974609375
78.7353515625
77.81982421875
72.32666015625
74.15771484375
72.32666015625
70.49560546875
68.66455078125
65.00244140625
60.4248046875
55.84716796875
44.86083984375
40.283203125
37.53662109375
32.958984375
28.38134765625
20.1416015625
11.90185546875
2.74658203125
-4.57763671875
-11.90185546875
-19.22607421875
-27.4658203125
-35.70556640625
-41.19873046875
-45.7763671875
-47.607421875
-50.35400390625
-52.18505859375
-63.17138671875
-62.255859375
-60.4248046875
-69.580078125
-71.4111328125
-75.0732421875
-77.81982421875
-75.98876953125
-79.65087890625
-80.56640625
-85.14404296875
-86.97509765625
-90.63720703125
-95.21484375
-98.876953125
-93.3837890625
-86.0595703125
-92.46826171875
-97.0458984375
-98.876953125
-96.13037109375
-89.7216796875
-91.552734375
-102.5390625
-101.62353515625
-98.876953125
-98.876953125
-95.21484375
-92.46826171875
-93.3837890625
-92.46826171875
-92.46826171875
-92.46826171875
-91.552734375
-90.63720703125
-90.63720703125
-88.80615234375
-86.97509765625
-85.14404296875
-83.31298828125
-86.0595703125
-82.3974609375
-80.56640625
-81.48193359375
-83.31298828125
-79.65087890625
-81.48193359375
-80.56640625
-79.65087890625
-75.0732421875
-73.2421875
-72.32666015625
-71.4111328125
-76.904296875
-79.65087890625
-72.32666015625
-67.7490234375
-70.49560546875
-73.2421875
-68.66455078125
-69.580078125
-70.49560546875
-70.49560546875
-69.580078125
-69.580078125
-71.4111328125
-75.98876953125
-72.32666015625
-71.4111328125
-66.83349609375
-67.7490234375
-70.49560546875
-73.2421875
-75.0732421875
-78.7353515625
-79.65087890625
-79.65087890625
-83.31298828125
-75.98876953125
-77.81982421875
-76.904296875
-75.0732421875
-70.49560546875
-75.0732421875
-78.7353515625
-75.0732421875
-80.56640625
-78.7353515625
-70.49560546875
-73.2421875
-72.32666015625
-70.49560546875
-72.32666015625
-73.2421875
-72.32666015625
-71.4111328125
-74.15771484375
-75.0732421875
-75.0732421875
-72.32666015625
-71.4111328125
-74.15771484375
-75.0732421875
-74.15771484375
-80.56640625
-78.7353515625
-78.7353515625
-78.7353515625
-77.81982421875
-75.0732421875
-78.7353515625
-74.15771484375
-75.98876953125
-78.7353515625
-81.48193359375
-77.81982421875
-80.56640625
-86.97509765625
-83.31298828125
-82.3974609375
-85.14404296875
-86.0595703125
-89.7216796875
-87.890625
-86.97509765625
-86.0595703125
-89.7216796875
-83.31298828125
-89.7216796875
-86.97509765625
-82.3974609375
-85.14404296875
-89.7216796875
-89.7216796875
-89.7216796875
-92.46826171875
-94.29931640625
-97.96142578125
-91.552734375
-90.63720703125
-86.0595703125
-86.97509765625
-93.3837890625
-89.7216796875
-95.21484375
-97.96142578125
-95.21484375
-95.21484375
-94.29931640625
-94.29931640625
-93.3837890625
-96.13037109375
-95.21484375
-92.46826171875
-94.29931640625
-96.13037109375
-97.96142578125
-94.29931640625
-94.29931640625
-95.21484375
-92.46826171875
-91.552734375
-96.13037109375
-96.13037109375
-95.21484375
-97.0458984375
-93.3837890625
-94.29931640625
-94.29931640625
-94.29931640625
-90.63720703125
-95.21484375
-93.3837890625
-96.13037109375
-104.3701171875
-100.7080078125
-97.0458984375
-97.0458984375
-95.21484375
-93.3837890625
-97.0458984375
-97.96142578125
-95.21484375
-101.62353515625
-97.96142578125
-97.0458984375
-96.13037109375
-94.29931640625
-97.0458984375
-92.46826171875
-86.0595703125
-95.21484375
-98.876953125
-100.7080078125
-97.96142578125
-97.96142578125
-97.0458984375
-97.0458984375
-90.63720703125
-81.48193359375
-82.3974609375
-78.7353515625
-71.4111328125
-65.91796875
-56.7626953125
-43.02978515625
-31.1279296875
-26.55029296875
-9.1552734375
12.8173828125
32.958984375
43.02978515625
44.86083984375
52.18505859375
48.52294921875
24.71923828125
5.4931640625
7.32421875
11.90185546875
19.22607421875
22.88818359375
21.05712890625
12.8173828125
4.57763671875
-3.662109375
-9.1552734375
-10.07080078125
-21.05712890625
-28.38134765625
-43.02978515625
-56.7626953125
-65.00244140625
-71.4111328125
-76.904296875
-73.2421875
-74.15771484375
-85.14404296875
-80.56640625
-81.48193359375
-81.48193359375
-82.3974609375
-87.890625
-85.14404296875
-84.228515625
-85.14404296875
-86.0595703125
-86.97509765625
-85.14404296875
-91.552734375
-85.14404296875
-87.890625
-92.46826171875
-93.3837890625
-95.21484375
-94.29931640625
-94.29931640625
-97.0458984375
-100.7080078125
-100.7080078125
-93.3837890625
-73.2421875
-52.18505859375
-17.39501953125
22.88818359375
49.4384765625
101.62353515625
155.6396484375
253.60107421875
375.3662109375
505.37109375
670.166015625
865.17333984375
1056.5185546875
1219.482421875
1380.615234375
1541.748046875
1617.73681640625
1624.1455078125
1630.55419921875
1586.60888671875
1381.53076171875
1129.7607421875
922.8515625
709.53369140625
464.17236328125
195.9228515625
54.931640625
18.310546875
-10.07080078125
-44.86083984375
-65.00244140625
-54.931640625
-30.21240234375
-9.1552734375
13.73291015625
27.4658203125
25.634765625
18.310546875
11.90185546875
4.57763671875
-3.662109375
-9.1552734375
-14.6484375
-19.22607421875
-22.88818359375
-30.21240234375
-33.87451171875
-28.38134765625
-26.55029296875
-29.296875
-32.04345703125
-32.958984375
-32.958984375
-32.04345703125
-31.1279296875
-32.04345703125
-29.296875
-30.21240234375
-22.88818359375
-18.310546875
-19.22607421875
-22.88818359375
-17.39501953125
-13.73291015625
-19.22607421875
-19.22607421875
-12.8173828125
-11.90185546875
-10.07080078125
-3.662109375
-5.4931640625
-7.32421875
-5.4931640625
-5.4931640625
-8.23974609375
-0.91552734375
3.662109375
7.32421875
10.986328125
12.8173828125
14.6484375
12.8173828125
12.8173828125
20.1416015625
21.97265625
19.22607421875
19.22607421875
20.1416015625
29.296875
29.296875
32.04345703125
33.87451171875
38.4521484375
37.53662109375
43.9453125
46.69189453125
48.52294921875
50.35400390625
52.18505859375
57.67822265625
58.59375
62.255859375
63.17138671875
66.83349609375
70.49560546875
72.32666015625
79.65087890625
81.48193359375
86.0595703125
83.31298828125
88.80615234375
90.63720703125
92.46826171875
96.13037109375
96.13037109375
99.79248046875
104.3701171875
104.3701171875
110.77880859375
109.86328125
116.27197265625
119.93408203125
126.3427734375
128.173828125
123.59619140625
129.08935546875
135.498046875
135.498046875
146.484375
141.90673828125
140.07568359375
145.56884765625
144.6533203125
145.56884765625
143.73779296875
145.56884765625
148.3154296875
146.484375
145.56884765625
142.822265625
143.73779296875
143.73779296875
142.822265625
143.73779296875
143.73779296875
138.24462890625
135.498046875
137.3291015625
137.3291015625
133.6669921875
131.8359375
122.6806640625
114.44091796875
107.11669921875
98.876953125
92.46826171875
85.14404296875
79.65087890625
74.15771484375
57.67822265625
48.52294921875
43.9453125
32.958984375
22.88818359375
18.310546875
10.07080078125
3.662109375
2.74658203125
-0.91552734375
-3.662109375
-14.6484375
-19.22607421875
-21.97265625
-27.4658203125
-34.7900390625
-40.283203125
-41.19873046875
-43.02978515625
-45.7763671875
-50.35400390625
-51.26953125
-48.52294921875
-47.607421875
-54.01611328125
-55.84716796875
-53.1005859375
-51.26953125
-51.26953125
-54.931640625
-58.59375
-54.931640625
-53.1005859375
-55.84716796875
-60.4248046875
-58.59375
-56.7626953125
-58.59375
-60.4248046875
-54.931640625
-56.7626953125
-54.931640625
-48.52294921875
-51.26953125
-51.26953125
-54.01611328125
-52.18505859375
-54.931640625
-55.84716796875
-49.4384765625
-44.86083984375
-47.607421875
-48.52294921875
-47.607421875
-49.4384765625
-45.7763671875
-46.69189453125
-46.69189453125
-48.52294921875
-46.69189453125
-41.19873046875
-41.19873046875
-43.02978515625
-43.9453125
-41.19873046875
-37.53662109375
-39.36767578125
-37.53662109375
-43.9453125
-40.283203125
-33.87451171875
-34.7900390625
-32.958984375
-35.70556640625
-32.04345703125
-32.958984375
-35.70556640625
-39.36767578125
-36.62109375
-35.70556640625
-34.7900390625
-42.1142578125
-40.283203125
-43.9453125
-41.19873046875
-45.7763671875
-47.607421875
-42.1142578125
-38.4521484375
-35.70556640625
-44.86083984375
-42.1142578125
-41.19873046875
-42.1142578125
-42.1142578125
-42.1142578125
-43.02978515625
-45.7763671875
-44.86083984375
-43.9453125
-47.607421875
-45.7763671875
-46.69189453125
-52.18505859375
-56.7626953125
-52.18505859375
-47.607421875
-47.607421875
-50.35400390625
-46.69189453125
-48.52294921875
-51.26953125
-55.84716796875
-55.84716796875
-57.67822265625
-52.18505859375
-49.4384765625
-46.69189453125
-50.35400390625
-51.26953125
-54.01611328125
-54.931640625
-56.7626953125
-53.1005859375
-56.7626953125
-55.84716796875
-58.59375
-53.1005859375
-52.18505859375
-56.7626953125
-57.67822265625
-59.50927734375
-53.1005859375
-54.931640625
-60.4248046875
-59.50927734375
-64.0869140625
-61.34033203125
-57.67822265625
-58.59375
-59.50927734375
-63.17138671875
-65.91796875
-62.255859375
-61.34033203125
-64.0869140625
-63.17138671875
-65.00244140625
-58.59375
-59.50927734375
-66.83349609375
-65.00244140625
-61.34033203125
-62.255859375
-62.255859375
-60.4248046875
-64.0869140625
-64.0869140625
-61.34033203125
-65.91796875
-64.0869140625
-62.255859375
-63.17138671875
-66.83349609375
-68.66455078125
-69.580078125
-65.91796875
-64.0869140625
-69.580078125
-69.580078125
-65.00244140625
-66.83349609375
-67.7490234375
-70.49560546875
-71.4111328125
-65.91796875
-62.255859375
-65.91796875
-65.91796875
-67.7490234375
-66.83349609375
-68.66455078125
-65.91796875
-63.17138671875
-65.91796875
-66.83349609375
-66.83349609375
-69.580078125
-65.00244140625
-68.66455078125
-68.66455078125
-69.580078125
-66.83349609375
-64.0869140625
-65.91796875
-63.17138671875
-65.91796875
-62.255859375
-65.91796875
-69.580078125
-69.580078125
-63.17138671875
-64.0869140625
-66.83349609375
-63.17138671875
-61.34033203125
-56.7626953125
-48.52294921875
-43.02978515625
-40.283203125
-28.38134765625
-19.22607421875
-9.1552734375
-0.91552734375
9.1552734375
33.87451171875
52.18505859375
59.50927734375
76.904296875
80.56640625
76.904296875
46.69189453125
25.634765625
28.38134765625
34.7900390625
36.62109375
48.52294921875
53.1005859375
41.19873046875
34.7900390625
29.296875
21.97265625
17.39501953125
7.32421875
-2.74658203125
-15.56396484375
-29.296875
-36.62109375
-43.02978515625
-50.35400390625
-51.26953125
-50.35400390625
-52.18505859375
-51.26953125
-54.01611328125
-55.84716796875
-56.7626953125
-59.50927734375
-55.84716796875
-55.84716796875
-57.67822265625
-58.59375
-58.59375
-58.59375
-62.255859375
-65.91796875
-63.17138671875
-63.17138671875
-64.0869140625
-65.00244140625
-66.83349609375
-66.83349609375
-58.59375
-70.49560546875
-79.65087890625
-75.98876953125
-62.255859375
-45.7763671875
-13.73291015625
25.634765625
53.1005859375
96.13037109375
143.73779296875
215.14892578125
328.67431640625
450.439453125
588.68408203125
773.62060546875
965.88134765625
1145.32470703125
1300.96435546875
1476.74560546875
1608.58154296875
1644.287109375
1644.287109375
1636.04736328125
1511.53564453125
1257.01904296875
1035.46142578125
841.36962890625
616.14990234375
349.7314453125
129.08935546875
51.26953125
21.05712890625
-7.32421875
-37.53662109375
-43.02978515625
-19.22607421875
1.8310546875
30.21240234375
46.69189453125
49.4384765625
40.283203125
38.4521484375
23.8037109375
21.05712890625
11.90185546875
3.662109375
2.74658203125
4.57763671875
-3.662109375
-10.986328125
-10.986328125
-14.6484375
-13.73291015625
-15.56396484375
-14.6484375
-15.56396484375
-20.1416015625
-20.1416015625
-12.8173828125
-15.56396484375
-13.73291015625
-16.4794921875
-15.56396484375
-14.6484375
-15.56396484375
-13.73291015625
-13.73291015625
-10.07080078125
-7.32421875
-3.662109375
-3.662109375
-3.662109375
4.57763671875
-2.74658203125
0.91552734375
3.662109375
2.74658203125
2.74658203125
3.662109375
9.1552734375
5.4931640625
8.23974609375
10.07080078125
10.986328125
13.73291015625
10.07080078125
21.97265625
20.1416015625
25.634765625
28.38134765625
30.21240234375
31.1279296875
34.7900390625
40.283203125
41.19873046875
43.9453125
43.02978515625
47.607421875
49.4384765625
47.607421875
48.52294921875
48.52294921875
48.52294921875
61.34033203125
61.34033203125
60.4248046875
62.255859375
67.7490234375
75.0732421875
77.81982421875
72.32666015625
71.4111328125
81.48193359375
84.228515625
86.0595703125
88.80615234375
93.3837890625
96.13037109375
99.79248046875
100.7080078125
98.876953125
111.6943359375
104.3701171875
109.86328125
111.6943359375
114.44091796875
122.6806640625
125.42724609375
131.8359375
130.0048828125
130.92041015625
131.8359375
133.6669921875
142.822265625
136.41357421875
135.498046875
138.24462890625
144.6533203125
142.822265625
141.90673828125
144.6533203125
141.90673828125
142.822265625
148.3154296875
142.822265625
144.6533203125
149.23095703125
144.6533203125
145.56884765625
144.6533203125
142.822265625
140.07568359375
131.8359375
130.0048828125
125.42724609375
123.59619140625
113.525390625
103.45458984375
100.7080078125
90.63720703125
72.32666015625
64.0869140625
57.67822265625
46.69189453125
42.1142578125
34.7900390625
27.4658203125
7.32421875
9.1552734375
4.57763671875
-0.91552734375
-10.07080078125
-10.07080078125
-18.310546875
-24.71923828125
-26.55029296875
-26.55029296875
-32.04345703125
-39.36767578125
-42.1142578125
-46.69189453125
-49.4384765625
-51.26953125
-53.1005859375
-49.4384765625
-48.52294921875
-53.1005859375
-53.1005859375
-59.50927734375
-60.4248046875
-62.255859375
-65.91796875
-63.17138671875
-60.4248046875
-61.34033203125
-65.00244140625
-65.00244140625
-58.59375
-58.59375
-64.0869140625
-54.931640625
-56.7626953125
-59.50927734375
-60.4248046875
-63.17138671875
-55.84716796875
-53.1005859375
-54.01611328125
-58.59375
-60.4248046875
-55.84716796875
-52.18505859375
-57.67822265625
-57.67822265625
-51.26953125
-54.01611328125
-48.52294921875
-55.84716796875
-50.35400390625
-50.35400390625
-47.607421875
-50.35400390625
-49.4384765625
-49.4384765625
-52.18505859375
-51.26953125
-52.18505859375
-46.69189453125
-50.35400390625
-52.18505859375
-45.7763671875
-44.86083984375
-44.86083984375
-43.9453125
-44.86083984375
-43.02978515625
-33.87451171875
-38.4521484375
-39.36767578125
-36.62109375
-43.02978515625
-38.4521484375
-36.62109375
-37.53662109375
-32.04345703125
-32.958984375
-31.1279296875
-32.958984375
-38.4521484375
-30.21240234375
-32.958984375
-37.53662109375
-43.02978515625
-43.02978515625
-43.02978515625
-47.607421875
-42.1142578125
-42.1142578125
-50.35400390625
-54.01611328125
-49.4384765625
-56.7626953125
-54.01611328125
-50.35400390625
-48.52294921875
-49.4384765625
-51.26953125
-48.52294921875
-54.931640625
-52.18505859375
-60.4248046875
-68.66455078125
-67.7490234375
-62.255859375
-63.17138671875
-67.7490234375
-62.255859375
-65.00244140625
-64.0869140625
-65.91796875
-67.7490234375
-61.34033203125
-63.17138671875
-66.83349609375
-65.91796875
-63.17138671875
-65.00244140625
-63.17138671875
-65.00244140625
-62.255859375
-57.67822265625
-64.0869140625
-66.83349609375
-63.17138671875
-68.66455078125
-69.580078125
-67.7490234375
-65.91796875
-64.0869140625
-68.66455078125
-66.83349609375
-69.580078125
-73.2421875
-66.83349609375
-63.17138671875
-67.7490234375
-69.580078125
-66.83349609375
-67.7490234375
-70.49560546875
-65.91796875
-65.91796875
-70.49560546875
-69.580078125
-63.17138671875
-73.2421875
-65.91796875
-65.00244140625
-68.66455078125
-73.2421875
-67.7490234375
-70.49560546875
-73.2421875
-73.2421875
-71.4111328125
-70.49560546875
-67.7490234375
-70.49560546875
-73.2421875
-76.904296875
-76.904296875
-75.98876953125
-75.0732421875
-70.49560546875
-73.2421875
-72.32666015625
-68.66455078125
-70.49560546875
-77.81982421875
-76.904296875
-73.2421875
-73.2421875
-73.2421875
-71.4111328125
-75.0732421875
-75.98876953125
-74.15771484375
-76.904296875
-77.81982421875
-80.56640625
-79.65087890625
-75.98876953125
-80.56640625
-81.48193359375
-81.48193359375
-85.14404296875
-78.7353515625
-67.7490234375
-70.49560546875
-75.98876953125
-75.98876953125
-77.81982421875
-73.2421875
-75.98876953125
-69.580078125
-63.17138671875
-64.0869140625
-54.931640625
-49.4384765625
-42.1142578125
-32.958984375
-26.55029296875
-19.22607421875
-7.32421875
12.8173828125
32.04345703125
55.84716796875
62.255859375
60.4248046875
65.00244140625
43.02978515625
20.1416015625
21.97265625
27.4658203125
31.1279296875
35.70556640625
37.53662109375
34.7900390625
25.634765625
14.6484375
10.986328125
14.6484375
1.8310546875
-10.07080078125
-22.88818359375
-34.7900390625
-44.86083984375
-54.931640625
-52.18505859375
-55.84716796875
-59.50927734375
-61.34033203125
-59.50927734375
-59.50927734375
-63.17138671875
-66.83349609375
-61.34033203125
-71.4111328125
-71.4111328125
-75.0732421875
-73.2421875
-69.580078125
-72.32666015625
-69.580078125
-71.4111328125
-75.98876953125
-74.15771484375
-76.904296875
-75.98876953125
-70.49560546875
-72.32666015625
-75.98876953125
-80.56640625
-86.0595703125
-83.31298828125
-64.0869140625
-47.607421875
-15.56396484375
30.21240234375
61.34033203125
87.890625
138.24462890625
205.078125
310.36376953125
433.04443359375
556.640625
725.09765625
914.61181640625
1091.30859375
1229.55322265625
1408.0810546875
1547.2412109375
1593.017578125
1613.1591796875
1618.65234375
1547.2412109375
1329.345703125
1096.8017578125
892.63916015625
698.54736328125
456.84814453125
235.29052734375
132.75146484375
80.56640625
35.70556640625
-20.1416015625
-59.50927734375
-79.65087890625
-64.0869140625
-38.4521484375
-10.986328125
15.56396484375
25.634765625
25.634765625
14.6484375
7.32421875
0.91552734375
-2.74658203125
-5.4931640625
-8.23974609375
-11.90185546875
-13.73291015625
-20.1416015625
-23.8037109375
-28.38134765625
-33.87451171875
-24.71923828125
-21.05712890625
-27.4658203125
-27.4658203125
-21.97265625
-26.55029296875
-22.88818359375
-25.634765625
-21.97265625
-25.634765625
-28.38134765625
-21.05712890625
-18.310546875
-17.39501953125
-17.39501953125
-14.6484375
-15.56396484375
-13.73291015625
-16.4794921875
-11.90185546875
-9.1552734375
-6.40869140625
0
-3.662109375
-6.40869140625
-3.662109375
-3.662109375
-0.91552734375
0
5.4931640625
3.662109375
8.23974609375
10.07080078125
12.8173828125
10.986328125
4.57763671875
13.73291015625
17.39501953125
20.1416015625
21.97265625
26.55029296875
24.71923828125
32.04345703125
31.1279296875
32.04345703125
38.4521484375
34.7900390625
42.1142578125
42.1142578125
47.607421875
45.7763671875
44.86083984375
48.52294921875
48.52294921875
51.26953125
54.931640625
59.50927734375
62.255859375
65.00244140625
65.91796875
62.255859375
74.15771484375
78.7353515625
82.3974609375
85.14404296875
90.63720703125
90.63720703125
89.7216796875
96.13037109375
97.96142578125
104.3701171875
106.201171875
106.201171875
108.0322265625
108.0322265625
108.94775390625
112.60986328125
116.27197265625
121.76513671875
122.6806640625
120.849609375
120.849609375
119.93408203125
120.849609375
120.849609375
114.44091796875
114.44091796875
117.1875
116.27197265625
116.27197265625
117.1875
112.60986328125
112.60986328125
113.525390625
113.525390625
107.11669921875
105.28564453125
103.45458984375
97.96142578125
94.29931640625
88.80615234375
86.0595703125
79.65087890625
69.580078125
65.00244140625
51.26953125
45.7763671875
43.9453125
37.53662109375
23.8037109375
19.22607421875
12.8173828125
6.40869140625
0
-7.32421875
-11.90185546875
-18.310546875
-24.71923828125
-30.21240234375
-29.296875
-31.1279296875
-36.62109375
-42.1142578125
-46.69189453125
-49.4384765625
-54.931640625
-57.67822265625
-54.931640625
-55.84716796875
-56.7626953125
-64.0869140625
-66.83349609375
-66.83349609375
-64.0869140625
-67.7490234375
-73.2421875
-70.49560546875
-69.580078125
-67.7490234375
-63.17138671875
-62.255859375
-60.4248046875
-64.0869140625
-71.4111328125
-70.49560546875
-73.2421875
-71.4111328125
-70.49560546875
-75.0732421875
-68.66455078125
-67.7490234375
-67.7490234375
-66.83349609375
-73.2421875
-70.49560546875
-70.49560546875
-69.580078125
-71.4111328125
-68.66455078125
-62.255859375
-67.7490234375
-67.7490234375
-60.4248046875
-63.17138671875
-62.255859375
-62.255859375
-61.34033203125
-59.50927734375
-60.4248046875
-53.1005859375
-55.84716796875
-61.34033203125
-61.34033203125
-57.67822265625
-55.84716796875
-59.50927734375
-53.1005859375
-54.931640625
-54.931640625
-50.35400390625
-48.52294921875
-43.9453125
-45.7763671875
-50.35400390625
-54.931640625
-54.931640625
-53.1005859375
-52.18505859375
-51.26953125
-50.35400390625
-50.35400390625
-51.26953125
-51.26953125
-50.35400390625
-49.4384765625
-55.84716796875
-48.52294921875
-53.1005859375
-55.84716796875
-57.67822265625
-59.50927734375
-63.17138671875
-65.91796875
-61.34033203125
-68.66455078125
-73.2421875
-67.7490234375
-65.00244140625
-71.4111328125
-70.49560546875
-66.83349609375
-73.2421875
-73.2421875
-75.0732421875
-71.4111328125
-72.32666015625
-72.32666015625
-74.15771484375
-76.904296875
-71.4111328125
-70.49560546875
-70.49560546875
-70.49560546875
-71.4111328125
-72.32666015625
-78.7353515625
-80.56640625
-77.81982421875
-74.15771484375
-73.2421875
-75.0732421875
-74.15771484375
-76.904296875
-76.904296875
-81.48193359375
-83.31298828125
-79.65087890625
-79.65087890625
-82.3974609375
-85.14404296875
-81.48193359375
-79.65087890625
-84.228515625
-85.14404296875
-82.3974609375
-85.14404296875
-83.31298828125
-83.31298828125
-83.31298828125
-85.14404296875
-90.63720703125
-86.0595703125
-86.97509765625
-84.228515625
-89.7216796875
-93.3837890625
-95.21484375
-95.21484375
-97.0458984375
-94.29931640625
-93.3837890625
-91.552734375
-89.7216796875
-93.3837890625
-91.552734375
-92.46826171875
-94.29931640625
-91.552734375
-90.63720703125
-93.3837890625
-87.890625
-90.63720703125
-94.29931640625
-92.46826171875
-92.46826171875
-94.29931640625
-91.552734375
-96.13037109375
-95.21484375
-91.552734375
-92.46826171875
-91.552734375
-87.890625
-92.46826171875
-93.3837890625
-94.29931640625
-93.3837890625
-92.46826171875
-92.46826171875
-88.80615234375
-87.890625
-91.552734375
-93.3837890625
-97.0458984375
-92.46826171875
-91.552734375
-96.13037109375
-97.96142578125
-92.46826171875
-90.63720703125
-92.46826171875
-92.46826171875
-89.7216796875
-96.13037109375
-97.0458984375
-103.45458984375
-100.7080078125
-91.552734375
-86.97509765625
-95.21484375
-99.79248046875
-97.96142578125
-97.0458984375
-93.3837890625
-92.46826171875
-90.63720703125
-86.0595703125
-81.48193359375
-77.81982421875
-65.00244140625
-50.35400390625
-46.69189453125
-41.19873046875
-30.21240234375
-17.39501953125
6.40869140625
20.1416015625
32.958984375
46.69189453125
54.01611328125
52.18505859375
33.87451171875
5.4931640625
7.32421875
11.90185546875
11.90185546875
14.6484375
23.8037109375
19.22607421875
8.23974609375
1.8310546875
-1.8310546875
-7.32421875
-16.4794921875
-22.88818359375
-35.70556640625
-51.26953125
-62.255859375
-73.2421875
-70.49560546875
-71.4111328125
-72.32666015625
-78.7353515625
-83.31298828125
-81.48193359375
-83.31298828125
-83.31298828125
-84.228515625
-85.14404296875
-83.31298828125
-83.31298828125
-89.7216796875
-96.13037109375
-95.21484375
-96.13037109375
-91.552734375
-90.63720703125
-95.21484375
-97.96142578125
-97.96142578125
-97.96142578125
-97.0458984375
-95.21484375
-89.7216796875
-97.0458984375
-108.0322265625
-101.62353515625
-88.80615234375
-66.83349609375
-35.70556640625
2.74658203125
37.53662109375
79.65087890625
126.3427734375
203.2470703125
315.85693359375
447.69287109375
600.5859375
789.1845703125
993.34716796875
1172.79052734375
1326.59912109375
1498.71826171875
1631.4697265625
1650.69580078125
1649.7802734375
1644.287109375
1513.36669921875
1255.18798828125
1033.63037109375
831.298828125
588.68408203125
304.87060546875
80.56640625
5.4931640625
-11.90185546875
-46.69189453125
-70.49560546875
-66.83349609375
-33.87451171875
-16.4794921875
10.986328125
30.21240234375
27.4658203125
19.22607421875
10.07080078125
-2.74658203125
-7.32421875
-12.8173828125
-16.4794921875
-21.97265625
-27.4658203125
-29.296875
-32.04345703125
-37.53662109375
-41.19873046875
-40.283203125
-42.1142578125
-37.53662109375
-35.70556640625
-37.53662109375
-38.4521484375
-40.283203125
-41.19873046875
-42.1142578125
-43.9453125
-35.70556640625
-29.296875
-26.55029296875
-29.296875
-31.1279296875
-32.04345703125
-38.4521484375
-32.04345703125
-26.55029296875
-26.55029296875
-25.634765625
-22.88818359375
-20.1416015625
-17.39501953125
-11.90185546875
-7.32421875
-11.90185546875
-12.8173828125
-8.23974609375
-6.40869140625
-6.40869140625
-3.662109375
-3.662109375
1.8310546875
4.57763671875
4.57763671875
7.32421875
9.1552734375
10.986328125
13.73291015625
17.39501953125
16.4794921875
20.1416015625
19.22607421875
24.71923828125
37.53662109375
33.87451171875
33.87451171875
38.4521484375
39.36767578125
39.36767578125
41.19873046875
45.7763671875
48.52294921875
53.1005859375
61.34033203125
60.4248046875
58.59375
60.4248046875
65.91796875
63.17138671875
67.7490234375
75.0732421875
76.904296875
81.48193359375
87.890625
89.7216796875
92.46826171875
94.29931640625
96.13037109375
96.13037109375
103.45458984375
108.0322265625
110.77880859375
114.44091796875
120.849609375
123.59619140625
120.849609375
124.51171875
131.8359375
133.6669921875
134.58251953125
136.41357421875
139.16015625
140.07568359375
144.6533203125
142.822265625
138.24462890625
142.822265625
141.90673828125
144.6533203125
143.73779296875
140.07568359375
141.90673828125
144.6533203125
145.56884765625
141.90673828125
139.16015625
136.41357421875
130.0048828125
133.6669921875
127.25830078125
120.849609375
110.77880859375
102.5390625
91.552734375
81.48193359375
73.2421875
63.17138671875
55.84716796875
43.02978515625
35.70556640625
29.296875
25.634765625
17.39501953125
7.32421875
-2.74658203125
-8.23974609375
-13.73291015625
-19.22607421875
-24.71923828125
-27.4658203125
-28.38134765625
-34.7900390625
-37.53662109375
-42.1142578125
-48.52294921875
-53.1005859375
-55.84716796875
-57.67822265625
-56.7626953125
-55.84716796875
-58.59375
-56.7626953125
-59.50927734375
-58.59375
-67.7490234375
-64.0869140625
-66.83349609375
-66.83349609375
-66.83349609375
-72.32666015625
-73.2421875
-71.4111328125
-69.580078125
-68.66455078125
-68.66455078125
-67.7490234375
-68.66455078125
-76.904296875
-77.81982421875
-76.904296875
-70.49560546875
-74.15771484375
-77.81982421875
-72.32666015625
-76.904296875
-75.98876953125
-73.2421875
-72.32666015625
-72.32666015625
-72.32666015625
-67.7490234375
-69.580078125
-69.580078125
-70.49560546875
-67.7490234375
-65.00244140625
-68.66455078125
-65.91796875
-60.4248046875
-59.50927734375
-53.1005859375
-54.01611328125
-59.50927734375
-55.84716796875
-54.931640625
-55.84716796875
-52.18505859375
-54.931640625
-52.18505859375
-52.18505859375
-51.26953125
-48.52294921875
-47.607421875
-49.4384765625
-53.1005859375
-52.18505859375
-52.18505859375
-51.26953125
-47.607421875
-48.52294921875
-48.52294921875
-49.4384765625
-48.52294921875
-48.52294921875
-54.931640625
-48.52294921875
-52.18505859375
-55.84716796875
-53.1005859375
-52.18505859375
-50.35400390625
-53.1005859375
-52.18505859375
-52.18505859375
-50.35400390625
-56.7626953125
-61.34033203125
-58.59375
-58.59375
-62.255859375
-58.59375
-58.59375
-63.17138671875
-60.4248046875
-66.83349609375
-70.49560546875
-65.91796875
-68.66455078125
-67.7490234375
-65.91796875
-67.7490234375
-65.91796875
-67.7490234375
-64.0869140625
-65.91796875
-71.4111328125
-70.49560546875
-70.49560546875
-71.4111328125
-68.66455078125
-67.7490234375
-68.66455078125
-69.580078125
-68.66455078125
-70.49560546875
-74.15771484375
-75.0732421875
-76.904296875
-75.0732421875
-75.0732421875
-75.98876953125
-75.0732421875
-78.7353515625
-75.98876953125
-77.81982421875
-84.228515625
-83.31298828125
-82.3974609375
-86.0595703125
-86.97509765625
-82.3974609375
-82.3974609375
-86.0595703125
-80.56640625
-83.31298828125
-87.890625
-90.63720703125
-83.31298828125
-86.0595703125
-81.48193359375
-81.48193359375
-80.56640625
-78.7353515625
-80.56640625
-86.0595703125
-85.14404296875
-86.97509765625
-87.890625
-87.890625
-86.0595703125
-83.31298828125
-86.97509765625
-81.48193359375
-77.81982421875
-77.81982421875
-83.31298828125
-84.228515625
-85.14404296875
-78.7353515625
-78.7353515625
-87.890625
-81.48193359375
-85.14404296875
-84.228515625
-85.14404296875
-86.97509765625
-86.0595703125
-86.97509765625
-86.0595703125
-83.31298828125
-79.65087890625
-83.31298828125
-83.31298828125
-86.0595703125
-85.14404296875
-86.97509765625
-87.890625
-89.7216796875
-92.46826171875
-84.228515625
-84.228515625
-84.228515625
-83.31298828125
-85.14404296875
-82.3974609375
-86.0595703125
-86.97509765625
-87.890625
-84.228515625
-86.97509765625
-86.97509765625
-79.65087890625
-82.3974609375
-84.228515625
-80.56640625
-78.7353515625
-76.904296875
-74.15771484375
-66.83349609375
-63.17138671875
-54.01611328125
-43.02978515625
-35.70556640625
-22.88818359375
-9.1552734375
-1.8310546875
16.4794921875
32.958984375
43.9453125
56.7626953125
64.0869140625
54.931640625
37.53662109375
20.1416015625
11.90185546875
20.1416015625
21.97265625
32.958984375
29.296875
27.4658203125
31.1279296875
21.05712890625
5.4931640625
3.662109375
-4.57763671875
-18.310546875
-25.634765625
-44.86083984375
-49.4384765625
-64.0869140625
-67.7490234375
-64.0869140625
-63.17138671875
-66.83349609375
-73.2421875
-74.15771484375
-72.32666015625
-72.32666015625
-77.81982421875
-75.98876953125
-77.81982421875
-80.56640625
-79.65087890625
-75.0732421875
-78.7353515625
-75.98876953125
-82.3974609375
-83.31298828125
-77.81982421875
-79.65087890625
-83.31298828125
-77.81982421875
-77.81982421875
-75.0732421875
-83.31298828125
-85.14404296875
-87.890625
-96.13037109375
-95.21484375
-80.56640625
-60.4248046875
-32.04345703125
4.57763671875
36.62109375
81.48193359375
130.0048828125
195.00732421875
309.4482421875
441.2841796875
572.20458984375
744.32373046875
953.06396484375
1137.0849609375
1293.64013671875
1450.1953125
1594.8486328125
1646.1181640625
1648.86474609375
1632.38525390625
1539.00146484375
1279.9072265625
1051.94091796875
851.4404296875
623.47412109375
354.30908203125
109.86328125
22.88818359375
-4.57763671875
-30.21240234375
-52.18505859375
-55.84716796875
-30.21240234375
-14.6484375
10.986328125
28.38134765625
30.21240234375
29.296875
17.39501953125
6.40869140625
0
-0.91552734375
-3.662109375
-5.4931640625
-10.986328125
-20.1416015625
-23.8037109375
-22.88818359375
-29.296875
-28.38134765625
-31.1279296875
-28.38134765625
-22.88818359375
-22.88818359375
-30.21240234375
-29.296875
-28.38134765625
-32.958984375
-26.55029296875
-25.634765625
-26.55029296875
-25.634765625
-25.634765625
-22.88818359375
-20.1416015625
-24.71923828125
-18.310546875
-11.90185546875
-21.05712890625
-16.4794921875
-7.32421875
-3.662109375
-3.662109375
-3.662109375
-0.91552734375
-2.74658203125
-1.8310546875
-2.74658203125
4.57763671875
3.662109375
7.32421875
10.986328125
11.90185546875
17.39501953125
19.22607421875
13.73291015625
18.310546875
19.22607421875
21.97265625
17.39501953125
17.39501953125
26.55029296875
33.87451171875
36.62109375
34.7900390625
40.283203125
40.283203125
41.19873046875
44.86083984375
47.607421875
52.18505859375
56.7626953125
58.59375
59.50927734375
65.91796875
71.4111328125
68.66455078125
69.580078125
78.7353515625
73.2421875
80.56640625
86.97509765625
91.552734375
92.46826171875
96.13037109375
102.5390625
102.5390625
103.45458984375
107.11669921875
112.60986328125
115.3564453125
123.59619140625
125.42724609375
125.42724609375
126.3427734375
132.75146484375
131.8359375
130.92041015625
134.58251953125
139.16015625
140.9912109375
147.39990234375
148.3154296875
150.146484375
150.146484375
149.23095703125
148.3154296875
149.23095703125
146.484375
154.72412109375
154.72412109375
157.470703125
155.6396484375
154.72412109375
155.6396484375
155.6396484375
149.23095703125
146.484375
146.484375
141.90673828125
137.3291015625
131.8359375
121.76513671875
116.27197265625
110.77880859375
108.94775390625
93.3837890625
77.81982421875
69.580078125
57.67822265625
49.4384765625
39.36767578125
34.7900390625
30.21240234375
23.8037109375
10.07080078125
4.57763671875
4.57763671875
-7.32421875
-12.8173828125
-14.6484375
-21.97265625
-25.634765625
-30.21240234375
-36.62109375
-40.283203125
-43.02978515625
-46.69189453125
-53.1005859375
-47.607421875
-50.35400390625
-54.931640625
-55.84716796875
-55.84716796875
-62.255859375
-70.49560546875
-61.34033203125
-63.17138671875
-70.49560546875
-70.49560546875
-70.49560546875
-65.91796875
-63.17138671875
-65.91796875
-70.49560546875
-66.83349609375
-66.83349609375
-71.4111328125
-65.00244140625
-63.17138671875
-64.0869140625
-66.83349609375
-65.91796875
-64.0869140625
-62.255859375
-62.255859375
-64.0869140625
-65.91796875
-63.17138671875
-58.59375
-59.50927734375
-61.34033203125
-60.4248046875
-61.34033203125
-53.1005859375
-54.931640625
-55.84716796875
-54.931640625
-52.18505859375
-52.18505859375
-52.18505859375
-52.18505859375
-49.4384765625
-47.607421875
-47.607421875
-48.52294921875
-46.69189453125
-49.4384765625
-49.4384765625
-50.35400390625
-47.607421875
-43.02978515625
-37.53662109375
-41.19873046875
-45.7763671875
-43.9453125
-45.7763671875
-44.86083984375
-48.52294921875
-47.607421875
-40.283203125
-40.283203125
-42.1142578125
-42.1142578125
-48.52294921875
-54.01611328125
-50.35400390625
-50.35400390625
-49.4384765625
-50.35400390625
-43.02978515625
-44.86083984375
-47.607421875
-51.26953125
-54.01611328125
-57.67822265625
-57.67822265625
-57.67822265625
-57.67822265625
-54.01611328125
-55.84716796875
-56.7626953125
-56.7626953125
-54.01611328125
-64.0869140625
-67.7490234375
-69.580078125
-66.83349609375
-60.4248046875
-62.255859375
-63.17138671875
-63.17138671875
-68.66455078125
-65.91796875
-65.91796875
-68.66455078125
-61.34033203125
-65.00244140625
-71.4111328125
-65.00244140625
-65.00244140625
-65.00244140625
-67.7490234375
-65.00244140625
-67.7490234375
-73.2421875
-71.4111328125
-70.49560546875
-76.904296875
-76.904296875
-78.7353515625
-75.0732421875
-78.7353515625
-75.98876953125
-75.98876953125
-74.15771484375
-74.15771484375
-78.7353515625
-81.48193359375
-81.48193359375
-78.7353515625
-78.7353515625
-78.7353515625
-76.904296875
-76.904296875
-72.32666015625
-76.904296875
-77.81982421875
-75.98876953125
-78.7353515625
-81.48193359375
-74.15771484375
-73.2421875
-75.98876953125
-76.904296875
-80.56640625
-86.0595703125
-86.97509765625
-81.48193359375
-75.0732421875
-81.48193359375
-75.98876953125
-76.904296875
-76.904296875
-77.81982421875
-77.81982421875
-78.7353515625
-79.65087890625
-77.81982421875
-83.31298828125
-81.48193359375
-79.65087890625
-80.56640625
-82.3974609375
-82.3974609375
-81.48193359375
-86.0595703125
-86.0595703125
-86.97509765625
-82.3974609375
-84.228515625
-85.14404296875
-84.228515625
-86.0595703125
-82.3974609375
-86.0595703125
-87.890625
-82.3974609375
-83.31298828125
-86.0595703125
-87.890625
-84.228515625
-83.31298828125
-82.3974609375
-76.904296875
-84.228515625
-92.46826171875
-94.29931640625
-84.228515625
-76.904296875
-79.65087890625
-82.3974609375
-83.31298828125
-86.0595703125
-84.228515625
-84.228515625
-86.0595703125
-90.63720703125
-86.0595703125
-87.890625
-88.80615234375
-88.80615234375
-86.97509765625
-84.228515625
-79.65087890625
-80.56640625
-77.81982421875
-76.904296875
-68.66455078125
-58.59375
-56.7626953125
-48.52294921875
-27.4658203125
-25.634765625
-11.90185546875
0.91552734375
17.39501953125
32.958984375
46.69189453125
55.84716796875
62.255859375
61.34033203125
55.84716796875
30.21240234375
21.97265625
28.38134765625
30.21240234375
36.62109375
37.53662109375
33.87451171875
30.21240234375
20.1416015625
13.73291015625
10.07080078125
-0.91552734375
-6.40869140625
-21.05712890625
-38.4521484375
-47.607421875
-54.931640625
-63.17138671875
-60.4248046875
-64.0869140625
-73.2421875
-68.66455078125
-74.15771484375
-71.4111328125
-75.98876953125
-74.15771484375
-78.7353515625
-76.904296875
-72.32666015625
-69.580078125
-79.65087890625
-82.3974609375
-81.48193359375
-75.0732421875
-82.3974609375
-86.0595703125
-84.228515625
-89.7216796875
-86.0595703125
-86.0595703125
-86.97509765625
-86.97509765625
-91.552734375
-86.0595703125
-87.890625
-95.21484375
-86.0595703125
-74.15771484375
-54.931640625
-20.1416015625
21.97265625
54.01611328125
93.3837890625
138.24462890625
212.40234375
335.99853515625
460.51025390625
595.0927734375
773.62060546875
971.37451171875
1141.66259765625
1289.97802734375
1457.51953125
1585.693359375
1613.1591796875
1620.4833984375
1610.41259765625
1461.181640625
1207.58056640625
998.84033203125
803.8330078125
585.02197265625
325.01220703125
129.08935546875
55.84716796875
20.1416015625
-15.56396484375
-51.26953125
-68.66455078125
-50.35400390625
-29.296875
-6.40869140625
10.07080078125
19.22607421875
16.4794921875
10.07080078125
4.57763671875
4.57763671875
-6.40869140625
-10.986328125
-17.39501953125
-21.97265625
-27.4658203125
-28.38134765625
-30.21240234375
-24.71923828125
-21.05712890625
-25.634765625
-30.21240234375
-24.71923828125
-22.88818359375
-30.21240234375
-30.21240234375
-27.4658203125
-26.55029296875
-29.296875
-27.4658203125
-26.55029296875
-23.8037109375
-21.97265625
-19.22607421875
-20.1416015625
-23.8037109375
-19.22607421875
-18.310546875
-18.310546875
-21.05712890625
-18.310546875
-15.56396484375
-9.1552734375
-10.986328125
-4.57763671875
-5.4931640625
-8.23974609375
-6.40869140625
-2.74658203125
-2.74658203125
-0.91552734375
4.57763671875
2.74658203125
9.1552734375
10.07080078125
6.40869140625
11.90185546875
12.8173828125
20.1416015625
24.71923828125
31.1279296875
32.958984375
33.87451171875
34.7900390625
37.53662109375
35.70556640625
40.283203125
42.1142578125
42.1142578125
47.607421875
47.607421875
51.26953125
57.67822265625
59.50927734375
63.17138671875
66.83349609375
72.32666015625
71.4111328125
74.15771484375
78.7353515625
79.65087890625
83.31298828125
84.228515625
87.890625
91.552734375
95.21484375
94.29931640625
97.0458984375
105.28564453125
108.94775390625
109.86328125
116.27197265625
120.849609375
125.42724609375
126.3427734375
125.42724609375
128.173828125
132.75146484375
131.8359375
132.75146484375
137.3291015625
141.90673828125
145.56884765625
138.24462890625
142.822265625
141.90673828125
140.07568359375
141.90673828125
145.56884765625
145.56884765625
149.23095703125
153.80859375
150.146484375
151.9775390625
146.484375
142.822265625
143.73779296875
141.90673828125
133.6669921875
134.58251953125
130.92041015625
124.51171875
122.6806640625
113.525390625
104.3701171875
93.3837890625
85.14404296875
77.81982421875
71.4111328125
63.17138671875
58.59375
49.4384765625
42.1142578125
30.21240234375
21.97265625
14.6484375
11.90185546875
1.8310546875
-4.57763671875
-11.90185546875
-18.310546875
-19.22607421875
-21.05712890625
-30.21240234375
-33.87451171875
-33.87451171875
-41.19873046875
-43.9453125
-51.26953125
-52.18505859375
-49.4384765625
-48.52294921875
-44.86083984375
-52.18505859375
-53.1005859375
-56.7626953125
-60.4248046875
-56.7626953125
-60.4248046875
-57.67822265625
-56.7626953125
-60.4248046875
-51.26953125
-54.01611328125
-60.4248046875
-65.00244140625
-59.50927734375
-56.7626953125
-59.50927734375
-55.84716796875
-56.7626953125
-59.50927734375
-54.931640625
-54.931640625
-57.67822265625
-61.34033203125
-57.67822265625
-56.7626953125
-57.67822265625
-53.1005859375
-54.931640625
-50.35400390625
-46.69189453125
-44.86083984375
-45.7763671875
-49.4384765625
-46.69189453125
-46.69189453125
-43.9453125
-41.19873046875
-42.1142578125
-43.02978515625
-38.4521484375
-32.04345703125
-38.4521484375
-38.4521484375
-39.36767578125
-43.02978515625
-42.1142578125
-39.36767578125
-40.283203125
-36.62109375
-32.958984375
-37.53662109375
-40.283203125
-37.53662109375
-37.53662109375
-34.7900390625
-31.1279296875
-34.7900390625
-37.53662109375
-36.62109375
-38.4521484375
-34.7900390625
-32.958984375
-39.36767578125
-38.4521484375
-34.7900390625
-39.36767578125
-43.02978515625
-41.19873046875
-40.283203125
-43.02978515625
-37.53662109375
-39.36767578125
-45.7763671875
-44.86083984375
-44.86083984375
-43.9453125
-46.69189453125
-43.02978515625
-38.4521484375
-40.283203125
-43.02978515625
-48.52294921875
-48.52294921875
-49.4384765625
-49.4384765625
-44.86083984375
-47.607421875
-48.52294921875
-53.1005859375
-53.1005859375
-51.26953125
-47.607421875
-55.84716796875
-52.18505859375
-56.7626953125
-56.7626953125
-55.84716796875
-52.18505859375
-54.931640625
-55.84716796875
-59.50927734375
-60.4248046875
-60.4248046875
-60.4248046875
-62.255859375
-61.34033203125
-62.255859375
-63.17138671875
-60.4248046875
-60.4248046875
-63.17138671875
-64.0869140625
-71.4111328125
-68.66455078125
-65.00244140625
-63.17138671875
-66.83349609375
-66.83349609375
-68.66455078125
-66.83349609375
-64.0869140625
-65.91796875
-64.0869140625
-65.00244140625
-68.66455078125
-68.66455078125
-66.83349609375
-68.66455078125
-66.83349609375
-63.17138671875
-66.83349609375
-67.7490234375
-67.7490234375
-68.66455078125
-65.91796875
-65.00244140625
-70.49560546875
-66.83349609375
-62.255859375
-62.255859375
-63.17138671875
-66.83349609375
-66.83349609375
-64.0869140625
-67.7490234375
-65.91796875
-64.0869140625
-63.17138671875
-66.83349609375
-65.91796875
-61.34033203125
-67.7490234375
-69.580078125
-67.7490234375
-65.91796875
-66.83349609375
-69.580078125
-69.580078125
-66.83349609375
-65.91796875
-65.91796875
-68.66455078125
-68.66455078125
-64.0869140625
-70.49560546875
-67.7490234375
-69.580078125
-69.580078125
-70.49560546875
-68.66455078125
-66.83349609375
-68.66455078125
-68.66455078125
-70.49560546875
-72.32666015625
-72.32666015625
-74.15771484375
-73.2421875
-71.4111328125
-72.32666015625
-69.580078125
-71.4111328125
-67.7490234375
-70.49560546875
-74.15771484375
-73.2421875
-70.49560546875
-69.580078125
-69.580078125
-67.7490234375
-64.0869140625
-57.67822265625
-58.59375
-56.7626953125
-49.4384765625
-43.02978515625
-33.87451171875
-17.39501953125
-11.90185546875
-4.57763671875
7.32421875
23.8037109375
44.86083984375
58.59375
66.83349609375
70.49560546875
71.4111328125
45.7763671875
25.634765625
27.4658203125
34.7900390625
42.1142578125
45.7763671875
46.69189453125
35.70556640625
35.70556640625
26.55029296875
21.05712890625
19.22607421875
9.1552734375
-3.662109375
-16.4794921875
-32.04345703125
-43.02978515625
-50.35400390625
-51.26953125
-49.4384765625
-50.35400390625
-53.1005859375
-55.84716796875
-62.255859375
-60.4248046875
-63.17138671875
-62.255859375
-64.0869140625
-61.34033203125
-62.255859375
-62.255859375
-69.580078125
-68.66455078125
-66.83349609375
-68.66455078125
-67.7490234375
-69.580078125
-67.7490234375
-72.32666015625
-72.32666015625
-74.15771484375
-75.0732421875
-70.49560546875
-70.49560546875
-80.56640625
-82.3974609375
-73.2421875
-61.34033203125
-37.53662109375
3.662109375
33.87451171875
67.7490234375
111.6943359375
168.45703125
262.75634765625
380.859375
502.62451171875
664.6728515625
854.18701171875
1052.8564453125
1211.24267578125
1372.37548828125
1538.0859375
1616.8212890625
1631.4697265625
1635.1318359375
1604.91943359375
1426.3916015625
1177.3681640625
962.21923828125
763.5498046875
533.75244140625
267.333984375
108.94775390625
54.01611328125
19.22607421875
-22.88818359375
-48.52294921875
-59.50927734375
-33.87451171875
-10.986328125
13.73291015625
34.7900390625
38.4521484375
30.21240234375
24.71923828125
16.4794921875
5.4931640625
0.91552734375
0
-8.23974609375
-14.6484375
-14.6484375
-13.73291015625
-17.39501953125
-20.1416015625
-22.88818359375
-22.88818359375
-26.55029296875
-21.97265625
-21.05712890625
-21.97265625
-23.8037109375
-17.39501953125
-16.4794921875
-22.88818359375
-24.71923828125
-22.88818359375
-23.8037109375
-16.4794921875
-21.05712890625
-14.6484375
-10.986328125
-7.32421875
-9.1552734375
-11.90185546875
-9.1552734375
-4.57763671875
0
-0.91552734375
8.23974609375
10.07080078125
7.32421875
6.40869140625
6.40869140625
10.07080078125
9.1552734375
12.8173828125
21.97265625
20.1416015625
25.634765625
25.634765625
29.296875
26.55029296875
27.4658203125
27.4658203125
28.38134765625
33.87451171875
42.1142578125
41.19873046875
43.9453125
41.19873046875
45.7763671875
43.02978515625
47.607421875
50.35400390625
51.26953125
52.18505859375
55.84716796875
57.67822265625
58.59375
66.83349609375
66.83349609375
71.4111328125
74.15771484375
71.4111328125
75.0732421875
82.3974609375
82.3974609375
89.7216796875
94.29931640625
98.876953125
98.876953125
101.62353515625
107.11669921875
113.525390625
112.60986328125
119.0185546875
119.93408203125
127.25830078125
128.173828125
134.58251953125
140.07568359375
145.56884765625
145.56884765625
147.39990234375
148.3154296875
153.80859375
155.6396484375
152.89306640625
154.72412109375
158.38623046875
158.38623046875
160.21728515625
151.9775390625
151.9775390625
155.6396484375
158.38623046875
152.89306640625
158.38623046875
160.21728515625
155.6396484375
153.80859375
151.06201171875
148.3154296875
143.73779296875
140.07568359375
133.6669921875
124.51171875
117.1875
115.3564453125
104.3701171875
102.5390625
89.7216796875
79.65087890625
74.15771484375
59.50927734375
45.7763671875
38.4521484375
36.62109375
27.4658203125
19.22607421875
18.310546875
11.90185546875
0
-9.1552734375
-10.07080078125
-17.39501953125
-22.88818359375
-25.634765625
-22.88818359375
-30.21240234375
-32.958984375
-35.70556640625
-39.36767578125
-42.1142578125
-45.7763671875
-48.52294921875
-51.26953125
-51.26953125
-52.18505859375
-53.1005859375
-52.18505859375
-51.26953125
-54.01611328125
-56.7626953125
-56.7626953125
-57.67822265625
-55.84716796875
-50.35400390625
-53.1005859375
-50.35400390625
-48.52294921875
-47.607421875
-52.18505859375
-54.01611328125
-54.931640625
-53.1005859375
-54.931640625
-55.84716796875
-52.18505859375
-54.01611328125
-53.1005859375
-50.35400390625
-52.18505859375
-57.67822265625
-53.1005859375
-57.67822265625
-54.01611328125
-50.35400390625
-43.9453125
-43.9453125
-44.86083984375
-45.7763671875
-49.4384765625
-48.52294921875
-47.607421875
-45.7763671875
-38.4521484375
-43.9453125
-40.283203125
-37.53662109375
-40.283203125
-43.9453125
-43.02978515625
-41.19873046875
-47.607421875
-47.607421875
-44.86083984375
-44.86083984375
-36.62109375
-33.87451171875
-32.958984375
-35.70556640625
-34.7900390625
-40.283203125
-42.1142578125
-40.283203125
-41.19873046875
-45.7763671875
-43.9453125
-43.9453125
-41.19873046875
-42.1142578125
-42.1142578125
-41.19873046875
-47.607421875
-45.7763671875
-45.7763671875
-49.4384765625
-46.69189453125
-47.607421875
-47.607421875
-50.35400390625
-54.931640625
-55.84716796875
-58.59375
-56.7626953125
-56.7626953125
-55.84716796875
-53.1005859375
-54.931640625
-54.01611328125
-54.931640625
-54.01611328125
-53.1005859375
-52.18505859375
-54.01611328125
-56.7626953125
-59.50927734375
-59.50927734375
-58.59375
-54.01611328125
-60.4248046875
-60.4248046875
-61.34033203125
-65.91796875
-67.7490234375
-64.0869140625
-60.4248046875
-60.4248046875
-60.4248046875
-62.255859375
-60.4248046875
-61.34033203125
-59.50927734375
-64.0869140625
-69.580078125
-69.580078125
-63.17138671875
-60.4248046875
-65.91796875
-66.83349609375
-70.49560546875
-69.580078125
-72.32666015625
-73.2421875
-73.2421875
-71.4111328125
-70.49560546875
-70.49560546875
-70.49560546875
-69.580078125
-68.66455078125
-77.81982421875
-79.65087890625
-75.98876953125
-75.0732421875
-76.904296875
-74.15771484375
-73.2421875
-68.66455078125
-65.00244140625
-72.32666015625
-75.0732421875
-75.0732421875
-77.81982421875
-75.0732421875
-76.904296875
-77.81982421875
-70.49560546875
-68.66455078125
-68.66455078125
-67.7490234375
-72.32666015625
-75.98876953125
-74.15771484375
-75.0732421875
-72.32666015625
-75.0732421875
-69.580078125
-65.91796875
-65.91796875
-68.66455078125
-72.32666015625
-67.7490234375
-68.66455078125
-71.4111328125
-69.580078125
-70.49560546875
-65.91796875
-68.66455078125
-66.83349609375
-67.7490234375
-70.49560546875
-71.4111328125
-75.0732421875
-72.32666015625
-72.32666015625
-72.32666015625
-72.32666015625
-67.7490234375
-67.7490234375
-69.580078125
-69.580078125
-69.580078125
-74.15771484375
-72.32666015625
-67.7490234375
-66.83349609375
-74.15771484375
-75.98876953125
-74.15771484375
-72.32666015625
-82.3974609375
-76.904296875
-74.15771484375
-75.98876953125
-71.4111328125
-77.81982421875
-75.0732421875
-76.904296875
-71.4111328125
-68.66455078125
-72.32666015625
-73.2421875
-75.0732421875
-68.66455078125
-65.91796875
-66.83349609375
-62.255859375
-59.50927734375
-56.7626953125
-54.01611328125
-51.26953125
-51.26953125
-37.53662109375
-21.97265625
-18.310546875
-10.986328125
3.662109375
13.73291015625
27.4658203125
37.53662109375
51.26953125
64.0869140625
73.2421875
75.98876953125
61.34033203125
47.607421875
45.7763671875
46.69189453125
49.4384765625
55.84716796875
50.35400390625
48.52294921875
54.931640625
45.7763671875
33.87451171875
27.4658203125
21.97265625
13.73291015625
7.32421875
-4.57763671875
-19.22607421875
-29.296875
-36.62109375
-41.19873046875
-43.02978515625
-45.7763671875
-50.35400390625
-54.01611328125
-54.931640625
-55.84716796875
-55.84716796875
-58.59375
-62.255859375
-64.0869140625
-68.66455078125
-65.00244140625
-65.00244140625
-68.66455078125
-67.7490234375
-70.49560546875
-71.4111328125
-72.32666015625
-71.4111328125
-69.580078125
-71.4111328125
-70.49560546875
-76.904296875
-77.81982421875
-80.56640625
-83.31298828125
-78.7353515625
-61.34033203125
-35.70556640625
3.662109375
43.9453125
82.3974609375
130.0048828125
194.091796875
300.29296875
426.6357421875
564.88037109375
748.9013671875
948.486328125
1127.9296875
1284.48486328125
1444.7021484375
1589.35546875
1645.20263671875
1648.86474609375
1645.20263671875
1555.48095703125
1312.8662109375
1079.40673828125
872.49755859375
643.61572265625
371.7041015625
123.59619140625
29.296875
3.662109375
-23.8037109375
-43.9453125
-45.7763671875
-21.97265625
-3.662109375
21.05712890625
38.4521484375
38.4521484375
33.87451171875
22.88818359375
12.8173828125
0.91552734375
-4.57763671875
-12.8173828125
-10.986328125
-16.4794921875
-16.4794921875
-18.310546875
-23.8037109375
-24.71923828125
-21.97265625
-22.88818359375
-27.4658203125
-26.55029296875
-27.4658203125
-28.38134765625
-25.634765625
-24.71923828125
-24.71923828125
-22.88818359375
-23.8037109375
-23.8037109375
-24.71923828125
-26.55029296875
-22.88818359375
-21.97265625
-20.1416015625
-14.6484375
-15.56396484375
-10.07080078125
-10.986328125
-14.6484375
-12.8173828125
-11.90185546875
-9.1552734375
-6.40869140625
1.8310546875
4.57763671875
3.662109375
3.662109375
5.4931640625
10.07080078125
8.23974609375
6.40869140625
9.1552734375
10.07080078125
15.56396484375
18.310546875
23.8037109375
30.21240234375
30.21240234375
29.296875
32.04345703125
28.38134765625
26.55029296875
39.36767578125
46.69189453125
48.52294921875
49.4384765625
54.01611328125
54.01611328125
53.1005859375
54.01611328125
57.67822265625
61.34033203125
63.17138671875
66.83349609375
71.4111328125
79.65087890625
79.65087890625
77.81982421875
81.48193359375
89.7216796875
88.80615234375
86.0595703125
89.7216796875
99.79248046875
102.5390625
111.6943359375
117.1875
114.44091796875
114.44091796875
119.93408203125
122.6806640625
127.25830078125
128.173828125
136.41357421875
137.3291015625
138.24462890625
138.24462890625
138.24462890625
141.90673828125
143.73779296875
149.23095703125
147.39990234375
148.3154296875
152.89306640625
156.55517578125
153.80859375
150.146484375
153.80859375
156.55517578125
150.146484375
152.89306640625
152.89306640625
149.23095703125
152.89306640625
156.55517578125
155.6396484375
149.23095703125
144.6533203125
142.822265625
137.3291015625
130.92041015625
128.173828125
119.93408203125
113.525390625
105.28564453125
97.0458984375
92.46826171875
77.81982421875
69.580078125
62.255859375
49.4384765625
40.283203125
33.87451171875
21.05712890625
18.310546875
15.56396484375
8.23974609375
0.91552734375
-5.4931640625
-12.8173828125
-15.56396484375
-27.4658203125
-30.21240234375
-32.958984375
-35.70556640625
-34.7900390625
-39.36767578125
-49.4384765625
-44.86083984375
-46.69189453125
-51.26953125
-54.01611328125
-50.35400390625
-52.18505859375
-52.18505859375
-56.7626953125
-59.50927734375
-59.50927734375
-57.67822265625
-60.4248046875
-59.50927734375
-62.255859375
-59.50927734375
-55.84716796875
-54.931640625
-54.931640625
-54.01611328125
-58.59375
-58.59375
-55.84716796875
-57.67822265625
-53.1005859375
-54.931640625
-54.01611328125
-54.931640625
-54.931640625
-53.1005859375
-51.26953125
-54.01611328125
-53.1005859375
-52.18505859375
-53.1005859375
-53.1005859375
-54.931640625
-48.52294921875
-44.86083984375
-49.4384765625
-48.52294921875
-45.7763671875
-47.607421875
-51.26953125
-46.69189453125
-41.19873046875
-41.19873046875
-48.52294921875
-44.86083984375
-44.86083984375
-50.35400390625
-46.69189453125
-44.86083984375
-43.9453125
-43.9453125
-44.86083984375
-39.36767578125
-39.36767578125
-45.7763671875
-42.1142578125
-43.02978515625
-48.52294921875
-50.35400390625
-48.52294921875
-46.69189453125
-46.69189453125
-45.7763671875
-42.1142578125
-47.607421875
-49.4384765625
-46.69189453125
-44.86083984375
-46.69189453125
-48.52294921875
-44.86083984375
-45.7763671875
-43.9453125
-49.4384765625
-49.4384765625
-46.69189453125
-52.18505859375
-60.4248046875
-56.7626953125
-56.7626953125
-58.59375
-56.7626953125
-57.67822265625
-58.59375
-54.01611328125
-58.59375
-61.34033203125
-58.59375
-65.00244140625
-63.17138671875
-60.4248046875
-60.4248046875
-57.67822265625
-58.59375
-56.7626953125
-59.50927734375
-59.50927734375
-64.0869140625
-66.83349609375
-65.91796875
-63.17138671875
-67.7490234375
-65.91796875
-65.00244140625
-64.0869140625
-66.83349609375
-68.66455078125
-66.83349609375
-73.2421875
-71.4111328125
-69.580078125
-73.2421875
-75.0732421875
-74.15771484375
-65.00244140625
-62.255859375
-66.83349609375
-68.66455078125
-69.580078125
-73.2421875
-72.32666015625
-73.2421875
-70.49560546875
-70.49560546875
-71.4111328125
-68.66455078125
-66.83349609375
-69.580078125
-71.4111328125
-70.49560546875
-69.580078125
-69.580078125
-67.7490234375
-71.4111328125
-70.49560546875
-75.0732421875
-73.2421875
-73.2421875
-73.2421875
-73.2421875
-76.904296875
-78.7353515625
-72.32666015625
-68.66455078125
-66.83349609375
-74.15771484375
-76.904296875
-75.98876953125
-75.0732421875
-72.32666015625
-71.4111328125
-73.2421875
-76.904296875
-73.2421875
-69.580078125
-68.66455078125
-71.4111328125
-73.2421875
-80.56640625
-75.98876953125
-74.15771484375
-74.15771484375
-71.4111328125
-75.0732421875
-81.48193359375
-81.48193359375
-73.2421875
-72.32666015625
-75.98876953125
-76.904296875
-79.65087890625
-76.904296875
-78.7353515625
-76.904296875
-76.904296875
-75.98876953125
-72.32666015625
-75.0732421875
-75.98876953125
-77.81982421875
-79.65087890625
-80.56640625
-75.98876953125
-72.32666015625
-75.0732421875
-80.56640625
-82.3974609375
-75.0732421875
-79.65087890625
-82.3974609375
-81.48193359375
-77.81982421875
-75.98876953125
-75.98876953125
-79.65087890625
-75.0732421875
-69.580078125
-73.2421875
-70.49560546875
-65.91796875
-68.66455078125
-62.255859375
-55.84716796875
-47.607421875
-41.19873046875
-33.87451171875
-23.8037109375
-12.8173828125
3.662109375
19.22607421875
26.55029296875
38.4521484375
59.50927734375
70.49560546875
82.3974609375
76.904296875
60.4248046875
46.69189453125
43.9453125
47.607421875
53.1005859375
56.7626953125
59.50927734375
58.59375
58.59375
53.1005859375
47.607421875
36.62109375
21.05712890625
12.8173828125
0
-10.986328125
-24.71923828125
-31.1279296875
-35.70556640625
-40.283203125
-42.1142578125
-43.9453125
-50.35400390625
-55.84716796875
-54.931640625
-58.59375
-62.255859375
-57.67822265625
-58.59375
-64.0869140625
-66.83349609375
-69.580078125
-68.66455078125
-69.580078125
-69.580078125
-72.32666015625
-70.49560546875
-67.7490234375
-70.49560546875
-72.32666015625
-66.83349609375
-68.66455078125
-72.32666015625
-82.3974609375
-89.7216796875
-86.0595703125
-72.32666015625
-54.01611328125
-22.88818359375
20.1416015625
52.18505859375
89.7216796875
137.3291015625
214.2333984375
326.84326171875
457.763671875
601.50146484375
780.029296875
979.6142578125
1157.2265625
1309.2041015625
1475.830078125
1610.41259765625
1651.611328125
1649.7802734375
1637.87841796875
1518.85986328125
1268.00537109375
1040.0390625
836.7919921875
604.248046875
330.50537109375
112.60986328125
46.69189453125
22.88818359375
-4.57763671875
-32.958984375
-40.283203125
-19.22607421875
1.8310546875
21.97265625
47.607421875
43.9453125
34.7900390625
30.21240234375
21.97265625
12.8173828125
6.40869140625
0.91552734375
-1.8310546875
-9.1552734375
-9.1552734375
-13.73291015625
-15.56396484375
-19.22607421875
-17.39501953125
-20.1416015625
-15.56396484375
-14.6484375
-18.310546875
-21.05712890625
-21.05712890625
-27.4658203125
-21.97265625
-18.310546875
-18.310546875
-16.4794921875
-20.1416015625
-13.73291015625
-9.1552734375
-14.6484375
-11.90185546875
-10.07080078125
-13.73291015625
-10.986328125
-9.1552734375
-0.91552734375
-2.74658203125
4.57763671875
2.74658203125
4.57763671875
6.40869140625
8.23974609375
9.1552734375
10.07080078125
12.8173828125
14.6484375
18.310546875
18.310546875
23.8037109375
22.88818359375
21.97265625
26.55029296875
28.38134765625
33.87451171875
40.283203125
38.4521484375
40.283203125
42.1142578125
48.52294921875
49.4384765625
52.18505859375
52.18505859375
54.01611328125
54.01611328125
58.59375
61.34033203125
67.7490234375
69.580078125
71.4111328125
78.7353515625
78.7353515625
77.81982421875
78.7353515625
83.31298828125
85.14404296875
87.890625
92.46826171875
94.29931640625
100.7080078125
96.13037109375
100.7080078125
108.94775390625
108.94775390625
109.86328125
114.44091796875
118.10302734375
123.59619140625
126.3427734375
122.6806640625
126.3427734375
136.41357421875
139.16015625
133.6669921875
135.498046875
138.24462890625
150.146484375
154.72412109375
155.6396484375
152.89306640625
155.6396484375
153.80859375
151.06201171875
152.89306640625
151.9775390625
150.146484375
153.80859375
151.9775390625
156.55517578125
161.1328125
155.6396484375
153.80859375
152.89306640625
150.146484375
148.3154296875
149.23095703125
146.484375
139.16015625
130.92041015625
127.25830078125
128.173828125
114.44091796875
107.11669921875
97.96142578125
86.0595703125
80.56640625
72.32666015625
63.17138671875
54.931640625
40.283203125
37.53662109375
32.958984375
21.97265625
10.986328125
11.90185546875
3.662109375
2.74658203125
-2.74658203125
-9.1552734375
-18.310546875
-22.88818359375
-22.88818359375
-26.55029296875
-27.4658203125
-29.296875
-39.36767578125
-34.7900390625
-35.70556640625
-33.87451171875
-38.4521484375
-43.02978515625
-43.02978515625
-45.7763671875
-46.69189453125
-43.02978515625
-38.4521484375
-43.02978515625
-44.86083984375
-42.1142578125
-39.36767578125
-43.02978515625
-43.02978515625
-45.7763671875
-42.1142578125
-44.86083984375
-45.7763671875
-42.1142578125
-37.53662109375
-41.19873046875
-36.62109375
-42.1142578125
-42.1142578125
-37.53662109375
-39.36767578125
-38.4521484375
-34.7900390625
-35.70556640625
-36.62109375
-36.62109375
-33.87451171875
-35.70556640625
-38.4521484375
-31.1279296875
-31.1279296875
-32.04345703125
-29.296875
-30.21240234375
-26.55029296875
-22.88818359375
-21.97265625
-21.05712890625
-26.55029296875
-32.04345703125
-33.87451171875
-32.04345703125
-26.55029296875
-29.296875
-32.04345703125
-25.634765625
-25.634765625
-21.97265625
-21.05712890625
-25.634765625
-29.296875
-28.38134765625
-30.21240234375
-28.38134765625
-28.38134765625
-29.296875
-35.70556640625
-28.38134765625
-29.296875
-32.04345703125
-33.87451171875
-31.1279296875
-37.53662109375
-36.62109375
-33.87451171875
-38.4521484375
-34.7900390625
-35.70556640625
-42.1142578125
-39.36767578125
-45.7763671875
-45.7763671875
-45.7763671875
-39.36767578125
-36.62109375
-46.69189453125
-44.86083984375
-43.02978515625
-43.02978515625
-57.67822265625
-54.931640625
-56.7626953125
-58.59375
-54.01611328125
-56.7626953125
-51.26953125
-59.50927734375
-54.931640625
-54.931640625
-51.26953125
-49.4384765625
-54.931640625
-53.1005859375
-51.26953125
-53.1005859375
-52.18505859375
-52.18505859375
-50.35400390625
-47.607421875
-50.35400390625
-51.26953125
-53.1005859375
-48.52294921875
-53.1005859375
-49.4384765625
-44.86083984375
-49.4384765625
-52.18505859375
-54.931640625
-57.67822265625
-56.7626953125
-55.84716796875
-54.931640625
-54.931640625
-56.7626953125
-55.84716796875
-58.59375
-57.67822265625
-55.84716796875
-59.50927734375
-59.50927734375
-57.67822265625
-55.84716796875
-55.84716796875
-54.931640625
-52.18505859375
-54.931640625
-59.50927734375
-59.50927734375
-63.17138671875
-58.59375
-56.7626953125
-60.4248046875
-59.50927734375
-57.67822265625
-55.84716796875
-55.84716796875
-62.255859375
-54.931640625
-59.50927734375
-58.59375
-60.4248046875
-60.4248046875
-63.17138671875
-60.4248046875
-58.59375
-56.7626953125
-57.67822265625
-56.7626953125
-63.17138671875
-60.4248046875
-54.931640625
-48.52294921875
-49.4384765625
-48.52294921875
-52.18505859375
-56.7626953125
-55.84716796875
-58.59375
-58.59375
-57.67822265625
-55.84716796875
-58.59375
-59.50927734375
-55.84716796875
-63.17138671875
-64.0869140625
-60.4248046875
-57.67822265625
-59.50927734375
-57.67822265625
-58.59375
-61.34033203125
-60.4248046875
-61.34033203125
-59.50927734375
-54.01611328125
-59.50927734375
-59.50927734375
-57.67822265625
-57.67822265625
-60.4248046875
-61.34033203125
-59.50927734375
-55.84716796875
-55.84716796875
-59.50927734375
-64.0869140625
-61.34033203125
-56.7626953125
-59.50927734375
-54.931640625
-50.35400390625
-51.26953125
-46.69189453125
-45.7763671875
-35.70556640625
-38.4521484375
-39.36767578125
-29.296875
-18.310546875
-5.4931640625
5.4931640625
16.4794921875
34.7900390625
47.607421875
54.931640625
69.580078125
85.14404296875
93.3837890625
84.228515625
71.4111328125
66.83349609375
61.34033203125
66.83349609375
75.0732421875
78.7353515625
75.0732421875
73.2421875
72.32666015625
65.91796875
59.50927734375
52.18505859375
38.4521484375
28.38134765625
20.1416015625
7.32421875
-10.07080078125
-16.4794921875
-20.1416015625
-25.634765625
-29.296875
-30.21240234375
-32.958984375
-30.21240234375
-31.1279296875
-36.62109375
-43.9453125
-51.26953125
-52.18505859375
-49.4384765625
-50.35400390625
-49.4384765625
-45.7763671875
-47.607421875
-47.607421875
-49.4384765625
-49.4384765625
-53.1005859375
-58.59375
-57.67822265625
-52.18505859375
-49.4384765625
-51.26953125
-57.67822265625
-65.91796875
-58.59375
-36.62109375
-15.56396484375
16.4794921875
54.01611328125
93.3837890625
130.0048828125
181.2744140625
272.8271484375
390.93017578125
506.28662109375
646.3623046875
843.20068359375
1032.71484375
1182.861328125
1330.26123046875
1506.04248046875
1605.8349609375
1635.1318359375
1642.4560546875
1628.72314453125
1469.42138671875
1215.8203125
1002.50244140625
804.74853515625
585.9375
333.251953125
169.37255859375
108.0322265625
65.91796875
21.05712890625
-17.39501953125
-43.02978515625
-25.634765625
-7.32421875
16.4794921875
40.283203125
55.84716796875
55.84716796875
43.9453125
32.958984375
24.71923828125
12.8173828125
7.32421875
5.4931640625
0.91552734375
0.91552734375
5.4931640625
-0.91552734375
-3.662109375
-3.662109375
-9.1552734375
-9.1552734375
-6.40869140625
-10.986328125
-10.07080078125
-6.40869140625
-9.1552734375
-11.90185546875
-10.07080078125
-6.40869140625
-6.40869140625
-8.23974609375
-10.986328125
-8.23974609375
-4.57763671875
-2.74658203125
-6.40869140625
3.662109375
8.23974609375
6.40869140625
4.57763671875
6.40869140625
9.1552734375
13.73291015625
14.6484375
19.22607421875
21.97265625
21.97265625
20.1416015625
20.1416015625
24.71923828125
29.296875
28.38134765625
33.87451171875
38.4521484375
33.87451171875
36.62109375
42.1142578125
47.607421875
47.607421875
48.52294921875
47.607421875
46.69189453125
54.01611328125
55.84716796875
58.59375
61.34033203125
64.0869140625
70.49560546875
73.2421875
72.32666015625
73.2421875
68.66455078125
78.7353515625
75.98876953125
78.7353515625
88.80615234375
90.63720703125
92.46826171875
97.96142578125
101.62353515625
105.28564453125
106.201171875
107.11669921875
108.94775390625
113.525390625
118.10302734375
119.0185546875
122.6806640625
135.498046875
133.6669921875
130.0048828125
136.41357421875
136.41357421875
136.41357421875
142.822265625
146.484375
151.9775390625
154.72412109375
152.89306640625
156.55517578125
157.470703125
155.6396484375
153.80859375
152.89306640625
153.80859375
155.6396484375
159.3017578125
158.38623046875
153.80859375
149.23095703125
151.9775390625
157.470703125
151.06201171875
147.39990234375
152.89306640625
149.23095703125
144.6533203125
137.3291015625
143.73779296875
139.16015625
130.92041015625
132.75146484375
126.3427734375
115.3564453125
105.28564453125
103.45458984375
99.79248046875
86.97509765625
80.56640625
74.15771484375
64.0869140625
54.931640625
48.52294921875
42.1142578125
37.53662109375
32.04345703125
26.55029296875
21.05712890625
11.90185546875
10.07080078125
5.4931640625
-0.91552734375
-4.57763671875
-6.40869140625
-8.23974609375
-12.8173828125
-15.56396484375
-14.6484375
-15.56396484375
-22.88818359375
-26.55029296875
-23.8037109375
-21.97265625
-23.8037109375
-26.55029296875
-23.8037109375
-28.38134765625
-26.55029296875
-25.634765625
-27.4658203125
-29.296875
-34.7900390625
-34.7900390625
-31.1279296875
-28.38134765625
-30.21240234375
-26.55029296875
-31.1279296875
-29.296875
-25.634765625
-28.38134765625
-28.38134765625
-28.38134765625
-32.04345703125
-28.38134765625
-29.296875
-28.38134765625
-27.4658203125
-22.88818359375
-23.8037109375
-26.55029296875
-24.71923828125
-25.634765625
-21.97265625
-22.88818359375
-24.71923828125
-19.22607421875
-20.1416015625
-25.634765625
-23.8037109375
-23.8037109375
-26.55029296875
-30.21240234375
-25.634765625
-23.8037109375
-21.97265625
-27.4658203125
-26.55029296875
-22.88818359375
-21.97265625
-23.8037109375
-28.38134765625
-26.55029296875
-23.8037109375
-21.05712890625
-27.4658203125
-23.8037109375
-23.8037109375
-23.8037109375
-21.97265625
-22.88818359375
-25.634765625
-23.8037109375
-24.71923828125
-25.634765625
-27.4658203125
-28.38134765625
-24.71923828125
-27.4658203125
-27.4658203125
-31.1279296875
-30.21240234375
-27.4658203125
-34.7900390625
-34.7900390625
-31.1279296875
-30.21240234375
-32.958984375
-34.7900390625
-38.4521484375
-34.7900390625
-35.70556640625
-35.70556640625
-34.7900390625
-42.1142578125
-43.9453125
-41.19873046875
-38.4521484375
-37.53662109375
-41.19873046875
-44.86083984375
-42.1142578125
-43.02978515625
-42.1142578125
-48.52294921875
-48.52294921875
-44.86083984375
-47.607421875
-49.4384765625
-50.35400390625
-50.35400390625
-50.35400390625
-47.607421875
-52.18505859375
-51.26953125
-52.18505859375
-52.18505859375
-50.35400390625
-54.01611328125
-55.84716796875
-56.7626953125
-61.34033203125
-62.255859375
-55.84716796875
-54.01611328125
-57.67822265625
-57.67822265625
-56.7626953125
-60.4248046875
-59.50927734375
-55.84716796875
-57.67822265625
-54.01611328125
-58.59375
-64.0869140625
-60.4248046875
-53.1005859375
-54.931640625
-55.84716796875
-57.67822265625
-57.67822265625
-58.59375
-61.34033203125
-59.50927734375
-56.7626953125
-56.7626953125
-56.7626953125
-58.59375
-63.17138671875
-60.4248046875
-59.50927734375
-66.83349609375
-65.91796875
-63.17138671875
-65.91796875
-65.00244140625
-65.91796875
-65.91796875
-66.83349609375
-67.7490234375
-69.580078125
-70.49560546875
-64.0869140625
-65.91796875
-66.83349609375
-63.17138671875
-65.91796875
-64.0869140625
-65.00244140625
-69.580078125
-69.580078125
-65.91796875
-72.32666015625
-68.66455078125
-61.34033203125
-63.17138671875
-57.67822265625
-57.67822265625
-61.34033203125
-60.4248046875
-59.50927734375
-61.34033203125
-61.34033203125
-60.4248046875
-65.91796875
-67.7490234375
-63.17138671875
-61.34033203125
-59.50927734375
-62.255859375
-61.34033203125
-67.7490234375
-65.91796875
-62.255859375
-64.0869140625
-64.0869140625
-61.34033203125
-65.00244140625
-65.91796875
-61.34033203125
-67.7490234375
-73.2421875
-67.7490234375
-62.255859375
-66.83349609375
-67.7490234375
-65.91796875
-66.83349609375
-67.7490234375
-68.66455078125
-67.7490234375
-63.17138671875
-66.83349609375
-69.580078125
-66.83349609375
-66.83349609375
-62.255859375
-55.84716796875
-53.1005859375
-51.26953125
-54.931640625
-56.7626953125
-51.26953125
-35.70556640625
-23.8037109375
-12.8173828125
0
17.39501953125
28.38134765625
35.70556640625
49.4384765625
66.83349609375
75.98876953125
79.65087890625
68.66455078125
53.1005859375
43.02978515625
46.69189453125
54.931640625
60.4248046875
65.91796875
65.91796875
62.255859375
52.18505859375
45.7763671875
37.53662109375
30.21240234375
21.97265625
10.986328125
-7.32421875
-18.310546875
-29.296875
-41.19873046875
-43.02978515625
-41.19873046875
-40.283203125
-41.19873046875
-48.52294921875
-52.18505859375
-55.84716796875
-58.59375
-59.50927734375
-63.17138671875
-65.91796875
-65.00244140625
-60.4248046875
-64.0869140625
-68.66455078125
-65.00244140625
-67.7490234375
-72.32666015625
-71.4111328125
-75.0732421875
-73.2421875
-69.580078125
-69.580078125
-71.4111328125
-80.56640625
-89.7216796875
-78.7353515625
-61.34033203125
-39.36767578125
-3.662109375
38.4521484375
72.32666015625
117.1875
172.119140625
271.91162109375
394.59228515625
519.10400390625
681.15234375
879.82177734375
1062.92724609375
1217.6513671875
1379.69970703125
1542.66357421875
1620.4833984375
1636.962890625
1639.70947265625
1603.08837890625
1417.236328125
1170.0439453125
951.23291015625
738.83056640625
499.8779296875
236.2060546875
86.0595703125
42.1142578125
13.73291015625
-23.8037109375
-44.86083984375
-48.52294921875
-21.97265625
0
26.55029296875
43.02978515625
35.70556640625
29.296875
22.88818359375
9.1552734375
0
-4.57763671875
-9.1552734375
-13.73291015625
-19.22607421875
-21.05712890625
-21.97265625
-26.55029296875
-25.634765625
-28.38134765625
-29.296875
-31.1279296875
-29.296875
-28.38134765625
-30.21240234375
-26.55029296875
-22.88818359375
-21.97265625
-22.88818359375
-25.634765625
-22.88818359375
-19.22607421875
-17.39501953125
-20.1416015625
-16.4794921875
-13.73291015625
-14.6484375
-11.90185546875
-13.73291015625
-18.310546875
-9.1552734375
-5.4931640625
-8.23974609375
-3.662109375
3.662109375
7.32421875
3.662109375
7.32421875
11.90185546875
10.07080078125
10.986328125
14.6484375
17.39501953125
19.22607421875
25.634765625
23.8037109375
22.88818359375
28.38134765625
30.21240234375
29.296875
27.4658203125
38.4521484375
43.02978515625
43.02978515625
41.19873046875
47.607421875
52.18505859375
53.1005859375
55.84716796875
55.84716796875
57.67822265625
54.931640625
54.931640625
60.4248046875
66.83349609375
67.7490234375
71.4111328125
74.15771484375
73.2421875
74.15771484375
83.31298828125
84.228515625
85.14404296875
92.46826171875
97.0458984375
100.7080078125
100.7080078125
108.0322265625
109.86328125
106.201171875
112.60986328125
111.6943359375
118.10302734375
122.6806640625
123.59619140625
128.173828125
128.173828125
130.92041015625
135.498046875
135.498046875
133.6669921875
134.58251953125
139.16015625
135.498046875
140.9912109375
140.07568359375
143.73779296875
139.16015625
140.9912109375
140.9912109375
139.16015625
138.24462890625
136.41357421875
138.24462890625
140.07568359375
139.16015625
130.0048828125
130.92041015625
127.25830078125
130.0048828125
126.3427734375
117.1875
114.44091796875
114.44091796875
108.94775390625
99.79248046875
92.46826171875
83.31298828125
75.98876953125
67.7490234375
59.50927734375
48.52294921875
43.9453125
35.70556640625
26.55029296875
18.310546875
14.6484375
9.1552734375
7.32421875
6.40869140625
-4.57763671875
-11.90185546875
-12.8173828125
-19.22607421875
-22.88818359375
-25.634765625
-28.38134765625
-27.4658203125
-26.55029296875
-37.53662109375
-36.62109375
-38.4521484375
-41.19873046875
-45.7763671875
-41.19873046875
-39.36767578125
-42.1142578125
-41.19873046875
-42.1142578125
-46.69189453125
-48.52294921875
-44.86083984375
-47.607421875
-43.9453125
-44.86083984375
-46.69189453125
-41.19873046875
-42.1142578125
-43.02978515625
-48.52294921875
-46.69189453125
-46.69189453125
-44.86083984375
-42.1142578125
-43.02978515625
-43.9453125
-43.02978515625
-39.36767578125
-43.9453125
-37.53662109375
-40.283203125
-39.36767578125
-38.4521484375
-38.4521484375
-40.283203125
-32.958984375
-32.958984375
-35.70556640625
-30.21240234375
-32.04345703125
-34.7900390625
-41.19873046875
-42.1142578125
-39.36767578125
-38.4521484375
-34.7900390625
-31.1279296875
-30.21240234375
-31.1279296875
-34.7900390625
-32.958984375
-32.958984375
-32.958984375
-30.21240234375
-31.1279296875
-32.958984375
-34.7900390625
-31.1279296875
-35.70556640625
-39.36767578125
-38.4521484375
-38.4521484375
-42.1142578125
-41.19873046875
-43.02978515625
-41.19873046875
-38.4521484375
-42.1142578125
-41.19873046875
-43.9453125
-47.607421875
-43.02978515625
-42.1142578125
-45.7763671875
-45.7763671875
-49.4384765625
-50.35400390625
-50.35400390625
-50.35400390625
-50.35400390625
-49.4384765625
-55.84716796875
-54.931640625
-53.1005859375
-54.931640625
-57.67822265625
-55.84716796875
-58.59375
-60.4248046875
-63.17138671875
-61.34033203125
-56.7626953125
-55.84716796875
-57.67822265625
-55.84716796875
-54.01611328125
-53.1005859375
-57.67822265625
-61.34033203125
-59.50927734375
-56.7626953125
-58.59375
-57.67822265625
-59.50927734375
-60.4248046875
-59.50927734375
-57.67822265625
-62.255859375
-62.255859375
-63.17138671875
-62.255859375
-65.91796875
-66.83349609375
-65.91796875
-64.0869140625
-62.255859375
-62.255859375
-59.50927734375
-62.255859375
-63.17138671875
-65.91796875
-64.0869140625
-65.00244140625
-60.4248046875
-59.50927734375
-62.255859375
-63.17138671875
-59.50927734375
-57.67822265625
-64.0869140625
-65.00244140625
-65.00244140625
-63.17138671875
-65.91796875
-64.0869140625
-61.34033203125
-65.91796875
-64.0869140625
-63.17138671875
-65.00244140625
-65.91796875
-65.00244140625
-59.50927734375
