ECG
27.4658203125
28.38134765625
33.87451171875
29.296875
30.21240234375
33.87451171875
40.283203125
45.7763671875
54.931640625
54.01611328125
57.67822265625
60.4248046875
64.0869140625
65.91796875
69.580078125
70.49560546875
78.7353515625
76.904296875
80.56640625
75.98876953125
74.15771484375
79.65087890625
86.0595703125
84.228515625
87.890625
102.5390625
97.0458984375
99.79248046875
104.3701171875
106.201171875
110.77880859375
113.525390625
116.27197265625
117.1875
117.1875
125.42724609375
124.51171875
129.08935546875
131.8359375
130.92041015625
131.8359375
133.6669921875
140.07568359375
138.24462890625
134.58251953125
136.41357421875
136.41357421875
140.9912109375
145.56884765625
148.3154296875
146.484375
140.07568359375
140.07568359375
143.73779296875
136.41357421875
130.0048828125
133.6669921875
135.498046875
138.24462890625
130.0048828125
134.58251953125
130.0048828125
132.75146484375
126.3427734375
115.3564453125
115.3564453125
106.201171875
104.3701171875
96.13037109375
93.3837890625
87.890625
81.48193359375
70.49560546875
62.255859375
55.84716796875
43.9453125
36.62109375
29.296875
22.88818359375
17.39501953125
13.73291015625
0.91552734375
-5.4931640625
-9.1552734375
-10.986328125
-16.4794921875
-31.1279296875
-29.296875
-23.8037109375
-32.04345703125
-40.283203125
-47.607421875
-42.1142578125
-39.36767578125
-40.283203125
-45.7763671875
-48.52294921875
-52.18505859375
-53.1005859375
-49.4384765625
-54.01611328125
-50.35400390625
-48.52294921875
-49.4384765625
-49.4384765625
-53.1005859375
-54.931640625
-54.01611328125
-59.50927734375
-54.01611328125
-50.35400390625
-48.52294921875
-44.86083984375
-48.52294921875
-51.26953125
-52.18505859375
-51.26953125
-51.26953125
-49.4384765625
-51.26953125
-48.52294921875
-48.52294921875
-51.26953125
-48.52294921875
-49.4384765625
-38.4521484375
-42.1142578125
-43.02978515625
-40.283203125
-37.53662109375
-43.9453125
-39.36767578125
-45.7763671875
-41.19873046875
-36.62109375
-36.62109375
-36.62109375
-41.19873046875
-42.1142578125
-43.9453125
-43.9453125
-40.283203125
-32.958984375
-36.62109375
-44.86083984375
-45.7763671875
-42.1142578125
-32.958984375
-43.9453125
-43.02978515625
-35.70556640625
-43.02978515625
-41.19873046875
-39.36767578125
-33.87451171875
-44.86083984375
-43.02978515625
-42.1142578125
-41.19873046875
-41.19873046875
-42.1142578125
-38.4521484375
-36.62109375
-40.283203125
-41.19873046875
-42.1142578125
-49.4384765625
-46.69189453125
-42.1142578125
-46.69189453125
-43.02978515625
-42.1142578125
-50.35400390625
-53.1005859375
-54.931640625
-46.69189453125
-53.1005859375
-57.67822265625
-62.255859375
-61.34033203125
-53.1005859375
-61.34033203125
-54.931640625
-58.59375
-62.255859375
-55.84716796875
-55.84716796875
-63.17138671875
-59.50927734375
-62.255859375
-62.255859375
-65.00244140625
-64.0869140625
-63.17138671875
-65.91796875
-67.7490234375
-54.01611328125
-54.931640625
-65.00244140625
-63.17138671875
-57.67822265625
-63.17138671875
-65.00244140625
-65.91796875
-63.17138671875
-65.91796875
-71.4111328125
-67.7490234375
-67.7490234375
-68.66455078125
-66.83349609375
-67.7490234375
-72.32666015625
-65.00244140625
-70.49560546875
-68.66455078125
-71.4111328125
-69.580078125
-72.32666015625
-72.32666015625
-73.2421875
-65.91796875
-60.4248046875
-68.66455078125
-75.98876953125
-83.31298828125
-87.890625
-79.65087890625
-72.32666015625
-67.7490234375
-71.4111328125
-69.580078125
-75.0732421875
-75.0732421875
-74.15771484375
-75.0732421875
-75.98876953125
-77.81982421875
-75.98876953125
-72.32666015625
-75.0732421875
-74.15771484375
-76.904296875
-76.904296875
-71.4111328125
-74.15771484375
-75.0732421875
-72.32666015625
-75.98876953125
-78.7353515625
-80.56640625
-77.81982421875
-83.31298828125
-78.7353515625
-75.98876953125
-87.890625
-94.29931640625
-81.48193359375
-70.49560546875
-75.98876953125
-74.15771484375
-72.32666015625
-70.49560546875
-70.49560546875
-75.98876953125
-82.3974609375
-74.15771484375
-75.0732421875
-65.91796875
-65.91796875
-69.580078125
-67.7490234375
-73.2421875
-73.2421875
-75.98876953125
-75.0732421875
-75.98876953125
-75.0732421875
-79.65087890625
-83.31298828125
-84.228515625
-82.3974609375
-82.3974609375
-77.81982421875
-71.4111328125
-68.66455078125
-65.00244140625
-54.931640625
-52.18505859375
-54.01611328125
-46.69189453125
-35.70556640625
-36.62109375
-30.21240234375
-27.4658203125
-10.07080078125
0.91552734375
11.90185546875
23.8037109375
34.7900390625
54.01611328125
65.91796875
75.0732421875
81.48193359375
68.66455078125
54.931640625
42.1142578125
43.02978515625
51.26953125
57.67822265625
64.0869140625
63.17138671875
55.84716796875
50.35400390625
33.87451171875
26.55029296875
19.22607421875
13.73291015625
8.23974609375
-3.662109375
-15.56396484375
-32.958984375
-39.36767578125
-43.9453125
-43.02978515625
-46.69189453125
-47.607421875
-41.19873046875
-43.9453125
-59.50927734375
-62.255859375
-63.17138671875
-65.00244140625
-70.49560546875
-71.4111328125
-72.32666015625
-69.580078125
-68.66455078125
-72.32666015625
-68.66455078125
-75.98876953125
-73.2421875
-71.4111328125
-66.83349609375
-65.00244140625
-72.32666015625
-78.7353515625
-89.7216796875
-70.49560546875
-54.01611328125
-35.70556640625
-9.1552734375
34.7900390625
56.7626953125
92.46826171875
142.822265625
232.5439453125
353.3935546875
492.5537109375
644.53125
838.623046875
1028.13720703125
1182.861328125
1336.669921875
1496.88720703125
1617.73681640625
1634.21630859375
1626.89208984375
1610.41259765625
1452.94189453125
1188.3544921875
972.2900390625
782.77587890625
549.31640625
279.23583984375
91.552734375
27.4658203125
1.8310546875
-35.70556640625
-54.931640625
-60.4248046875
-33.87451171875
-11.90185546875
16.4794921875
34.7900390625
32.958984375
30.21240234375
21.97265625
13.73291015625
1.8310546875
-3.662109375
-10.07080078125
-15.56396484375
-15.56396484375
-18.310546875
-15.56396484375
-21.97265625
-24.71923828125
-22.88818359375
-29.296875
-25.634765625
-26.55029296875
-30.21240234375
-25.634765625
-28.38134765625
-25.634765625
-19.22607421875
-27.4658203125
-33.87451171875
-27.4658203125
-25.634765625
-22.88818359375
-18.310546875
-13.73291015625
-12.8173828125
-10.07080078125
-10.986328125
-15.56396484375
-17.39501953125
-16.4794921875
-5.4931640625
-4.57763671875
1.8310546875
2.74658203125
5.4931640625
6.40869140625
-1.8310546875
3.662109375
10.07080078125
13.73291015625
16.4794921875
21.05712890625
24.71923828125
25.634765625
27.4658203125
29.296875
31.1279296875
31.1279296875
42.1142578125
41.19873046875
40.283203125
48.52294921875
48.52294921875
50.35400390625
51.26953125
59.50927734375
59.50927734375
57.67822265625
63.17138671875
57.67822265625
63.17138671875
68.66455078125
74.15771484375
75.0732421875
72.32666015625
65.91796875
71.4111328125
75.0732421875
75.98876953125
86.97509765625
97.0458984375
101.62353515625
96.13037109375
96.13037109375
100.7080078125
112.60986328125
112.60986328125
105.28564453125
108.94775390625
111.6943359375
125.42724609375
130.92041015625
133.6669921875
140.07568359375
136.41357421875
130.92041015625
140.07568359375
137.3291015625
144.6533203125
150.146484375
149.23095703125
158.38623046875
153.80859375
160.21728515625
153.80859375
153.80859375
157.470703125
155.6396484375
162.9638671875
160.21728515625
155.6396484375
160.21728515625
156.55517578125
154.72412109375
148.3154296875
143.73779296875
145.56884765625
140.9912109375
141.90673828125
141.90673828125
128.173828125
127.25830078125
121.76513671875
109.86328125
98.876953125
83.31298828125
76.904296875
70.49560546875
61.34033203125
51.26953125
50.35400390625
46.69189453125
35.70556640625
16.4794921875
2.74658203125
0.91552734375
8.23974609375
2.74658203125
-5.4931640625
-21.05712890625
-33.87451171875
-32.04345703125
-32.04345703125
-36.62109375
-26.55029296875
-28.38134765625
-37.53662109375
-44.86083984375
-37.53662109375
-40.283203125
-48.52294921875
-48.52294921875
-53.1005859375
-53.1005859375
-48.52294921875
-53.1005859375
-63.17138671875
-58.59375
-52.18505859375
-45.7763671875
-51.26953125
-53.1005859375
-56.7626953125
-61.34033203125
-56.7626953125
-55.84716796875
-55.84716796875
-54.931640625
-57.67822265625
-63.17138671875
-63.17138671875
-51.26953125
-54.01611328125
-56.7626953125
-56.7626953125
-55.84716796875
-57.67822265625
-53.1005859375
-52.18505859375
-49.4384765625
-45.7763671875
-49.4384765625
-52.18505859375
-54.01611328125
-43.9453125
-48.52294921875
-54.01611328125
-63.17138671875
-54.931640625
-54.01611328125
-41.19873046875
-48.52294921875
-51.26953125
-48.52294921875
-43.02978515625
-41.19873046875
-44.86083984375
-40.283203125
-43.9453125
-45.7763671875
-48.52294921875
-37.53662109375
-32.958984375
-32.04345703125
-20.1416015625
-19.22607421875
-21.97265625
-18.310546875
-9.1552734375
-15.56396484375
-20.1416015625
-25.634765625
-29.296875
-32.958984375
-31.1279296875
-25.634765625
-21.97265625
-21.05712890625
-17.39501953125
-19.22607421875
-23.8037109375
-26.55029296875
-30.21240234375
-31.1279296875
-31.1279296875
-37.53662109375
-36.62109375
-37.53662109375
-32.04345703125
-34.7900390625
-35.70556640625
-41.19873046875
-49.4384765625
-47.607421875
-48.52294921875
-52.18505859375
-52.18505859375
-50.35400390625
-45.7763671875
-46.69189453125
-46.69189453125
-43.02978515625
-49.4384765625
-55.84716796875
-56.7626953125
-56.7626953125
-51.26953125
-50.35400390625
-51.26953125
-54.01611328125
-58.59375
-59.50927734375
-56.7626953125
-54.01611328125
-58.59375
-60.4248046875
-63.17138671875
-61.34033203125
-65.91796875
-62.255859375
-62.255859375
-58.59375
-54.931640625
-49.4384765625
-55.84716796875
-59.50927734375
-63.17138671875
-52.18505859375
-54.931640625
-62.255859375
-64.0869140625
-58.59375
-62.255859375
-66.83349609375
-67.7490234375
-68.66455078125
-66.83349609375
-70.49560546875
-71.4111328125
-71.4111328125
-67.7490234375
-71.4111328125
-65.91796875
-60.4248046875
-63.17138671875
-73.2421875
-76.904296875
-77.81982421875
-82.3974609375
-68.66455078125
-74.15771484375
-71.4111328125
-71.4111328125
-63.17138671875
-72.32666015625
-71.4111328125
-67.7490234375
-63.17138671875
-65.00244140625
-64.0869140625
-63.17138671875
-75.0732421875
-76.904296875
-77.81982421875
-78.7353515625
-68.66455078125
-67.7490234375
-67.7490234375
-76.904296875
-67.7490234375
-64.0869140625
-65.91796875
-74.15771484375
-81.48193359375
-70.49560546875
-68.66455078125
-74.15771484375
-69.580078125
-72.32666015625
-65.00244140625
-69.580078125
-73.2421875
-70.49560546875
-71.4111328125
-72.32666015625
-79.65087890625
-70.49560546875
-67.7490234375
-67.7490234375
-68.66455078125
-73.2421875
-70.49560546875
-65.91796875
-69.580078125
-72.32666015625
-68.66455078125
-74.15771484375
-67.7490234375
-75.0732421875
-68.66455078125
-61.34033203125
-58.59375
-54.931640625
-59.50927734375
-57.67822265625
-57.67822265625
-50.35400390625
-29.296875
-14.6484375
-7.32421875
0.91552734375
20.1416015625
33.87451171875
44.86083984375
60.4248046875
68.66455078125
73.2421875
66.83349609375
53.1005859375
45.7763671875
43.9453125
50.35400390625
58.59375
57.67822265625
57.67822265625
60.4248046875
56.7626953125
49.4384765625
42.1142578125
30.21240234375
19.22607421875
11.90185546875
-9.1552734375
-18.310546875
-36.62109375
-37.53662109375
-42.1142578125
-46.69189453125
-41.19873046875
-49.4384765625
-50.35400390625
-60.4248046875
-62.255859375
-65.91796875
-66.83349609375
-72.32666015625
-75.98876953125
-70.49560546875
-63.17138671875
-65.91796875
-70.49560546875
-69.580078125
-69.580078125
-74.15771484375
-79.65087890625
-83.31298828125
-76.904296875
-75.98876953125
-75.98876953125
-77.81982421875
-84.228515625
-92.46826171875
-84.228515625
-77.81982421875
-59.50927734375
-21.97265625
21.05712890625
55.84716796875
108.0322265625
158.38623046875
249.93896484375
364.3798828125
498.046875
649.10888671875
840.4541015625
1034.5458984375
1198.42529296875
1357.72705078125
1513.36669921875
1620.4833984375
1637.87841796875
1636.962890625
1590.27099609375
1401.67236328125
1138.00048828125
926.513671875
715.9423828125
475.15869140625
214.2333984375
59.50927734375
19.22607421875
0
-23.8037109375
-48.52294921875
-45.7763671875
-27.4658203125
0.91552734375
23.8037109375
33.87451171875
29.296875
21.05712890625
13.73291015625
5.4931640625
-3.662109375
-10.07080078125
-11.90185546875
-16.4794921875
-17.39501953125
-21.97265625
-17.39501953125
-21.97265625
-34.7900390625
-33.87451171875
-40.283203125
-35.70556640625
-31.1279296875
-32.04345703125
-28.38134765625
-32.04345703125
-22.88818359375
-28.38134765625
-28.38134765625
-27.4658203125
-26.55029296875
-24.71923828125
-22.88818359375
-24.71923828125
-24.71923828125
-33.87451171875
-27.4658203125
-15.56396484375
-18.310546875
-12.8173828125
-7.32421875
-6.40869140625
-10.07080078125
-1.8310546875
5.4931640625
0
5.4931640625
6.40869140625
8.23974609375
6.40869140625
3.662109375
0.91552734375
6.40869140625
9.1552734375
16.4794921875
21.05712890625
22.88818359375
36.62109375
31.1279296875
34.7900390625
39.36767578125
44.86083984375
50.35400390625
45.7763671875
45.7763671875
47.607421875
56.7626953125
61.34033203125
61.34033203125
63.17138671875
65.91796875
62.255859375
68.66455078125
72.32666015625
75.0732421875
78.7353515625
79.65087890625
84.228515625
86.97509765625
86.0595703125
92.46826171875
94.29931640625
92.46826171875
103.45458984375
108.0322265625
110.77880859375
115.3564453125
112.60986328125
109.86328125
117.1875
116.27197265625
120.849609375
121.76513671875
117.1875
124.51171875
138.24462890625
141.90673828125
149.23095703125
151.9775390625
156.55517578125
153.80859375
155.6396484375
151.06201171875
152.89306640625
155.6396484375
153.80859375
162.04833984375
159.3017578125
155.6396484375
155.6396484375
162.04833984375
153.80859375
154.72412109375
156.55517578125
156.55517578125
155.6396484375
151.9775390625
148.3154296875
146.484375
139.16015625
139.16015625
130.92041015625
125.42724609375
117.1875
106.201171875
103.45458984375
96.13037109375
90.63720703125
77.81982421875
64.0869140625
58.59375
47.607421875
37.53662109375
31.1279296875
21.05712890625
11.90185546875
12.8173828125
8.23974609375
-6.40869140625
-11.90185546875
-17.39501953125
-17.39501953125
-20.1416015625
-25.634765625
-34.7900390625
-31.1279296875
-29.296875
-42.1142578125
-39.36767578125
-34.7900390625
-43.02978515625
-43.02978515625
-46.69189453125
-47.607421875
-54.01611328125
-55.84716796875
-51.26953125
-54.01611328125
-52.18505859375
-48.52294921875
-56.7626953125
-52.18505859375
-49.4384765625
-50.35400390625
-45.7763671875
-47.607421875
-49.4384765625
-53.1005859375
-50.35400390625
-39.36767578125
-47.607421875
-55.84716796875
-52.18505859375
-52.18505859375
-50.35400390625
-50.35400390625
-49.4384765625
-45.7763671875
-43.9453125
-43.02978515625
-43.9453125
-49.4384765625
-47.607421875
-44.86083984375
-40.283203125
-44.86083984375
-41.19873046875
-40.283203125
-38.4521484375
-37.53662109375
-38.4521484375
-43.02978515625
-49.4384765625
-47.607421875
-42.1142578125
-35.70556640625
-35.70556640625
-37.53662109375
-31.1279296875
-30.21240234375
-34.7900390625
-31.1279296875
-32.04345703125
-39.36767578125
-43.9453125
-39.36767578125
-29.296875
-36.62109375
-41.19873046875
-35.70556640625
-34.7900390625
-37.53662109375
-34.7900390625
-36.62109375
-33.87451171875
-32.958984375
-35.70556640625
-32.04345703125
-39.36767578125
-39.36767578125
-39.36767578125
-42.1142578125
-42.1142578125
-42.1142578125
-42.1142578125
-40.283203125
-32.04345703125
-35.70556640625
-37.53662109375
-41.19873046875
-36.62109375
-38.4521484375
-43.9453125
-37.53662109375
-43.02978515625
-47.607421875
-44.86083984375
-45.7763671875
-48.52294921875
-47.607421875
-46.69189453125
-55.84716796875
-55.84716796875
-55.84716796875
-53.1005859375
-56.7626953125
-46.69189453125
-49.4384765625
-52.18505859375
-54.01611328125
-55.84716796875
-54.931640625
-59.50927734375
-65.00244140625
-57.67822265625
-50.35400390625
-54.01611328125
-51.26953125
-49.4384765625
-44.86083984375
-57.67822265625
-61.34033203125
-60.4248046875
-54.931640625
-56.7626953125
-61.34033203125
-51.26953125
-46.69189453125
-56.7626953125
-57.67822265625
-55.84716796875
-57.67822265625
-60.4248046875
-58.59375
-54.01611328125
-53.1005859375
-54.931640625
-54.01611328125
-49.4384765625
-49.4384765625
-50.35400390625
-48.52294921875
-56.7626953125
-55.84716796875
-71.4111328125
-65.00244140625
-53.1005859375
-53.1005859375
-61.34033203125
-59.50927734375
-57.67822265625
-60.4248046875
-61.34033203125
-60.4248046875
-59.50927734375
-66.83349609375
-59.50927734375
-60.4248046875
-71.4111328125
-64.0869140625
-65.00244140625
-66.83349609375
-64.0869140625
-65.00244140625
-64.0869140625
-65.91796875
-61.34033203125
-61.34033203125
-62.255859375
-65.91796875
-61.34033203125
-66.83349609375
-67.7490234375
-69.580078125
-63.17138671875
-65.00244140625
-68.66455078125
-68.66455078125
-64.0869140625
-60.4248046875
-57.67822265625
-65.00244140625
-63.17138671875
-59.50927734375
-67.7490234375
-68.66455078125
-66.83349609375
-64.0869140625
-58.59375
-64.0869140625
-65.91796875
-58.59375
-63.17138671875
-54.01611328125
-62.255859375
-57.67822265625
-56.7626953125
-53.1005859375
-43.9453125
-48.52294921875
-51.26953125
-37.53662109375
-37.53662109375
-40.283203125
-34.7900390625
-32.958984375
-21.05712890625
-8.23974609375
0
7.32421875
13.73291015625
31.1279296875
48.52294921875
59.50927734375
77.81982421875
86.97509765625
97.96142578125
97.0458984375
84.228515625
67.7490234375
55.84716796875
65.91796875
73.2421875
76.904296875
80.56640625
73.2421875
74.15771484375
64.0869140625
59.50927734375
50.35400390625
32.958984375
27.4658203125
0.91552734375
-7.32421875
-19.22607421875
-21.05712890625
-26.55029296875
-31.1279296875
-41.19873046875
-31.1279296875
-32.958984375
-42.1142578125
-45.7763671875
-43.9453125
-50.35400390625
-47.607421875
-41.19873046875
-47.607421875
-51.26953125
-48.52294921875
-52.18505859375
-54.931640625
-54.931640625
-53.1005859375
-52.18505859375
-55.84716796875
-52.18505859375
-54.931640625
-50.35400390625
-54.931640625
-62.255859375
-71.4111328125
-61.34033203125
-50.35400390625
-29.296875
1.8310546875
47.607421875
84.228515625
127.25830078125
178.52783203125
273.74267578125
390.0146484375
513.61083984375
660.09521484375
855.1025390625
1044.61669921875
1194.76318359375
1347.65625
1514.2822265625
1614.07470703125
1637.87841796875
1643.37158203125
1615.90576171875
1431.884765625
1167.29736328125
947.57080078125
758.056640625
540.1611328125
292.96875
146.484375
87.890625
47.607421875
3.662109375
-23.8037109375
-45.7763671875
-19.22607421875
-4.57763671875
26.55029296875
46.69189453125
56.7626953125
52.18505859375
38.4521484375
36.62109375
31.1279296875
21.05712890625
15.56396484375
12.8173828125
9.1552734375
8.23974609375
-0.91552734375
0
-1.8310546875
-2.74658203125
-5.4931640625
-8.23974609375
-6.40869140625
-8.23974609375
-10.07080078125
-1.8310546875
-6.40869140625
-2.74658203125
0.91552734375
-3.662109375
-4.57763671875
-2.74658203125
3.662109375
8.23974609375
5.4931640625
1.8310546875
0.91552734375
0.91552734375
3.662109375
9.1552734375
9.1552734375
7.32421875
6.40869140625
15.56396484375
19.22607421875
23.8037109375
21.05712890625
26.55029296875
25.634765625
25.634765625
21.97265625
28.38134765625
33.87451171875
39.36767578125
44.86083984375
43.02978515625
42.1142578125
52.18505859375
43.02978515625
43.02978515625
45.7763671875
53.1005859375
49.4384765625
60.4248046875
59.50927734375
63.17138671875
67.7490234375
71.4111328125
75.0732421875
79.65087890625
84.228515625
82.3974609375
83.31298828125
89.7216796875
96.13037109375
105.28564453125
97.0458984375
98.876953125
97.0458984375
101.62353515625
103.45458984375
104.3701171875
112.60986328125
118.10302734375
126.3427734375
121.76513671875
130.0048828125
129.08935546875
135.498046875
142.822265625
142.822265625
148.3154296875
143.73779296875
152.89306640625
155.6396484375
156.55517578125
161.1328125
161.1328125
160.21728515625
162.9638671875
154.72412109375
162.9638671875
169.37255859375
171.20361328125
172.119140625
174.86572265625
170.2880859375
173.9501953125
168.45703125
176.69677734375
164.794921875
169.37255859375
173.9501953125
171.20361328125
172.119140625
174.86572265625
173.9501953125
164.794921875
165.71044921875
162.04833984375
151.06201171875
144.6533203125
142.822265625
138.24462890625
132.75146484375
125.42724609375
115.3564453125
110.77880859375
99.79248046875
96.13037109375
85.14404296875
68.66455078125
63.17138671875
64.0869140625
54.931640625
52.18505859375
41.19873046875
34.7900390625
30.21240234375
21.05712890625
19.22607421875
10.07080078125
5.4931640625
0.91552734375
-1.8310546875
-3.662109375
-8.23974609375
-13.73291015625
-21.05712890625
-18.310546875
-27.4658203125
-22.88818359375
-24.71923828125
-18.310546875
-29.296875
-28.38134765625
-26.55029296875
-32.04345703125
-31.1279296875
-34.7900390625
-34.7900390625
-27.4658203125
-27.4658203125
-27.4658203125
-27.4658203125
-20.1416015625
-25.634765625
-25.634765625
-23.8037109375
-30.21240234375
-29.296875
-25.634765625
-17.39501953125
-17.39501953125
-17.39501953125
-20.1416015625
-16.4794921875
-16.4794921875
-10.986328125
-15.56396484375
-19.22607421875
-19.22607421875
-18.310546875
-16.4794921875
-13.73291015625
-14.6484375
-7.32421875
-10.07080078125
-9.1552734375
-16.4794921875
-12.8173828125
-10.986328125
-17.39501953125
-20.1416015625
-20.1416015625
-17.39501953125
-7.32421875
-15.56396484375
-12.8173828125
-19.22607421875
-17.39501953125
-16.4794921875
-13.73291015625
-4.57763671875
-8.23974609375
-6.40869140625
-10.07080078125
-9.1552734375
-10.986328125
-6.40869140625
-16.4794921875
-14.6484375
-17.39501953125
-10.986328125
-13.73291015625
-13.73291015625
-12.8173828125
-16.4794921875
-21.97265625
-21.97265625
-18.310546875
-15.56396484375
-11.90185546875
-21.97265625
-24.71923828125
-17.39501953125
-15.56396484375
-16.4794921875
-23.8037109375
-27.4658203125
-31.1279296875
-21.05712890625
-20.1416015625
-23.8037109375
-20.1416015625
-27.4658203125
-24.71923828125
-25.634765625
-28.38134765625
-28.38134765625
-32.958984375
-33.87451171875
-32.958984375
-30.21240234375
-33.87451171875
-33.87451171875
-35.70556640625
-36.62109375
-30.21240234375
-32.04345703125
-23.8037109375
-32.958984375
-37.53662109375
-33.87451171875
-36.62109375
-32.04345703125
-32.958984375
-44.86083984375
-40.283203125
-39.36767578125
-36.62109375
-35.70556640625
-37.53662109375
-36.62109375
-42.1142578125
-41.19873046875
-39.36767578125
-40.283203125
-43.02978515625
-39.36767578125
-41.19873046875
-43.9453125
-43.02978515625
-42.1142578125
-44.86083984375
-43.02978515625
-42.1142578125
-45.7763671875
-49.4384765625
-50.35400390625
-45.7763671875
-45.7763671875
-51.26953125
-49.4384765625
-45.7763671875
-48.52294921875
-45.7763671875
-45.7763671875
-50.35400390625
-51.26953125
-46.69189453125
-50.35400390625
-43.02978515625
-49.4384765625
-48.52294921875
-45.7763671875
-46.69189453125
-47.607421875
-47.607421875
-54.01611328125
-53.1005859375
-46.69189453125
-51.26953125
-49.4384765625
-57.67822265625
-50.35400390625
-43.9453125
-50.35400390625
-47.607421875
-50.35400390625
-50.35400390625
-49.4384765625
-49.4384765625
-47.607421875
-44.86083984375
-45.7763671875
-46.69189453125
-46.69189453125
-45.7763671875
-47.607421875
-49.4384765625
-55.84716796875
-45.7763671875
-45.7763671875
-55.84716796875
-42.1142578125
-46.69189453125
-50.35400390625
-50.35400390625
-45.7763671875
-47.607421875
-55.84716796875
-54.931640625
-54.931640625
-54.931640625
-52.18505859375
-52.18505859375
-49.4384765625
-47.607421875
-43.9453125
-36.62109375
-32.958984375
-30.21240234375
-25.634765625
-9.1552734375
-7.32421875
6.40869140625
13.73291015625
26.55029296875
43.9453125
50.35400390625
58.59375
75.98876953125
95.21484375
96.13037109375
84.228515625
74.15771484375
63.17138671875
61.34033203125
65.00244140625
70.49560546875
78.7353515625
74.15771484375
74.15771484375
70.49560546875
65.00244140625
61.34033203125
50.35400390625
33.87451171875
22.88818359375
10.07080078125
2.74658203125
-10.986328125
-20.1416015625
-24.71923828125
-19.22607421875
-23.8037109375
-33.87451171875
-32.958984375
-34.7900390625
-39.36767578125
-42.1142578125
-37.53662109375
-40.283203125
-43.9453125
-43.02978515625
-43.02978515625
-53.1005859375
-48.52294921875
-51.26953125
-57.67822265625
-48.52294921875
-50.35400390625
-47.607421875
-59.50927734375
-54.931640625
-54.931640625
-55.84716796875
-68.66455078125
-64.0869140625
-45.7763671875
-30.21240234375
0
49.4384765625
84.228515625
117.1875
168.45703125
249.0234375
365.29541015625
484.31396484375
619.81201171875
802.001953125
997.00927734375
1151.7333984375
1304.62646484375
1476.74560546875
1587.5244140625
1625.9765625
1636.04736328125
1627.8076171875
1505.126953125
1246.03271484375
1002.50244140625
807.4951171875
617.98095703125
372.61962890625
190.4296875
118.10302734375
71.4111328125
26.55029296875
-21.97265625
-48.52294921875
-53.1005859375
-24.71923828125
0
19.22607421875
43.9453125
46.69189453125
43.02978515625
22.88818359375
14.6484375
10.07080078125
11.90185546875
2.74658203125
-4.57763671875
-10.07080078125
-8.23974609375
-3.662109375
-10.986328125
-6.40869140625
-7.32421875
-13.73291015625
-14.6484375
-8.23974609375
-18.310546875
-17.39501953125
-21.05712890625
-16.4794921875
-10.986328125
-10.986328125
-13.73291015625
-9.1552734375
-10.07080078125
-13.73291015625
-1.8310546875
0
0
-0.91552734375
0
4.57763671875
-3.662109375
0
0.91552734375
9.1552734375
12.8173828125
11.90185546875
8.23974609375
10.07080078125
7.32421875
14.6484375
14.6484375
14.6484375
17.39501953125
21.05712890625
28.38134765625
23.8037109375
32.958984375
34.7900390625
33.87451171875
33.87451171875
38.4521484375
40.283203125
47.607421875
46.69189453125
43.9453125
47.607421875
47.607421875
52.18505859375
48.52294921875
59.50927734375
63.17138671875
66.83349609375
69.580078125
67.7490234375
69.580078125
72.32666015625
75.0732421875
76.904296875
83.31298828125
93.3837890625
94.29931640625
91.552734375
97.96142578125
105.28564453125
109.86328125
102.5390625
110.77880859375
113.525390625
114.44091796875
112.60986328125
117.1875
122.6806640625
122.6806640625
127.25830078125
129.08935546875
131.8359375
137.3291015625
135.498046875
130.92041015625
132.75146484375
134.58251953125
133.6669921875
130.92041015625
130.92041015625
138.24462890625
139.16015625
137.3291015625
141.90673828125
132.75146484375
138.24462890625
140.07568359375
137.3291015625
135.498046875
131.8359375
132.75146484375
130.92041015625
128.173828125
130.92041015625
130.92041015625
125.42724609375
121.76513671875
113.525390625
109.86328125
104.3701171875
104.3701171875
99.79248046875
87.890625
79.65087890625
68.66455078125
54.931640625
48.52294921875
40.283203125
30.21240234375
32.04345703125
23.8037109375
12.8173828125
8.23974609375
-2.74658203125
-7.32421875
-10.986328125
-19.22607421875
-20.1416015625
-25.634765625
-25.634765625
-25.634765625
-35.70556640625
-43.9453125
-49.4384765625
-46.69189453125
-49.4384765625
-54.01611328125
-52.18505859375
-61.34033203125
-54.01611328125
-52.18505859375
-49.4384765625
-54.931640625
-49.4384765625
-51.26953125
-54.931640625
-57.67822265625
-51.26953125
-54.931640625
-54.931640625
-51.26953125
-50.35400390625
-51.26953125
-54.01611328125
-51.26953125
-53.1005859375
-53.1005859375
-48.52294921875
-48.52294921875
-49.4384765625
-51.26953125
-44.86083984375
-44.86083984375
-40.283203125
-42.1142578125
-42.1142578125
-43.02978515625
-47.607421875
-42.1142578125
-34.7900390625
-41.19873046875
-38.4521484375
-32.04345703125
-34.7900390625
-38.4521484375
-38.4521484375
-42.1142578125
-38.4521484375
-37.53662109375
-43.02978515625
-39.36767578125
-40.283203125
-39.36767578125
-39.36767578125
-49.4384765625
-49.4384765625
-51.26953125
-42.1142578125
-37.53662109375
-34.7900390625
-37.53662109375
-40.283203125
-35.70556640625
-37.53662109375
-38.4521484375
-43.9453125
-40.283203125
-36.62109375
-40.283203125
-43.9453125
-42.1142578125
-33.87451171875
-43.9453125
-43.9453125
-46.69189453125
-46.69189453125
-49.4384765625
-49.4384765625
-46.69189453125
-42.1142578125
-47.607421875
-48.52294921875
-48.52294921875
-47.607421875
-54.01611328125
-56.7626953125
-57.67822265625
-62.255859375
-57.67822265625
-56.7626953125
-57.67822265625
-55.84716796875
-52.18505859375
-51.26953125
-58.59375
-61.34033203125
-54.01611328125
-57.67822265625
-60.4248046875
-58.59375
-71.4111328125
-60.4248046875
-62.255859375
-61.34033203125
-64.0869140625
-65.91796875
-70.49560546875
-72.32666015625
-78.7353515625
-66.83349609375
-58.59375
-68.66455078125
-65.91796875
-64.0869140625
-71.4111328125
-76.904296875
-69.580078125
-68.66455078125
-74.15771484375
-67.7490234375
-66.83349609375
-66.83349609375
-65.00244140625
-67.7490234375
-75.0732421875
-73.2421875
-74.15771484375
-70.49560546875
-65.00244140625
-70.49560546875
-73.2421875
-68.66455078125
-64.0869140625
-65.00244140625
-70.49560546875
-68.66455078125
-70.49560546875
-70.49560546875
-75.98876953125
-72.32666015625
-68.66455078125
-72.32666015625
-71.4111328125
-68.66455078125
-68.66455078125
-69.580078125
-66.83349609375
-77.81982421875
-79.65087890625
-74.15771484375
-72.32666015625
-67.7490234375
-70.49560546875
-68.66455078125
-65.91796875
-68.66455078125
-67.7490234375
-66.83349609375
-71.4111328125
-67.7490234375
-70.49560546875
-72.32666015625
-75.0732421875
-72.32666015625
-74.15771484375
-70.49560546875
-72.32666015625
-75.98876953125
-71.4111328125
-64.0869140625
-65.00244140625
-72.32666015625
-72.32666015625
-68.66455078125
-71.4111328125
-77.81982421875
-79.65087890625
-80.56640625
-75.98876953125
-77.81982421875
-71.4111328125
-75.0732421875
-80.56640625
-74.15771484375
-72.32666015625
-75.0732421875
-76.904296875
-79.65087890625
-77.81982421875
-74.15771484375
-72.32666015625
-70.49560546875
-64.0869140625
-69.580078125
-74.15771484375
-73.2421875
-72.32666015625
-73.2421875
-69.580078125
-64.0869140625
-65.00244140625
-57.67822265625
-53.1005859375
-53.1005859375
-55.84716796875
-54.931640625
-50.35400390625
-43.9453125
-31.1279296875
-25.634765625
-14.6484375
-12.8173828125
1.8310546875
17.39501953125
27.4658203125
37.53662109375
54.01611328125
71.4111328125
74.15771484375
73.2421875
67.7490234375
55.84716796875
50.35400390625
57.67822265625
54.01611328125
54.931640625
62.255859375
74.15771484375
65.91796875
50.35400390625
42.1142578125
35.70556640625
26.55029296875
20.1416015625
0
-8.23974609375
-17.39501953125
-36.62109375
-41.19873046875
-34.7900390625
-44.86083984375
-47.607421875
-43.02978515625
-44.86083984375
-46.69189453125
-50.35400390625
-56.7626953125
-59.50927734375
-62.255859375
-65.91796875
-54.931640625
-54.01611328125
-53.1005859375
-62.255859375
-63.17138671875
-59.50927734375
-66.83349609375
-59.50927734375
-62.255859375
-65.00244140625
-60.4248046875
-64.0869140625
-75.0732421875
-80.56640625
-72.32666015625
-57.67822265625
-36.62109375
2.74658203125
35.70556640625
70.49560546875
118.10302734375
172.119140625
277.40478515625
396.42333984375
537.41455078125
704.9560546875
898.13232421875
1082.1533203125
1235.9619140625
1398.01025390625
1554.5654296875
1636.962890625
1645.20263671875
1635.1318359375
1588.43994140625
1373.291015625
1117.85888671875
913.6962890625
695.80078125
448.6083984375
195.9228515625
72.32666015625
36.62109375
6.40869140625
-30.21240234375
-43.9453125
-36.62109375
-18.310546875
-6.40869140625
29.296875
41.19873046875
36.62109375
36.62109375
20.1416015625
8.23974609375
8.23974609375
2.74658203125
-4.57763671875
3.662109375
-10.07080078125
-25.634765625
-20.1416015625
-9.1552734375
-15.56396484375
-18.310546875
-16.4794921875
-19.22607421875
-18.310546875
-18.310546875
-14.6484375
-18.310546875
-12.8173828125
-16.4794921875
-15.56396484375
-20.1416015625
-16.4794921875
-14.6484375
-12.8173828125
-7.32421875
-9.1552734375
-2.74658203125
0.91552734375
-2.74658203125
1.8310546875
1.8310546875
4.57763671875
0
-0.91552734375
6.40869140625
3.662109375
19.22607421875
16.4794921875
17.39501953125
17.39501953125
24.71923828125
21.05712890625
19.22607421875
18.310546875
23.8037109375
22.88818359375
25.634765625
29.296875
36.62109375
41.19873046875
42.1142578125
42.1142578125
50.35400390625
49.4384765625
45.7763671875
50.35400390625
56.7626953125
61.34033203125
69.580078125
68.66455078125
65.91796875
65.91796875
64.0869140625
68.66455078125
76.904296875
76.904296875
80.56640625
84.228515625
85.14404296875
83.31298828125
93.3837890625
89.7216796875
92.46826171875
96.13037109375
97.0458984375
108.0322265625
114.44091796875
123.59619140625
128.173828125
115.3564453125
116.27197265625
115.3564453125
124.51171875
123.59619140625
129.08935546875
132.75146484375
141.90673828125
144.6533203125
151.9775390625
146.484375
151.06201171875
148.3154296875
147.39990234375
149.23095703125
149.23095703125
151.9775390625
151.06201171875
155.6396484375
153.80859375
154.72412109375
156.55517578125
155.6396484375
145.56884765625
147.39990234375
148.3154296875
150.146484375
148.3154296875
145.56884765625
141.90673828125
140.9912109375
139.16015625
140.07568359375
130.0048828125
130.0048828125
116.27197265625
116.27197265625
104.3701171875
95.21484375
96.13037109375
82.3974609375
71.4111328125
52.18505859375
53.1005859375
41.19873046875
40.283203125
34.7900390625
22.88818359375
14.6484375
7.32421875
-0.91552734375
-8.23974609375
-12.8173828125
-16.4794921875
-16.4794921875
-22.88818359375
-25.634765625
-24.71923828125
-32.04345703125
-28.38134765625
-34.7900390625
-36.62109375
-39.36767578125
-28.38134765625
-37.53662109375
-43.9453125
-37.53662109375
-33.87451171875
-32.958984375
-45.7763671875
-50.35400390625
-40.283203125
-52.18505859375
-52.18505859375
-49.4384765625
-48.52294921875
-48.52294921875
-44.86083984375
-43.9453125
-50.35400390625
-48.52294921875
-43.9453125
-41.19873046875
-48.52294921875
-47.607421875
-37.53662109375
-35.70556640625
-35.70556640625
-38.4521484375
-38.4521484375
-33.87451171875
-35.70556640625
-40.283203125
-36.62109375
-36.62109375
-40.283203125
-38.4521484375
-41.19873046875
-34.7900390625
-33.87451171875
-36.62109375
-37.53662109375
-34.7900390625
-39.36767578125
-39.36767578125
-39.36767578125
-41.19873046875
-43.02978515625
-35.70556640625
-35.70556640625
-33.87451171875
-32.958984375
-31.1279296875
-34.7900390625
-33.87451171875
-41.19873046875
-36.62109375
-32.04345703125
-34.7900390625
-37.53662109375
-41.19873046875
-32.04345703125
-37.53662109375
-35.70556640625
-35.70556640625
-37.53662109375
-42.1142578125
-37.53662109375
-39.36767578125
-34.7900390625
-33.87451171875
-36.62109375
-37.53662109375
-45.7763671875
-47.607421875
-41.19873046875
-45.7763671875
-41.19873046875
-40.283203125
-43.02978515625
-38.4521484375
-45.7763671875
-44.86083984375
-42.1142578125
-49.4384765625
-55.84716796875
-53.1005859375
-52.18505859375
-49.4384765625
-49.4384765625
-51.26953125
-54.931640625
-54.01611328125
-48.52294921875
-52.18505859375
-54.931640625
-52.18505859375
-52.18505859375
-46.69189453125
-51.26953125
-55.84716796875
-54.01611328125
-58.59375
-54.931640625
-55.84716796875
-65.00244140625
-62.255859375
-56.7626953125
-65.00244140625
-65.00244140625
-59.50927734375
-58.59375
-61.34033203125
-60.4248046875
-54.931640625
-59.50927734375
-66.83349609375
-67.7490234375
-66.83349609375
-62.255859375
-64.0869140625
-65.00244140625
-70.49560546875
-67.7490234375
-74.15771484375
-66.83349609375
-65.00244140625
-63.17138671875
-62.255859375
-56.7626953125
-62.255859375
-64.0869140625
-59.50927734375
-64.0869140625
-62.255859375
-60.4248046875
-59.50927734375
-64.0869140625
-58.59375
-59.50927734375
-55.84716796875
-62.255859375
-64.0869140625
-61.34033203125
-63.17138671875
-71.4111328125
-71.4111328125
-73.2421875
-65.00244140625
-61.34033203125
-60.4248046875
-64.0869140625
-63.17138671875
-63.17138671875
-66.83349609375
-70.49560546875
-71.4111328125
-75.98876953125
-69.580078125
-69.580078125
-66.83349609375
-67.7490234375
-71.4111328125
-68.66455078125
-75.0732421875
-75.0732421875
-63.17138671875
-69.580078125
-70.49560546875
-67.7490234375
-66.83349609375
-71.4111328125
-70.49560546875
-72.32666015625
-73.2421875
-68.66455078125
-72.32666015625
-68.66455078125
-65.91796875
-66.83349609375
-61.34033203125
-58.59375
-67.7490234375
-68.66455078125
-71.4111328125
-67.7490234375
-68.66455078125
-65.91796875
-59.50927734375
-64.0869140625
-71.4111328125
-71.4111328125
-64.0869140625
-65.00244140625
-71.4111328125
-68.66455078125
-60.4248046875
-64.0869140625
-62.255859375
-61.34033203125
-49.4384765625
-47.607421875
-49.4384765625
-43.9453125
-35.70556640625
-30.21240234375
-20.1416015625
-4.57763671875
7.32421875
19.22607421875
39.36767578125
35.70556640625
55.84716796875
75.0732421875
86.0595703125
85.14404296875
71.4111328125
56.7626953125
55.84716796875
57.67822265625
60.4248046875
65.00244140625
69.580078125
73.2421875
71.4111328125
65.00244140625
54.01611328125
53.1005859375
36.62109375
24.71923828125
10.986328125
0.91552734375
-15.56396484375
-26.55029296875
-27.4658203125
-35.70556640625
-39.36767578125
-44.86083984375
-44.86083984375
-45.7763671875
-49.4384765625
-50.35400390625
-53.1005859375
-55.84716796875
-61.34033203125
-57.67822265625
-55.84716796875
-52.18505859375
-52.18505859375
-60.4248046875
-64.0869140625
-56.7626953125
-63.17138671875
-62.255859375
-62.255859375
-65.00244140625
-69.580078125
-70.49560546875
-72.32666015625
-79.65087890625
-62.255859375
-51.26953125
-25.634765625
10.07080078125
41.19873046875
93.3837890625
135.498046875
199.5849609375
309.4482421875
440.36865234375
576.7822265625
742.49267578125
940.24658203125
1123.35205078125
1267.08984375
1424.560546875
1571.96044921875
1637.87841796875
1652.52685546875
1641.54052734375
1566.46728515625
1313.78173828125
1075.74462890625
876.15966796875
656.43310546875
407.40966796875
166.6259765625
63.17138671875
39.36767578125
3.662109375
-25.634765625
-45.7763671875
-32.958984375
-5.4931640625
19.22607421875
38.4521484375
52.18505859375
50.35400390625
42.1142578125
28.38134765625
12.8173828125
5.4931640625
0.91552734375
-2.74658203125
-3.662109375
-8.23974609375
-5.4931640625
-3.662109375
-9.1552734375
-10.986328125
-10.986328125
-9.1552734375
-14.6484375
-14.6484375
-17.39501953125
-18.310546875
-14.6484375
-17.39501953125
-15.56396484375
-12.8173828125
-11.90185546875
-21.05712890625
-14.6484375
-9.1552734375
-9.1552734375
-7.32421875
-3.662109375
-0.91552734375
-2.74658203125
-5.4931640625
-2.74658203125
-6.40869140625
3.662109375
-3.662109375
0.91552734375
5.4931640625
9.1552734375
12.8173828125
6.40869140625
11.90185546875
19.22607421875
26.55029296875
21.97265625
25.634765625
30.21240234375
39.36767578125
35.70556640625
43.9453125
43.9453125
50.35400390625
46.69189453125
52.18505859375
43.02978515625
43.9453125
56.7626953125
58.59375
55.84716796875
62.255859375
67.7490234375
75.0732421875
79.65087890625
77.81982421875
77.81982421875
84.228515625
83.31298828125
83.31298828125
87.890625
96.13037109375
96.13037109375
97.0458984375
105.28564453125
105.28564453125
103.45458984375
105.28564453125
108.94775390625
107.11669921875
111.6943359375
115.3564453125
121.76513671875
124.51171875
130.0048828125
129.08935546875
128.173828125
136.41357421875
136.41357421875
140.9912109375
149.23095703125
147.39990234375
152.89306640625
158.38623046875
151.9775390625
152.89306640625
156.55517578125
157.470703125
157.470703125
162.9638671875
157.470703125
162.9638671875
165.71044921875
162.9638671875
168.45703125
164.794921875
161.1328125
161.1328125
162.9638671875
162.9638671875
156.55517578125
155.6396484375
156.55517578125
151.06201171875
157.470703125
150.146484375
135.498046875
129.08935546875
119.93408203125
120.849609375
120.849609375
108.0322265625
92.46826171875
95.21484375
88.80615234375
80.56640625
61.34033203125
56.7626953125
44.86083984375
47.607421875
40.283203125
25.634765625
23.8037109375
19.22607421875
15.56396484375
9.1552734375
-0.91552734375
-9.1552734375
-3.662109375
-12.8173828125
-10.986328125
-14.6484375
-26.55029296875
-29.296875
-19.22607421875
-25.634765625
-22.88818359375
-33.87451171875
-32.04345703125
-31.1279296875
-38.4521484375
-32.04345703125
-28.38134765625
-33.87451171875
-29.296875
-33.87451171875
-27.4658203125
-32.958984375
-41.19873046875
-33.87451171875
-25.634765625
-29.296875
-30.21240234375
-26.55029296875
-32.04345703125
-34.7900390625
-26.55029296875
-30.21240234375
-34.7900390625
-28.38134765625
-29.296875
-21.05712890625
-23.8037109375
-20.1416015625
-21.05712890625
-23.8037109375
-20.1416015625
-23.8037109375
-23.8037109375
-26.55029296875
-23.8037109375
-22.88818359375
-19.22607421875
-14.6484375
-11.90185546875
-21.05712890625
-23.8037109375
-21.05712890625
-22.88818359375
-18.310546875
-14.6484375
-17.39501953125
-14.6484375
-16.4794921875
-10.986328125
-14.6484375
-21.05712890625
-24.71923828125
-25.634765625
-20.1416015625
-19.22607421875
-22.88818359375
-23.8037109375
-22.88818359375
-21.05712890625
-21.97265625
-19.22607421875
-13.73291015625
-13.73291015625
-19.22607421875
-18.310546875
-19.22607421875
-20.1416015625
-26.55029296875
-25.634765625
-21.97265625
-21.05712890625
-29.296875
-32.958984375
-30.21240234375
-32.04345703125
-31.1279296875
-26.55029296875
-27.4658203125
-26.55029296875
-32.04345703125
-38.4521484375
-37.53662109375
-40.283203125
-42.1142578125
-32.958984375
-37.53662109375
-33.87451171875
-33.87451171875
-40.283203125
-34.7900390625
-38.4521484375
-38.4521484375
-40.283203125
-41.19873046875
-37.53662109375
-45.7763671875
-45.7763671875
-44.86083984375
-50.35400390625
-45.7763671875
-42.1142578125
-42.1142578125
-45.7763671875
-58.59375
-49.4384765625
-45.7763671875
-45.7763671875
-42.1142578125
-42.1142578125
-45.7763671875
-54.01611328125
-46.69189453125
-48.52294921875
-43.02978515625
-49.4384765625
-52.18505859375
-43.02978515625
-42.1142578125
-42.1142578125
-44.86083984375
-47.607421875
-46.69189453125
-47.607421875
-50.35400390625
-51.26953125
-43.02978515625
-43.9453125
-45.7763671875
-40.283203125
-44.86083984375
-44.86083984375
-53.1005859375
-57.67822265625
-49.4384765625
-48.52294921875
-51.26953125
-49.4384765625
-55.84716796875
-48.52294921875
-52.18505859375
-54.931640625
-57.67822265625
-55.84716796875
-54.931640625
-49.4384765625
-49.4384765625
-52.18505859375
-43.02978515625
-52.18505859375
-48.52294921875
-51.26953125
-50.35400390625
-51.26953125
-52.18505859375
-51.26953125
-43.9453125
-40.283203125
-48.52294921875
-48.52294921875
-52.18505859375
-51.26953125
-49.4384765625
-48.52294921875
-47.607421875
-48.52294921875
-52.18505859375
-47.607421875
-44.86083984375
-47.607421875
-42.1142578125
-45.7763671875
-48.52294921875
-48.52294921875
-43.9453125
-38.4521484375
-44.86083984375
-55.84716796875
-49.4384765625
-49.4384765625
-45.7763671875
-51.26953125
-50.35400390625
-43.02978515625
-49.4384765625
-42.1142578125
-39.36767578125
-43.9453125
-43.9453125
-41.19873046875
-32.958984375
-35.70556640625
-34.7900390625
-29.296875
-32.04345703125
-17.39501953125
-4.57763671875
-1.8310546875
16.4794921875
30.21240234375
46.69189453125
54.931640625
64.0869140625
86.97509765625
97.96142578125
95.21484375
82.3974609375
70.49560546875
68.66455078125
67.7490234375
67.7490234375
75.98876953125
78.7353515625
77.81982421875
73.2421875
68.66455078125
69.580078125
69.580078125
54.01611328125
49.4384765625
32.958984375
17.39501953125
7.32421875
-7.32421875
-16.4794921875
-12.8173828125
-11.90185546875
-22.88818359375
-20.1416015625
-19.22607421875
-23.8037109375
-25.634765625
-32.958984375
-36.62109375
-37.53662109375
-42.1142578125
-41.19873046875
-32.958984375
-37.53662109375
-40.283203125
-35.70556640625
-44.86083984375
-44.86083984375
-46.69189453125
-49.4384765625
-49.4384765625
-51.26953125
-43.9453125
-57.67822265625
-58.59375
-40.283203125
-20.1416015625
0.91552734375
49.4384765625
85.14404296875
110.77880859375
163.87939453125
225.2197265625
326.84326171875
454.1015625
573.1201171875
737.9150390625
922.8515625
1099.54833984375
1244.20166015625
1415.4052734375
1558.2275390625
1620.4833984375
1643.37158203125
1648.86474609375
1590.27099609375
1369.62890625
1124.267578125
910.0341796875
716.85791015625
489.80712890625
274.658203125
176.69677734375
119.0185546875
69.580078125
13.73291015625
-26.55029296875
-59.50927734375
-49.4384765625
-19.22607421875
3.662109375
27.4658203125
39.36767578125
46.69189453125
43.02978515625
29.296875
21.05712890625
9.1552734375
8.23974609375
2.74658203125
3.662109375
-0.91552734375
-4.57763671875
-1.8310546875
-2.74658203125
0.91552734375
-9.1552734375
-9.1552734375
-11.90185546875
-12.8173828125
-13.73291015625
-13.73291015625
-9.1552734375
-6.40869140625
-8.23974609375
-10.07080078125
-10.986328125
0
-1.8310546875
1.8310546875
5.4931640625
-3.662109375
3.662109375
10.986328125
4.57763671875
10.07080078125
7.32421875
7.32421875
13.73291015625
12.8173828125
13.73291015625
10.986328125
15.56396484375
17.39501953125
29.296875
31.1279296875
29.296875
21.05712890625
28.38134765625
31.1279296875
31.1279296875
34.7900390625
36.62109375
41.19873046875
43.9453125
41.19873046875
52.18505859375
50.35400390625
45.7763671875
42.1142578125
53.1005859375
61.34033203125
60.4248046875
74.15771484375
75.98876953125
70.49560546875
68.66455078125
74.15771484375
69.580078125
73.2421875
77.81982421875
84.228515625
85.14404296875
89.7216796875
93.3837890625
97.0458984375
99.79248046875
98.876953125
106.201171875
109.86328125
115.3564453125
113.525390625
119.0185546875
126.3427734375
123.59619140625
128.173828125
119.93408203125
121.76513671875
125.42724609375
129.08935546875
132.75146484375
134.58251953125
131.8359375
137.3291015625
140.9912109375
140.9912109375
139.16015625
134.58251953125
138.24462890625
140.07568359375
133.6669921875
140.9912109375
137.3291015625
140.07568359375
146.484375
138.24462890625
134.58251953125
134.58251953125
131.8359375
136.41357421875
138.24462890625
131.8359375
131.8359375
130.92041015625
122.6806640625
119.93408203125
122.6806640625
115.3564453125
105.28564453125
98.876953125
91.552734375
87.890625
82.3974609375
79.65087890625
72.32666015625
65.91796875
52.18505859375
43.9453125
40.283203125
29.296875
25.634765625
16.4794921875
11.90185546875
8.23974609375
4.57763671875
-1.8310546875
-5.4931640625
-9.1552734375
-20.1416015625
-19.22607421875
-20.1416015625
-23.8037109375
-26.55029296875
-28.38134765625
-33.87451171875
-38.4521484375
-41.19873046875
-41.19873046875
-43.02978515625
-43.9453125
-47.607421875
-43.02978515625
-46.69189453125
-45.7763671875
-42.1142578125
-47.607421875
-47.607421875
-42.1142578125
-45.7763671875
-48.52294921875
-52.18505859375
-42.1142578125
-42.1142578125
-42.1142578125
-53.1005859375
-43.9453125
-40.283203125
-41.19873046875
-40.283203125
-42.1142578125
-41.19873046875
-42.1142578125
-41.19873046875
-32.958984375
-32.04345703125
-31.1279296875
-32.958984375
-41.19873046875
-38.4521484375
-35.70556640625
-32.958984375
-31.1279296875
-30.21240234375
-38.4521484375
-27.4658203125
-28.38134765625
-33.87451171875
-36.62109375
-34.7900390625
-32.04345703125
-29.296875
-32.958984375
-28.38134765625
-29.296875
-34.7900390625
-24.71923828125
-22.88818359375
-30.21240234375
-32.04345703125
-36.62109375
-32.958984375
-39.36767578125
-37.53662109375
-37.53662109375
-39.36767578125
-34.7900390625
-31.1279296875
-36.62109375
-37.53662109375
-38.4521484375
-31.1279296875
-29.296875
-36.62109375
-37.53662109375
-35.70556640625
-34.7900390625
-37.53662109375
-45.7763671875
-42.1142578125
-45.7763671875
-47.607421875
-45.7763671875
-40.283203125
-43.02978515625
-37.53662109375
-43.9453125
-50.35400390625
-47.607421875
-42.1142578125
-43.9453125
-47.607421875
-45.7763671875
-53.1005859375
-55.84716796875
-49.4384765625
-50.35400390625
-59.50927734375
-59.50927734375
-59.50927734375
-53.1005859375
-58.59375
-59.50927734375
-53.1005859375
-54.01611328125
-57.67822265625
-52.18505859375
-59.50927734375
-63.17138671875
-59.50927734375
-63.17138671875
-64.0869140625
-66.83349609375
-56.7626953125
-64.0869140625
-61.34033203125
-73.2421875
-70.49560546875
-66.83349609375
-69.580078125
-67.7490234375
-69.580078125
-74.15771484375
-68.66455078125
-71.4111328125
-72.32666015625
-75.0732421875
-73.2421875
-67.7490234375
-65.00244140625
-72.32666015625
-68.66455078125
-63.17138671875
-69.580078125
-68.66455078125
-72.32666015625
-71.4111328125
-69.580078125
-73.2421875
-71.4111328125
-67.7490234375
-75.0732421875
-71.4111328125
-66.83349609375
-62.255859375
-69.580078125
-73.2421875
-69.580078125
-62.255859375
-65.91796875
-69.580078125
-65.00244140625
-65.00244140625
-69.580078125
-73.2421875
-62.255859375
-67.7490234375
-65.00244140625
-71.4111328125
-73.2421875
-72.32666015625
-68.66455078125
-69.580078125
-69.580078125
-65.91796875
-58.59375
-65.00244140625
-73.2421875
-76.904296875
-71.4111328125
-75.0732421875
-77.81982421875
-74.15771484375
-65.91796875
-70.49560546875
-72.32666015625
-72.32666015625
-74.15771484375
-76.904296875
-70.49560546875
-69.580078125
-64.0869140625
-74.15771484375
-74.15771484375
-67.7490234375
-65.91796875
-65.00244140625
-74.15771484375
-76.904296875
-67.7490234375
-73.2421875
-72.32666015625
-68.66455078125
-63.17138671875
-64.0869140625
-65.00244140625
-64.0869140625
-65.91796875
-70.49560546875
-74.15771484375
-73.2421875
-63.17138671875
-68.66455078125
-71.4111328125
-64.0869140625
-51.26953125
-55.84716796875
-64.0869140625
-55.84716796875
-52.18505859375
-49.4384765625
-47.607421875
-46.69189453125
-30.21240234375
-25.634765625
-17.39501953125
-4.57763671875
7.32421875
15.56396484375
29.296875
38.4521484375
49.4384765625
67.7490234375
75.98876953125
79.65087890625
64.0869140625
47.607421875
44.86083984375
44.86083984375
47.607421875
54.01611328125
58.59375
61.34033203125
61.34033203125
51.26953125
45.7763671875
33.87451171875
19.22607421875
13.73291015625
2.74658203125
-13.73291015625
-21.97265625
-29.296875
-39.36767578125
-43.9453125
-47.607421875
-45.7763671875
-51.26953125
-58.59375
-57.67822265625
-56.7626953125
-55.84716796875
-61.34033203125
-62.255859375
-62.255859375
-61.34033203125
-62.255859375
-66.83349609375
-64.0869140625
-72.32666015625
-67.7490234375
-62.255859375
-65.91796875
-67.7490234375
-57.67822265625
-66.83349609375
-79.65087890625
-86.97509765625
-77.81982421875
-79.65087890625
-63.17138671875
-32.04345703125
8.23974609375
43.9453125
74.15771484375
123.59619140625
192.2607421875
303.03955078125
440.36865234375
574.951171875
746.15478515625
943.90869140625
1122.4365234375
1279.9072265625
1446.533203125
1590.27099609375
1649.7802734375
1653.4423828125
1653.4423828125
1574.70703125
1322.021484375
1082.1533203125
881.65283203125
658.26416015625
401.0009765625
152.89306640625
55.84716796875
23.8037109375
-10.986328125
-41.19873046875
-50.35400390625
-38.4521484375
-17.39501953125
8.23974609375
40.283203125
41.19873046875
41.19873046875
29.296875
17.39501953125
10.07080078125
0
-0.91552734375
-1.8310546875
-4.57763671875
-10.07080078125
-16.4794921875
-19.22607421875
-23.8037109375
-22.88818359375
-21.97265625
-23.8037109375
-21.97265625
-28.38134765625
-19.22607421875
-21.97265625
-23.8037109375
-21.97265625
-10.986328125
-16.4794921875
-19.22607421875
-16.4794921875
-14.6484375
-24.71923828125
-19.22607421875
-10.986328125
-8.23974609375
-11.90185546875
-13.73291015625
-8.23974609375
-5.4931640625
-5.4931640625
-7.32421875
-5.4931640625
-3.662109375
6.40869140625
1.8310546875
9.1552734375
14.6484375
11.90185546875
10.07080078125
10.07080078125
16.4794921875
18.310546875
15.56396484375
22.88818359375
29.296875
31.1279296875
26.55029296875
26.55029296875
33.87451171875
35.70556640625
36.62109375
43.02978515625
44.86083984375
45.7763671875
54.01611328125
47.607421875
54.931640625
62.255859375
62.255859375
68.66455078125
66.83349609375
69.580078125
70.49560546875
75.0732421875
83.31298828125
78.7353515625
83.31298828125
82.3974609375
90.63720703125
97.0458984375
101.62353515625
97.96142578125
102.5390625
108.0322265625
113.525390625
112.60986328125
112.60986328125
113.525390625
117.1875
121.76513671875
119.93408203125
124.51171875
130.0048828125
139.16015625
140.9912109375
139.16015625
143.73779296875
141.90673828125
139.16015625
144.6533203125
141.90673828125
147.39990234375
150.146484375
149.23095703125
148.3154296875
151.06201171875
151.06201171875
145.56884765625
144.6533203125
150.146484375
144.6533203125
141.90673828125
143.73779296875
149.23095703125
149.23095703125
136.41357421875
137.3291015625
136.41357421875
135.498046875
128.173828125
122.6806640625
124.51171875
116.27197265625
106.201171875
100.7080078125
92.46826171875
76.904296875
67.7490234375
56.7626953125
54.931640625
43.9453125
37.53662109375
32.04345703125
27.4658203125
22.88818359375
12.8173828125
7.32421875
2.74658203125
-4.57763671875
-9.1552734375
-20.1416015625
-17.39501953125
-15.56396484375
-21.05712890625
-27.4658203125
-33.87451171875
-37.53662109375
-36.62109375
-45.7763671875
-48.52294921875
-43.9453125
-46.69189453125
-46.69189453125
-49.4384765625
-47.607421875
-46.69189453125
-46.69189453125
-48.52294921875
-51.26953125
-49.4384765625
-56.7626953125
-55.84716796875
-54.01611328125
-52.18505859375
-51.26953125
-50.35400390625
-45.7763671875
-42.1142578125
-48.52294921875
-49.4384765625
-44.86083984375
-44.86083984375
-45.7763671875
-43.9453125
-45.7763671875
-40.283203125
-42.1142578125
-46.69189453125
-42.1142578125
-43.02978515625
-43.9453125
-43.9453125
-44.86083984375
-38.4521484375
-36.62109375
-39.36767578125
-39.36767578125
-37.53662109375
-30.21240234375
-36.62109375
-35.70556640625
-36.62109375
-39.36767578125
-31.1279296875
-33.87451171875
-30.21240234375
-30.21240234375
-33.87451171875
-31.1279296875
-37.53662109375
-33.87451171875
-34.7900390625
-32.958984375
-35.70556640625
-33.87451171875
-32.958984375
-29.296875
-34.7900390625
-39.36767578125
-43.9453125
-38.4521484375
-31.1279296875
-38.4521484375
-37.53662109375
-43.02978515625
-41.19873046875
-44.86083984375
-43.02978515625
-45.7763671875
-48.52294921875
-44.86083984375
-46.69189453125
-46.69189453125
-46.69189453125
-45.7763671875
-46.69189453125
-52.18505859375
-50.35400390625
-50.35400390625
-50.35400390625
-55.84716796875
-46.69189453125
-48.52294921875
-53.1005859375
-58.59375
-52.18505859375
-55.84716796875
-54.931640625
-55.84716796875
-59.50927734375
-62.255859375
-60.4248046875
-61.34033203125
-60.4248046875
-57.67822265625
-62.255859375
-56.7626953125
-60.4248046875
-59.50927734375
-62.255859375
-60.4248046875
-63.17138671875
-60.4248046875
-59.50927734375
-54.01611328125
-64.0869140625
-69.580078125
-68.66455078125
-65.91796875
-68.66455078125
-64.0869140625
-66.83349609375
-64.0869140625
-65.00244140625
-67.7490234375
-64.0869140625
-69.580078125
-65.00244140625
-74.15771484375
-74.15771484375
-75.0732421875
-73.2421875
-67.7490234375
-68.66455078125
-72.32666015625
-67.7490234375
-66.83349609375
-69.580078125
-74.15771484375
-76.904296875
-70.49560546875
-79.65087890625
-75.98876953125
-79.65087890625
-73.2421875
-75.98876953125
-72.32666015625
-75.98876953125
-75.98876953125
-75.0732421875
-78.7353515625
-73.2421875
-75.0732421875
-71.4111328125
-75.0732421875
-71.4111328125
-71.4111328125
-69.580078125
-77.81982421875
-73.2421875
-75.98876953125
-69.580078125
-65.91796875
-67.7490234375
-66.83349609375
-71.4111328125
-74.15771484375
-66.83349609375
-70.49560546875
-77.81982421875
-79.65087890625
-73.2421875
-77.81982421875
-70.49560546875
-73.2421875
-68.66455078125
-66.83349609375
-77.81982421875
-68.66455078125
-76.904296875
-77.81982421875
-78.7353515625
-72.32666015625
-68.66455078125
-76.904296875
-75.98876953125
-72.32666015625
-75.98876953125
-84.228515625
-86.0595703125
-81.48193359375
-73.2421875
-73.2421875
-72.32666015625
-73.2421875
-71.4111328125
-79.65087890625
-81.48193359375
-79.65087890625
-83.31298828125
-76.904296875
-77.81982421875
-75.0732421875
-73.2421875
-75.98876953125
-76.904296875
-70.49560546875
-65.00244140625
-65.00244140625
-64.0869140625
-59.50927734375
-57.67822265625
-53.1005859375
-52.18505859375
-48.52294921875
-32.958984375
-23.8037109375
-10.986328125
-0.91552734375
4.57763671875
22.88818359375
36.62109375
44.86083984375
64.0869140625
74.15771484375
80.56640625
65.91796875
53.1005859375
34.7900390625
38.4521484375
47.607421875
54.931640625
52.18505859375
52.18505859375
51.26953125
47.607421875
45.7763671875
39.36767578125
20.1416015625
17.39501953125
5.4931640625
-13.73291015625
-20.1416015625
-36.62109375
-41.19873046875
-47.607421875
-50.35400390625
-47.607421875
-55.84716796875
-56.7626953125
-54.01611328125
-59.50927734375
-62.255859375
-66.83349609375
-63.17138671875
-64.0869140625
-71.4111328125
-71.4111328125
-72.32666015625
-68.66455078125
-74.15771484375
-72.32666015625
-71.4111328125
-70.49560546875
-68.66455078125
-68.66455078125
-66.83349609375
-73.2421875
-80.56640625
-94.29931640625
-95.21484375
-75.0732421875
-59.50927734375
-30.21240234375
7.32421875
34.7900390625
84.228515625
131.8359375
203.2470703125
317.68798828125
444.9462890625
593.26171875
772.705078125
974.12109375
1148.98681640625
1309.2041015625
1471.25244140625
1603.08837890625
1647.94921875
1646.1181640625
1629.638671875
1514.2822265625
1253.35693359375
1022.64404296875
825.8056640625
596.00830078125
335.0830078125
111.6943359375
30.21240234375
10.986328125
-19.22607421875
-47.607421875
-63.17138671875
-36.62109375
-8.23974609375
13.73291015625
22.88818359375
21.05712890625
22.88818359375
12.8173828125
9.1552734375
-2.74658203125
-11.90185546875
-6.40869140625
-12.8173828125
-16.4794921875
-20.1416015625
-24.71923828125
-27.4658203125
-32.958984375
-23.8037109375
-28.38134765625
-28.38134765625
-26.55029296875
-21.97265625
-23.8037109375
-23.8037109375
-31.1279296875
-30.21240234375
-32.04345703125
-22.88818359375
-28.38134765625
-27.4658203125
-22.88818359375
-21.97265625
-23.8037109375
-16.4794921875
-16.4794921875
-23.8037109375
-21.97265625
-16.4794921875
-15.56396484375
-13.73291015625
-7.32421875
-10.986328125
-9.1552734375
-6.40869140625
-10.986328125
-11.90185546875
-2.74658203125
0
7.32421875
0.91552734375
1.8310546875
10.986328125
12.8173828125
10.07080078125
9.1552734375
15.56396484375
20.1416015625
20.1416015625
21.97265625
28.38134765625
25.634765625
30.21240234375
34.7900390625
40.283203125
44.86083984375
50.35400390625
45.7763671875
46.69189453125
46.69189453125
49.4384765625
47.607421875
60.4248046875
65.91796875
71.4111328125
77.81982421875
71.4111328125
73.2421875
79.65087890625
74.15771484375
80.56640625
81.48193359375
86.97509765625
93.3837890625
95.21484375
97.0458984375
95.21484375
101.62353515625
108.94775390625
106.201171875
114.44091796875
118.10302734375
116.27197265625
120.849609375
125.42724609375
120.849609375
125.42724609375
123.59619140625
130.0048828125
131.8359375
134.58251953125
135.498046875
137.3291015625
134.58251953125
133.6669921875
136.41357421875
137.3291015625
137.3291015625
138.24462890625
130.0048828125
137.3291015625
143.73779296875
139.16015625
144.6533203125
136.41357421875
135.498046875
133.6669921875
128.173828125
130.92041015625
123.59619140625
115.3564453125
116.27197265625
111.6943359375
108.94775390625
93.3837890625
90.63720703125
81.48193359375
69.580078125
65.00244140625
53.1005859375
36.62109375
32.04345703125
33.87451171875
23.8037109375
16.4794921875
4.57763671875
-7.32421875
-7.32421875
-11.90185546875
-20.1416015625
-22.88818359375
-24.71923828125
-30.21240234375
-34.7900390625
-39.36767578125
-43.9453125
-49.4384765625
-54.01611328125
-53.1005859375
-51.26953125
-60.4248046875
-60.4248046875
-55.84716796875
-57.67822265625
-59.50927734375
-63.17138671875
-68.66455078125
-71.4111328125
-64.0869140625
-65.91796875
-72.32666015625
-63.17138671875
-65.00244140625
-68.66455078125
-64.0869140625
-65.00244140625
-65.00244140625
-69.580078125
-65.00244140625
-64.0869140625
-59.50927734375
-58.59375
-65.00244140625
-60.4248046875
-62.255859375
-54.931640625
-58.59375
-58.59375
-57.67822265625
-61.34033203125
-64.0869140625
-60.4248046875
-60.4248046875
-58.59375
-55.84716796875
-60.4248046875
-60.4248046875
-62.255859375
-57.67822265625
-54.01611328125
-52.18505859375
-54.931640625
-54.01611328125
-53.1005859375
-54.01611328125
-54.01611328125
-55.84716796875
-53.1005859375
-54.931640625
-57.67822265625
-54.931640625
-57.67822265625
-54.01611328125
-48.52294921875
-56.7626953125
-50.35400390625
-49.4384765625
-54.931640625
-65.91796875
-65.91796875
-57.67822265625
-50.35400390625
-56.7626953125
-50.35400390625
-54.931640625
-59.50927734375
-55.84716796875
-57.67822265625
-53.1005859375
-56.7626953125
-54.931640625
-54.931640625
-58.59375
-62.255859375
-57.67822265625
-65.00244140625
-73.2421875
-73.2421875
-72.32666015625
-61.34033203125
-61.34033203125
-64.0869140625
-70.49560546875
-64.0869140625
-69.580078125
-74.15771484375
-69.580078125
-69.580078125
-71.4111328125
-65.91796875
-70.49560546875
-70.49560546875
-71.4111328125
-75.98876953125
-75.0732421875
-74.15771484375
-73.2421875
-77.81982421875
-76.904296875
-79.65087890625
-78.7353515625
-75.0732421875
-75.0732421875
-74.15771484375
-80.56640625
-81.48193359375
-85.14404296875
-83.31298828125
-82.3974609375
-75.98876953125
-77.81982421875
-79.65087890625
-82.3974609375
-76.904296875
-71.4111328125
-74.15771484375
-80.56640625
-81.48193359375
-82.3974609375
-80.56640625
-80.56640625
-82.3974609375
-83.31298828125
-80.56640625
-78.7353515625
-81.48193359375
-76.904296875
-84.228515625
-87.890625
-86.97509765625
-91.552734375
-86.0595703125
-86.0595703125
-81.48193359375
-85.14404296875
-86.0595703125
-78.7353515625
-86.0595703125
-91.552734375
-85.14404296875
-83.31298828125
-77.81982421875
-77.81982421875
-77.81982421875
-82.3974609375
-86.97509765625
-82.3974609375
-82.3974609375
-85.14404296875
-81.48193359375
-79.65087890625
-76.904296875
-75.0732421875
-75.0732421875
-79.65087890625
-84.228515625
-84.228515625
-86.97509765625
-78.7353515625
-84.228515625
-80.56640625
-77.81982421875
-75.0732421875
-76.904296875
-81.48193359375
-82.3974609375
-75.98876953125
-81.48193359375
-86.0595703125
-73.2421875
-73.2421875
-74.15771484375
-78.7353515625
-76.904296875
-79.65087890625
-78.7353515625
-83.31298828125
-82.3974609375
-87.890625
-82.3974609375
-81.48193359375
-80.56640625
-78.7353515625
-77.81982421875
-77.81982421875
-73.2421875
-76.904296875
-84.228515625
-86.0595703125
-84.228515625
-75.0732421875
-81.48193359375
-76.904296875
-74.15771484375
-73.2421875
-76.904296875
-85.14404296875
-78.7353515625
-75.98876953125
-69.580078125
-65.00244140625
-58.59375
-60.4248046875
-58.59375
-48.52294921875
-42.1142578125
-35.70556640625
-28.38134765625
-10.986328125
0.91552734375
11.90185546875
23.8037109375
43.02978515625
57.67822265625
71.4111328125
75.98876953125
67.7490234375
51.26953125
37.53662109375
38.4521484375
40.283203125
55.84716796875
48.52294921875
54.01611328125
54.01611328125
41.19873046875
35.70556640625
33.87451171875
26.55029296875
14.6484375
1.8310546875
-12.8173828125
-26.55029296875
-41.19873046875
-43.02978515625
-44.86083984375
-51.26953125
-54.931640625
-56.7626953125
-59.50927734375
-65.91796875
-65.00244140625
-68.66455078125
-68.66455078125
-66.83349609375
-70.49560546875
-72.32666015625
-74.15771484375
-70.49560546875
-75.0732421875
-73.2421875
-76.904296875
-76.904296875
-76.904296875
-75.0732421875
-69.580078125
-66.83349609375
-75.98876953125
-78.7353515625
-84.228515625
-86.0595703125
-87.890625
-81.48193359375
-58.59375
-22.88818359375
12.8173828125
45.7763671875
89.7216796875
141.90673828125
217.8955078125
346.0693359375
472.412109375
620.7275390625
810.24169921875
1005.2490234375
1166.3818359375
1310.11962890625
1479.4921875
1600.341796875
1631.4697265625
1628.72314453125
1608.58154296875
1452.0263671875
1181.0302734375
969.54345703125
766.29638671875
537.41455078125
275.57373046875
94.29931640625
43.9453125
16.4794921875
-16.4794921875
-49.4384765625
-54.931640625
-35.70556640625
-10.07080078125
15.56396484375
35.70556640625
33.87451171875
23.8037109375
19.22607421875
10.986328125
0.91552734375
0.91552734375
-4.57763671875
-10.07080078125
-16.4794921875
-21.97265625
-12.8173828125
-21.05712890625
-23.8037109375
-27.4658203125
-29.296875
-30.21240234375
-24.71923828125
-32.958984375
-30.21240234375
-30.21240234375
-35.70556640625
-32.04345703125
-31.1279296875
-33.87451171875
-28.38134765625
-21.97265625
-24.71923828125
-23.8037109375
-24.71923828125
-13.73291015625
-14.6484375
-11.90185546875
-13.73291015625
-13.73291015625
-10.07080078125
-4.57763671875
-3.662109375
-3.662109375
-0.91552734375
4.57763671875
4.57763671875
3.662109375
0
10.07080078125
10.986328125
11.90185546875
16.4794921875
17.39501953125
17.39501953125
23.8037109375
21.05712890625
25.634765625
30.21240234375
34.7900390625
37.53662109375
36.62109375
41.19873046875
40.283203125
44.86083984375
43.02978515625
39.36767578125
52.18505859375
60.4248046875
58.59375
62.255859375
65.91796875
63.17138671875
65.00244140625
63.17138671875
72.32666015625
74.15771484375
74.15771484375
79.65087890625
86.0595703125
83.31298828125
89.7216796875
88.80615234375
91.552734375
91.552734375
103.45458984375
105.28564453125
109.86328125
112.60986328125
113.525390625
119.0185546875
124.51171875
120.849609375
126.3427734375
128.173828125
130.92041015625
133.6669921875
136.41357421875
144.6533203125
143.73779296875
142.822265625
151.9775390625
153.80859375
152.89306640625
151.06201171875
143.73779296875
151.06201171875
150.146484375
145.56884765625
141.90673828125
150.146484375
151.9775390625
153.80859375
150.146484375
141.90673828125
146.484375
144.6533203125
142.822265625
140.9912109375
142.822265625
137.3291015625
133.6669921875
128.173828125
127.25830078125
116.27197265625
99.79248046875
94.29931640625
85.14404296875
81.48193359375
72.32666015625
58.59375
51.26953125
44.86083984375
44.86083984375
29.296875
15.56396484375
15.56396484375
6.40869140625
-2.74658203125
-2.74658203125
-1.8310546875
-5.4931640625
-14.6484375
-13.73291015625
-21.97265625
-33.87451171875
-36.62109375
-32.04345703125
-32.958984375
-36.62109375
-42.1142578125
-38.4521484375
-42.1142578125
-46.69189453125
-50.35400390625
-43.02978515625
-48.52294921875
-54.01611328125
-48.52294921875
-46.69189453125
-43.9453125
-43.9453125
-47.607421875
-45.7763671875
-43.02978515625
-47.607421875
-46.69189453125
-42.1142578125
-47.607421875
-46.69189453125
-43.02978515625
-32.958984375
-39.36767578125
-44.86083984375
-39.36767578125
-40.283203125
-43.9453125
-44.86083984375
-42.1142578125
-39.36767578125
-32.958984375
-33.87451171875
-43.02978515625
-44.86083984375
-44.86083984375
-34.7900390625
-34.7900390625
-34.7900390625
-30.21240234375
-36.62109375
-39.36767578125
-31.1279296875
-27.4658203125
-23.8037109375
-28.38134765625
-29.296875
-32.958984375
-33.87451171875
-32.958984375
-29.296875
-21.97265625
-29.296875
-34.7900390625
-33.87451171875
-35.70556640625
-32.04345703125
-36.62109375
-30.21240234375
-25.634765625
-28.38134765625
-28.38134765625
-27.4658203125
-32.04345703125
-33.87451171875
-37.53662109375
-32.04345703125
-35.70556640625
-34.7900390625
-35.70556640625
-29.296875
-33.87451171875
-36.62109375
-41.19873046875
-40.283203125
-42.1142578125
-46.69189453125
-43.9453125
-40.283203125
-37.53662109375
-41.19873046875
-44.86083984375
-46.69189453125
-46.69189453125
-44.86083984375
-49.4384765625
-50.35400390625
-49.4384765625
-53.1005859375
-50.35400390625
-45.7763671875
-46.69189453125
-51.26953125
-54.01611328125
-43.9453125
-49.4384765625
-54.01611328125
-53.1005859375
-52.18505859375
-54.931640625
-59.50927734375
-51.26953125
-50.35400390625
-53.1005859375
-54.01611328125
-57.67822265625
-58.59375
-59.50927734375
-61.34033203125
-58.59375
-64.0869140625
-57.67822265625
-58.59375
-61.34033203125
-54.931640625
-60.4248046875
-55.84716796875
-61.34033203125
-58.59375
-65.91796875
-72.32666015625
-65.00244140625
-60.4248046875
-62.255859375
-67.7490234375
-65.91796875
-64.0869140625
-64.0869140625
-64.0869140625
-61.34033203125
-61.34033203125
-64.0869140625
-60.4248046875
-63.17138671875
-63.17138671875
-64.0869140625
-60.4248046875
-64.0869140625
-64.0869140625
-62.255859375
-61.34033203125
-61.34033203125
-58.59375
-56.7626953125
-61.34033203125
-72.32666015625
-62.255859375
-64.0869140625
-64.0869140625
-64.0869140625
-63.17138671875
-60.4248046875
-54.931640625
-56.7626953125
-59.50927734375
-59.50927734375
-55.84716796875
-64.0869140625
-65.91796875
-62.255859375
-63.17138671875
-60.4248046875
-65.00244140625
-65.91796875
-57.67822265625
-56.7626953125
-64.0869140625
-61.34033203125
-68.66455078125
-68.66455078125
-61.34033203125
-70.49560546875
-66.83349609375
-67.7490234375
-68.66455078125
-68.66455078125
-65.91796875
-63.17138671875
-64.0869140625
-64.0869140625
-60.4248046875
-63.17138671875
-66.83349609375
-66.83349609375
-64.0869140625
-61.34033203125
-68.66455078125
-72.32666015625
-73.2421875
-67.7490234375
-65.00244140625
-61.34033203125
-63.17138671875
-60.4248046875
-54.931640625
-54.931640625
-51.26953125
-54.931640625
-48.52294921875
-36.62109375
-31.1279296875
-21.97265625
-12.8173828125
-0.91552734375
1.8310546875
25.634765625
32.958984375
43.02978515625
65.91796875
76.904296875
88.80615234375
84.228515625
72.32666015625
57.67822265625
52.18505859375
54.01611328125
62.255859375
69.580078125
73.2421875
69.580078125
66.83349609375
61.34033203125
55.84716796875
51.26953125
34.7900390625
21.97265625
4.57763671875
-0.91552734375
-14.6484375
-21.05712890625
-30.21240234375
-32.04345703125
-30.21240234375
-34.7900390625
-43.02978515625
-43.02978515625
-44.86083984375
-47.607421875
-47.607421875
-52.18505859375
-56.7626953125
-51.26953125
-54.931640625
-57.67822265625
-56.7626953125
-62.255859375
-65.00244140625
-71.4111328125
-66.83349609375
-62.255859375
-60.4248046875
-63.17138671875
-63.17138671875
-64.0869140625
-70.49560546875
-76.904296875
-71.4111328125
-52.18505859375
-29.296875
5.4931640625
47.607421875
77.81982421875
116.27197265625
170.2880859375
253.60107421875
364.3798828125
482.48291015625
613.4033203125
791.015625
970.458984375
1140.7470703125
1284.48486328125
1462.09716796875
1580.2001953125
1621.39892578125
1629.638671875
1619.56787109375
1514.2822265625
1263.427734375
1030.8837890625
835.87646484375
647.27783203125
403.74755859375
227.96630859375
151.06201171875
91.552734375
36.62109375
-19.22607421875
-52.18505859375
-75.0732421875
-52.18505859375
-22.88818359375
0.91552734375
20.1416015625
29.296875
27.4658203125
22.88818359375
15.56396484375
3.662109375
3.662109375
-7.32421875
-8.23974609375
-8.23974609375
-14.6484375
-17.39501953125
-17.39501953125
-27.4658203125
-21.05712890625
-22.88818359375
-20.1416015625
-17.39501953125
-14.6484375
-16.4794921875
-15.56396484375
-15.56396484375
-28.38134765625
-23.8037109375
-18.310546875
-23.8037109375
-17.39501953125
-10.07080078125
-14.6484375
-10.07080078125
-4.57763671875
-8.23974609375
-9.1552734375
-10.07080078125
-8.23974609375
-5.4931640625
-5.4931640625
-8.23974609375
-0.91552734375
7.32421875
1.8310546875
4.57763671875
6.40869140625
11.90185546875
11.90185546875
13.73291015625
13.73291015625
18.310546875
21.97265625
21.05712890625
16.4794921875
23.8037109375
32.958984375
28.38134765625
28.38134765625
32.04345703125
33.87451171875
33.87451171875
32.04345703125
36.62109375
45.7763671875
51.26953125
51.26953125
49.4384765625
52.18505859375
57.67822265625
56.7626953125
61.34033203125
60.4248046875
68.66455078125
73.2421875
73.2421875
75.0732421875
77.81982421875
75.0732421875
75.0732421875
83.31298828125
94.29931640625
91.552734375
91.552734375
94.29931640625
96.13037109375
97.0458984375
97.96142578125
97.96142578125
111.6943359375
120.849609375
119.0185546875
120.849609375
121.76513671875
130.92041015625
127.25830078125
124.51171875
119.0185546875
125.42724609375
126.3427734375
129.08935546875
126.3427734375
128.173828125
130.92041015625
126.3427734375
127.25830078125
123.59619140625
116.27197265625
125.42724609375
124.51171875
121.76513671875
108.94775390625
119.0185546875
119.0185546875
126.3427734375
118.10302734375
115.3564453125
108.94775390625
105.28564453125
101.62353515625
97.96142578125
95.21484375
87.890625
79.65087890625
78.7353515625
64.0869140625
54.01611328125
50.35400390625
47.607421875
36.62109375
34.7900390625
21.97265625
19.22607421875
18.310546875
9.1552734375
0.91552734375
-10.07080078125
-17.39501953125
-15.56396484375
-21.97265625
-24.71923828125
-23.8037109375
-26.55029296875
-27.4658203125
-33.87451171875
-39.36767578125
-50.35400390625
-43.9453125
-46.69189453125
-46.69189453125
-46.69189453125
-54.01611328125
-49.4384765625
-54.01611328125
-52.18505859375
-51.26953125
-54.01611328125
-54.931640625
-65.91796875
-56.7626953125
-62.255859375
-57.67822265625
-58.59375
-60.4248046875
-62.255859375
-58.59375
-59.50927734375
-57.67822265625
-57.67822265625
-62.255859375
-62.255859375
-62.255859375
-53.1005859375
-54.931640625
-56.7626953125
-51.26953125
-46.69189453125
-55.84716796875
-53.1005859375
-53.1005859375
-46.69189453125
-49.4384765625
-45.7763671875
-43.02978515625
-44.86083984375
-44.86083984375
-48.52294921875
-54.01611328125
-51.26953125
-39.36767578125
-43.9453125
-50.35400390625
-47.607421875
-41.19873046875
-43.9453125
-41.19873046875
-43.9453125
-45.7763671875
-50.35400390625
-44.86083984375
-42.1142578125
-41.19873046875
-39.36767578125
-36.62109375
-38.4521484375
-48.52294921875
-47.607421875
-49.4384765625
-47.607421875
-42.1142578125
-43.02978515625
-43.9453125
-49.4384765625
-54.931640625
-44.86083984375
-43.02978515625
-51.26953125
-60.4248046875
-54.931640625
-49.4384765625
-47.607421875
-46.69189453125
-49.4384765625
-60.4248046875
-54.931640625
-49.4384765625
-61.34033203125
-62.255859375
-57.67822265625
-57.67822265625
-65.00244140625
-64.0869140625
-65.00244140625
-59.50927734375
-65.91796875
-74.15771484375
-72.32666015625
-66.83349609375
-67.7490234375
-61.34033203125
-65.00244140625
-69.580078125
-66.83349609375
-72.32666015625
-70.49560546875
-72.32666015625
-74.15771484375
-68.66455078125
-63.17138671875
-69.580078125
-71.4111328125
-75.0732421875
-75.0732421875
-67.7490234375
-69.580078125
-65.91796875
-77.81982421875
-75.0732421875
-77.81982421875
-76.904296875
-80.56640625
-78.7353515625
-80.56640625
-74.15771484375
-81.48193359375
-83.31298828125
-74.15771484375
-78.7353515625
-82.3974609375
-86.0595703125
-80.56640625
-81.48193359375
-86.0595703125
-78.7353515625
-75.98876953125
-75.0732421875
-81.48193359375
-87.890625
-89.7216796875
-83.31298828125
-80.56640625
-82.3974609375
-75.98876953125
-75.0732421875
-80.56640625
-83.31298828125
-84.228515625
-87.890625
-81.48193359375
-76.904296875
-78.7353515625
-84.228515625
-78.7353515625
-76.904296875
-78.7353515625
-80.56640625
-82.3974609375
-86.97509765625
-82.3974609375
-82.3974609375
-80.56640625
-81.48193359375
-83.31298828125
-90.63720703125
-81.48193359375
-85.14404296875
-87.890625
-87.890625
-81.48193359375
-80.56640625
-79.65087890625
-86.97509765625
-88.80615234375
-79.65087890625
-87.890625
-86.97509765625
-81.48193359375
-86.0595703125
-81.48193359375
-86.0595703125
-85.14404296875
-86.97509765625
-86.0595703125
-80.56640625
-81.48193359375
-83.31298828125
-86.97509765625
-89.7216796875
-91.552734375
-89.7216796875
-86.97509765625
-80.56640625
-88.80615234375
-88.80615234375
-85.14404296875
-93.3837890625
-83.31298828125
-81.48193359375
-90.63720703125
-88.80615234375
-86.97509765625
-84.228515625
-86.0595703125
-87.890625
-82.3974609375
-85.14404296875
-81.48193359375
-78.7353515625
-84.228515625
-91.552734375
-86.0595703125
-76.904296875
-71.4111328125
-71.4111328125
-69.580078125
-65.91796875
-63.17138671875
-64.0869140625
-65.00244140625
-51.26953125
-40.283203125
-36.62109375
-21.05712890625
-11.90185546875
5.4931640625
12.8173828125
23.8037109375
41.19873046875
55.84716796875
65.91796875
61.34033203125
51.26953125
39.36767578125
31.1279296875
34.7900390625
42.1142578125
44.86083984375
43.02978515625
46.69189453125
50.35400390625
42.1142578125
31.1279296875
22.88818359375
14.6484375
4.57763671875
-10.07080078125
-27.4658203125
-39.36767578125
-52.18505859375
-63.17138671875
-53.1005859375
-53.1005859375
-58.59375
-68.66455078125
-68.66455078125
-65.00244140625
-65.91796875
-73.2421875
-71.4111328125
-73.2421875
-73.2421875
-73.2421875
-74.15771484375
-75.0732421875
-76.904296875
-75.0732421875
-78.7353515625
-86.0595703125
-84.228515625
-85.14404296875
-77.81982421875
-84.228515625
-84.228515625
-87.890625
-92.46826171875
-92.46826171875
-82.3974609375
-69.580078125
-43.02978515625
4.57763671875
32.958984375
75.98876953125
122.6806640625
191.34521484375
309.4482421875
432.12890625
572.20458984375
758.056640625
956.72607421875
1127.9296875
1277.16064453125
1447.44873046875
1586.60888671875
1631.4697265625
1638.7939453125
1634.21630859375
1551.81884765625
1289.97802734375
1050.10986328125
848.69384765625
630.79833984375
378.11279296875
144.6533203125
46.69189453125
11.90185546875
-14.6484375
-44.86083984375
-70.49560546875
-64.0869140625
-44.86083984375
-12.8173828125
10.986328125
24.71923828125
27.4658203125
21.05712890625
8.23974609375
0.91552734375
-10.07080078125
-17.39501953125
-22.88818359375
-23.8037109375
-23.8037109375
-33.87451171875
-29.296875
-39.36767578125
-33.87451171875
-38.4521484375
-35.70556640625
-34.7900390625
-36.62109375
-44.86083984375
-45.7763671875
-42.1142578125
-33.87451171875
-36.62109375
-35.70556640625
-36.62109375
-39.36767578125
-28.38134765625
-37.53662109375
-35.70556640625
-34.7900390625
-21.05712890625
-24.71923828125
-21.97265625
-24.71923828125
-21.05712890625
-21.97265625
-20.1416015625
-17.39501953125
-11.90185546875
-11.90185546875
-5.4931640625
-4.57763671875
-4.57763671875
-2.74658203125
-4.57763671875
-4.57763671875
3.662109375
5.4931640625
8.23974609375
10.07080078125
12.8173828125
15.56396484375
17.39501953125
21.05712890625
20.1416015625
19.22607421875
24.71923828125
28.38134765625
37.53662109375
32.04345703125
32.958984375
46.69189453125
46.69189453125
43.9453125
43.02978515625
41.19873046875
47.607421875
56.7626953125
54.01611328125
59.50927734375
64.0869140625
67.7490234375
67.7490234375
71.4111328125
75.0732421875
78.7353515625
81.48193359375
82.3974609375
81.48193359375
88.80615234375
89.7216796875
91.552734375
104.3701171875
101.62353515625
104.3701171875
103.45458984375
108.0322265625
113.525390625
115.3564453125
119.93408203125
124.51171875
124.51171875
131.8359375
131.8359375
128.173828125
130.92041015625
135.498046875
132.75146484375
134.58251953125
135.498046875
140.9912109375
139.16015625
139.16015625
141.90673828125
134.58251953125
131.8359375
135.498046875
134.58251953125
133.6669921875
130.92041015625
130.0048828125
131.8359375
128.173828125
120.849609375
120.849609375
113.525390625
109.86328125
109.86328125
105.28564453125
89.7216796875
90.63720703125
82.3974609375
73.2421875
56.7626953125
46.69189453125
47.607421875
36.62109375
26.55029296875
18.310546875
5.4931640625
8.23974609375
0.91552734375
-5.4931640625
-11.90185546875
-21.05712890625
-24.71923828125
-23.8037109375
-29.296875
-33.87451171875
-34.7900390625
-44.86083984375
-40.283203125
-43.9453125
-49.4384765625
-50.35400390625
-54.931640625
-59.50927734375
-58.59375
-59.50927734375
-64.0869140625
-63.17138671875
-61.34033203125
-57.67822265625
-62.255859375
-58.59375
-62.255859375
-64.0869140625
-62.255859375
-62.255859375
-62.255859375
-63.17138671875
-64.0869140625
-58.59375
-67.7490234375
-65.91796875
-64.0869140625
-58.59375
-62.255859375
-57.67822265625
-59.50927734375
-59.50927734375
-52.18505859375
-56.7626953125
-57.67822265625
-54.01611328125
-51.26953125
-53.1005859375
-61.34033203125
-54.931640625
-52.18505859375
-47.607421875
-43.02978515625
-43.02978515625
-43.9453125
-42.1142578125
-45.7763671875
-47.607421875
-47.607421875
-47.607421875
-45.7763671875
-43.9453125
-47.607421875
-43.9453125
-47.607421875
-45.7763671875
-45.7763671875
-44.86083984375
-45.7763671875
-46.69189453125
-46.69189453125
-44.86083984375
-49.4384765625
-47.607421875
-47.607421875
-46.69189453125
-55.84716796875
-44.86083984375
-43.02978515625
-43.9453125
-54.931640625
-54.01611328125
-56.7626953125
-51.26953125
-46.69189453125
-54.931640625
-59.50927734375
-58.59375
-59.50927734375
-59.50927734375
-55.84716796875
-63.17138671875
-52.18505859375
-52.18505859375
-48.52294921875
-60.4248046875
-65.00244140625
-68.66455078125
-63.17138671875
-65.91796875
-59.50927734375
-67.7490234375
-65.91796875
-62.255859375
-65.91796875
-64.0869140625
-69.580078125
-73.2421875
-70.49560546875
-66.83349609375
-67.7490234375
-63.17138671875
-63.17138671875
-65.91796875
-68.66455078125
-67.7490234375
-70.49560546875
-63.17138671875
-68.66455078125
-65.00244140625
-72.32666015625
-71.4111328125
-67.7490234375
-71.4111328125
-68.66455078125
-73.2421875
-74.15771484375
-69.580078125
-76.904296875
-73.2421875
-80.56640625
-76.904296875
-67.7490234375
-73.2421875
-73.2421875
-73.2421875
-80.56640625
-80.56640625
-78.7353515625
-75.98876953125
-75.98876953125
-75.98876953125
-78.7353515625
-72.32666015625
-71.4111328125
-79.65087890625
-80.56640625
-86.97509765625
-86.97509765625
-86.0595703125
-81.48193359375
-80.56640625
-78.7353515625
-75.0732421875
-79.65087890625
-80.56640625
-81.48193359375
-83.31298828125
-85.14404296875
-84.228515625
-82.3974609375
-83.31298828125
-74.15771484375
-76.904296875
-80.56640625
-76.904296875
-75.98876953125
-75.98876953125
-76.904296875
-84.228515625
-78.7353515625
-78.7353515625
-75.0732421875
-77.81982421875
-75.98876953125
-77.81982421875
-73.2421875
-79.65087890625
-81.48193359375
-73.2421875
-77.81982421875
-81.48193359375
-80.56640625
-72.32666015625
-76.904296875
-83.31298828125
-73.2421875
-79.65087890625
-76.904296875
-79.65087890625
-84.228515625
-78.7353515625
-75.98876953125
-78.7353515625
-75.98876953125
-77.81982421875
-85.14404296875
-79.65087890625
-86.97509765625
-91.552734375
-81.48193359375
-75.98876953125
-75.98876953125
-78.7353515625
-79.65087890625
-78.7353515625
-81.48193359375
-83.31298828125
-76.904296875
-83.31298828125
-80.56640625
-76.904296875
-79.65087890625
-75.98876953125
-71.4111328125
-75.98876953125
-80.56640625
-76.904296875
-79.65087890625
-83.31298828125
-75.0732421875
-82.3974609375
-69.580078125
-64.0869140625
-65.91796875
-65.91796875
-67.7490234375
-65.00244140625
-59.50927734375
-49.4384765625
-29.296875
-19.22607421875
-14.6484375
0
10.986328125
22.88818359375
34.7900390625
53.1005859375
63.17138671875
70.49560546875
80.56640625
65.91796875
52.18505859375
43.9453125
49.4384765625
51.26953125
59.50927734375
57.67822265625
54.931640625
60.4248046875
50.35400390625
42.1142578125
40.283203125
24.71923828125
14.6484375
-2.74658203125
-17.39501953125
-31.1279296875
-40.283203125
-48.52294921875
-54.931640625
-63.17138671875
-54.01611328125
-49.4384765625
-50.35400390625
-65.00244140625
-59.50927734375
-64.0869140625
-67.7490234375
-71.4111328125
-66.83349609375
-72.32666015625
-65.91796875
-67.7490234375
-68.66455078125
-74.15771484375
-69.580078125
-79.65087890625
-77.81982421875
-77.81982421875
-81.48193359375
-73.2421875
-74.15771484375
-76.904296875
-84.228515625
-97.96142578125
-90.63720703125
-79.65087890625
-59.50927734375
-23.8037109375
21.05712890625
51.26953125
99.79248046875
148.3154296875
242.61474609375
359.80224609375
493.46923828125
649.10888671875
848.69384765625
1040.0390625
1201.171875
1356.8115234375
1516.11328125
1629.638671875
1656.18896484375
1642.4560546875
1614.07470703125
1426.3916015625
1162.7197265625
951.23291015625
744.32373046875
507.2021484375
240.78369140625
79.65087890625
34.7900390625
6.40869140625
-24.71923828125
-46.69189453125
-49.4384765625
-31.1279296875
-7.32421875
18.310546875
32.04345703125
38.4521484375
27.4658203125
13.73291015625
7.32421875
-6.40869140625
-12.8173828125
-13.73291015625
-18.310546875
-22.88818359375
-22.88818359375
-19.22607421875
-15.56396484375
-22.88818359375
-22.88818359375
-25.634765625
-22.88818359375
-24.71923828125
-28.38134765625
-25.634765625
-26.55029296875
-21.97265625
-25.634765625
-23.8037109375
-23.8037109375
-21.05712890625
-23.8037109375
-22.88818359375
-23.8037109375
-16.4794921875
-17.39501953125
-10.986328125
-10.07080078125
-10.07080078125
-10.07080078125
-6.40869140625
-10.986328125
-5.4931640625
-8.23974609375
-1.8310546875
0.91552734375
5.4931640625
4.57763671875
6.40869140625
5.4931640625
10.986328125
14.6484375
17.39501953125
10.07080078125
11.90185546875
22.88818359375
26.55029296875
25.634765625
31.1279296875
33.87451171875
30.21240234375
32.958984375
34.7900390625
36.62109375
44.86083984375
47.607421875
43.9453125
47.607421875
52.18505859375
62.255859375
61.34033203125
65.00244140625
66.83349609375
69.580078125
70.49560546875
73.2421875
73.2421875
77.81982421875
76.904296875
82.3974609375
82.3974609375
83.31298828125
89.7216796875
96.13037109375
100.7080078125
104.3701171875
100.7080078125
105.28564453125
106.201171875
108.94775390625
105.28564453125
112.60986328125
119.93408203125
125.42724609375
119.93408203125
125.42724609375
128.173828125
130.92041015625
127.25830078125
132.75146484375
142.822265625
143.73779296875
142.822265625
150.146484375
153.80859375
150.146484375
153.80859375
152.89306640625
150.146484375
149.23095703125
141.90673828125
142.822265625
148.3154296875
143.73779296875
146.484375
143.73779296875
149.23095703125
146.484375
136.41357421875
140.9912109375
147.39990234375
140.9912109375
132.75146484375
126.3427734375
118.10302734375
112.60986328125
104.3701171875
97.0458984375
86.97509765625
76.904296875
61.34033203125
54.01611328125
51.26953125
43.9453125
36.62109375
23.8037109375
20.1416015625
9.1552734375
4.57763671875
7.32421875
-7.32421875
-11.90185546875
-19.22607421875
-26.55029296875
-29.296875
-31.1279296875
-32.958984375
-29.296875
-34.7900390625
-39.36767578125
-40.283203125
-44.86083984375
-46.69189453125
-46.69189453125
-51.26953125
-53.1005859375
-45.7763671875
-50.35400390625
-52.18505859375
-48.52294921875
-50.35400390625
-48.52294921875
-52.18505859375
-52.18505859375
-48.52294921875
-46.69189453125
-47.607421875
-51.26953125
-51.26953125
-48.52294921875
-49.4384765625
-50.35400390625
-48.52294921875
-42.1142578125
-44.86083984375
-43.02978515625
-43.02978515625
-46.69189453125
-46.69189453125
-43.9453125
-46.69189453125
-52.18505859375
-43.9453125
-40.283203125
-38.4521484375
-41.19873046875
-43.02978515625
-47.607421875
-46.69189453125
-41.19873046875
-43.02978515625
-43.02978515625
-41.19873046875
-38.4521484375
-35.70556640625
-35.70556640625
-43.9453125
-37.53662109375
-33.87451171875
-35.70556640625
-42.1142578125
-42.1142578125
-40.283203125
-43.9453125
-45.7763671875
-42.1142578125
-31.1279296875
-37.53662109375
-38.4521484375
-43.02978515625
-43.9453125
-47.607421875
-41.19873046875
-39.36767578125
-35.70556640625
-38.4521484375
-36.62109375
-37.53662109375
-38.4521484375
-41.19873046875
-47.607421875
-48.52294921875
-46.69189453125
-41.19873046875
-41.19873046875
-47.607421875
-41.19873046875
-40.283203125
-44.86083984375
-47.607421875
-49.4384765625
-54.01611328125
-51.26953125
-48.52294921875
-51.26953125
-55.84716796875
-57.67822265625
-55.84716796875
-52.18505859375
-56.7626953125
-53.1005859375
-52.18505859375
-55.84716796875
-60.4248046875
-60.4248046875
-54.931640625
-62.255859375
-65.91796875
-62.255859375
-65.00244140625
-67.7490234375
-66.83349609375
-62.255859375
-59.50927734375
-59.50927734375
-66.83349609375
-62.255859375
-57.67822265625
-57.67822265625
-63.17138671875
-57.67822265625
-59.50927734375
-62.255859375
-57.67822265625
-61.34033203125
-59.50927734375
-57.67822265625
-62.255859375
-57.67822265625
-53.1005859375
-58.59375
-65.00244140625
-68.66455078125
-59.50927734375
-63.17138671875
-59.50927734375
-59.50927734375
-54.931640625
-58.59375
-60.4248046875
-64.0869140625
-66.83349609375
-65.00244140625
-66.83349609375
-63.17138671875
-56.7626953125
-60.4248046875
-63.17138671875
-62.255859375
-66.83349609375
-69.580078125
-66.83349609375
-63.17138671875
-63.17138671875
-66.83349609375
-64.0869140625
-62.255859375
-65.91796875
-60.4248046875
-69.580078125
-68.66455078125
-68.66455078125
-65.91796875
-68.66455078125
-65.00244140625
-73.2421875
-75.98876953125
-65.91796875
-68.66455078125
-71.4111328125
-66.83349609375
-63.17138671875
-65.91796875
-69.580078125
-69.580078125
-68.66455078125
-65.91796875
-64.0869140625
-67.7490234375
-75.0732421875
-75.0732421875
-76.904296875
-70.49560546875
-71.4111328125
-65.91796875
-67.7490234375
-68.66455078125
-68.66455078125
-69.580078125
-71.4111328125
-70.49560546875
-67.7490234375
-67.7490234375
-64.0869140625
-67.7490234375
-64.0869140625
-62.255859375
-63.17138671875
-64.0869140625
-67.7490234375
-65.91796875
-69.580078125
-65.00244140625
-70.49560546875
-71.4111328125
-68.66455078125
-70.49560546875
-70.49560546875
-64.0869140625
-65.00244140625
-65.91796875
-72.32666015625
-69.580078125
-61.34033203125
-65.00244140625
-64.0869140625
-65.00244140625
-65.00244140625
-65.00244140625
-58.59375
-54.931640625
-47.607421875
-42.1142578125
-43.9453125
-42.1142578125
-32.04345703125
-21.05712890625
-8.23974609375
-1.8310546875
7.32421875
10.07080078125
29.296875
41.19873046875
63.17138671875
76.904296875
86.0595703125
83.31298828125
67.7490234375
59.50927734375
49.4384765625
49.4384765625
59.50927734375
63.17138671875
71.4111328125
74.15771484375
68.66455078125
68.66455078125
54.931640625
44.86083984375
28.38134765625
17.39501953125
11.90185546875
0
-14.6484375
-21.05712890625
-22.88818359375
-26.55029296875
-30.21240234375
-41.19873046875
-43.9453125
-43.02978515625
-44.86083984375
-51.26953125
-54.931640625
-53.1005859375
-51.26953125
-48.52294921875
-53.1005859375
-54.01611328125
-51.26953125
-54.01611328125
-59.50927734375
-58.59375
-62.255859375
-62.255859375
-61.34033203125
-62.255859375
-57.67822265625
-55.84716796875
-69.580078125
-73.2421875
-75.0732421875
-69.580078125
-58.59375
-40.283203125
-10.986328125
26.55029296875
62.255859375
108.94775390625
159.3017578125
241.69921875
364.3798828125
487.97607421875
639.95361328125
827.63671875
1024.47509765625
1178.28369140625
1329.345703125
1489.56298828125
1606.75048828125
1644.287109375
1650.69580078125
1638.7939453125
1497.802734375
1230.46875
1006.16455078125
812.98828125
597.83935546875
345.15380859375
143.73779296875
77.81982421875
46.69189453125
13.73291015625
-25.634765625
-42.1142578125
-24.71923828125
-3.662109375
16.4794921875
46.69189453125
49.4384765625
48.52294921875
35.70556640625
30.21240234375
18.310546875
14.6484375
8.23974609375
6.40869140625
0.91552734375
2.74658203125
-5.4931640625
-4.57763671875
-9.1552734375
-17.39501953125
-13.73291015625
-13.73291015625
-16.4794921875
-14.6484375
-15.56396484375
-15.56396484375
-9.1552734375
-10.07080078125
-12.8173828125
-11.90185546875
-5.4931640625
-10.07080078125
-8.23974609375
1.8310546875
-1.8310546875
1.8310546875
8.23974609375
1.8310546875
2.74658203125
0.91552734375
3.662109375
3.662109375
5.4931640625
13.73291015625
10.986328125
15.56396484375
21.05712890625
24.71923828125
19.22607421875
22.88818359375
21.97265625
33.87451171875
34.7900390625
29.296875
35.70556640625
42.1142578125
38.4521484375
37.53662109375
41.19873046875
34.7900390625
40.283203125
50.35400390625
48.52294921875
56.7626953125
53.1005859375
54.01611328125
59.50927734375
61.34033203125
66.83349609375
74.15771484375
73.2421875
76.904296875
82.3974609375
77.81982421875
78.7353515625
78.7353515625
92.46826171875
89.7216796875
89.7216796875
95.21484375
101.62353515625
106.201171875
109.86328125
108.0322265625
105.28564453125
110.77880859375
122.6806640625
122.6806640625
128.173828125
128.173828125
132.75146484375
134.58251953125
146.484375
148.3154296875
142.822265625
150.146484375
151.9775390625
151.06201171875
158.38623046875
159.3017578125
160.21728515625
154.72412109375
160.21728515625
164.794921875
162.04833984375
170.2880859375
170.2880859375
162.9638671875
163.87939453125
168.45703125
167.54150390625
161.1328125
160.21728515625
167.54150390625
165.71044921875
158.38623046875
160.21728515625
152.89306640625
153.80859375
154.72412109375
157.470703125
146.484375
146.484375
138.24462890625
134.58251953125
125.42724609375
117.1875
108.94775390625
100.7080078125
97.0458984375
80.56640625
69.580078125
67.7490234375
65.91796875
54.931640625
47.607421875
35.70556640625
34.7900390625
26.55029296875
25.634765625
18.310546875
10.986328125
7.32421875
-0.91552734375
-1.8310546875
-4.57763671875
-9.1552734375
-19.22607421875
-13.73291015625
-14.6484375
-17.39501953125
-26.55029296875
-21.97265625
-24.71923828125
-24.71923828125
-23.8037109375
-22.88818359375
-30.21240234375
-34.7900390625
-29.296875
-22.88818359375
-26.55029296875
-29.296875
-28.38134765625
-23.8037109375
-23.8037109375
-31.1279296875
-32.04345703125
-32.04345703125
-31.1279296875
-31.1279296875
-34.7900390625
-28.38134765625
-28.38134765625
-26.55029296875
-21.97265625
-27.4658203125
-32.04345703125
-26.55029296875
-16.4794921875
-21.05712890625
-21.97265625
-25.634765625
-20.1416015625
-21.05712890625
-22.88818359375
-25.634765625
-24.71923828125
-24.71923828125
-22.88818359375
-14.6484375
-14.6484375
-19.22607421875
-10.986328125
-12.8173828125
-18.310546875
-25.634765625
-27.4658203125
-18.310546875
-17.39501953125
-11.90185546875
-16.4794921875
-18.310546875
-19.22607421875
-12.8173828125
-17.39501953125
-13.73291015625
-13.73291015625
-18.310546875
-21.97265625
-19.22607421875
-14.6484375
-17.39501953125
-11.90185546875
-15.56396484375
-17.39501953125
-27.4658203125
-17.39501953125
-10.07080078125
-24.71923828125
-29.296875
-20.1416015625
-20.1416015625
-17.39501953125
-17.39501953125
-20.1416015625
-30.21240234375
-29.296875
-35.70556640625
-32.958984375
-32.958984375
-36.62109375
-30.21240234375
-28.38134765625
-33.87451171875
-31.1279296875
-32.04345703125
-38.4521484375
-35.70556640625
-40.283203125
-36.62109375
-36.62109375
-28.38134765625
-35.70556640625
-32.04345703125
-33.87451171875
-33.87451171875
-40.283203125
-41.19873046875
-45.7763671875
-46.69189453125
-43.02978515625
-48.52294921875
-44.86083984375
-43.9453125
-46.69189453125
-46.69189453125
-43.9453125
-46.69189453125
-46.69189453125
-48.52294921875
-45.7763671875
-45.7763671875
-39.36767578125
-44.86083984375
-46.69189453125
-50.35400390625
-53.1005859375
-57.67822265625
-53.1005859375
-50.35400390625
-51.26953125
-47.607421875
-36.62109375
-41.19873046875
-43.02978515625
-47.607421875
-50.35400390625
-53.1005859375
-51.26953125
-44.86083984375
-40.283203125
-43.9453125
-42.1142578125
-44.86083984375
-50.35400390625
-55.84716796875
-56.7626953125
-63.17138671875
-61.34033203125
-52.18505859375
-44.86083984375
-47.607421875
-51.26953125
-52.18505859375
-57.67822265625
-54.01611328125
-55.84716796875
-53.1005859375
-60.4248046875
-58.59375
-55.84716796875
-52.18505859375
-54.01611328125
-56.7626953125
-57.67822265625
-58.59375
-55.84716796875
-58.59375
-51.26953125
-56.7626953125
-54.01611328125
-51.26953125
-56.7626953125
-56.7626953125
-62.255859375
-59.50927734375
-65.00244140625
-63.17138671875
-53.1005859375
-56.7626953125
-55.84716796875
-61.34033203125
-61.34033203125
-54.931640625
-55.84716796875
-54.01611328125
-59.50927734375
-56.7626953125
-57.67822265625
-56.7626953125
-59.50927734375
-56.7626953125
-59.50927734375
-56.7626953125
-58.59375
-54.931640625
-60.4248046875
-60.4248046875
-61.34033203125
-63.17138671875
-62.255859375
-61.34033203125
-56.7626953125
-53.1005859375
-52.18505859375
-55.84716796875
-57.67822265625
-59.50927734375
-56.7626953125
-50.35400390625
-51.26953125
-43.9453125
-47.607421875
-43.02978515625
-40.283203125
-38.4521484375
-32.04345703125
-30.21240234375
-19.22607421875
-10.07080078125
5.4931640625
17.39501953125
32.04345703125
46.69189453125
53.1005859375
74.15771484375
82.3974609375
89.7216796875
77.81982421875
62.255859375
58.59375
58.59375
58.59375
64.0869140625
80.56640625
73.2421875
63.17138671875
61.34033203125
54.931640625
52.18505859375
41.19873046875
39.36767578125
32.04345703125
18.310546875
0.91552734375
-13.73291015625
-29.296875
-26.55029296875
-36.62109375
-41.19873046875
-36.62109375
-36.62109375
-39.36767578125
-45.7763671875
-45.7763671875
-51.26953125
-58.59375
-57.67822265625
-54.01611328125
-48.52294921875
-64.0869140625
-66.83349609375
-67.7490234375
-64.0869140625
-61.34033203125
-64.0869140625
-65.00244140625
-72.32666015625
-61.34033203125
-57.67822265625
-55.84716796875
-62.255859375
-66.83349609375
-56.7626953125
-42.1142578125
-23.8037109375
14.6484375
50.35400390625
85.14404296875
123.59619140625
178.52783203125
274.658203125
393.6767578125
527.34375
689.39208984375
873.4130859375
1051.94091796875
1201.171875
1354.98046875
1523.4375
1610.41259765625
1627.8076171875
1643.37158203125
1613.1591796875
1433.7158203125
1174.62158203125
949.40185546875
749.81689453125
540.1611328125
292.96875
153.80859375
101.62353515625
53.1005859375
7.32421875
-35.70556640625
-65.91796875
-68.66455078125
-42.1142578125
-18.310546875
10.07080078125
24.71923828125
27.4658203125
20.1416015625
17.39501953125
8.23974609375
-4.57763671875
-6.40869140625
-14.6484375
-18.310546875
-14.6484375
-19.22607421875
-20.1416015625
-21.97265625
-22.88818359375
-27.4658203125
-27.4658203125
-28.38134765625
-28.38134765625
-29.296875
-31.1279296875
-28.38134765625
-34.7900390625
-28.38134765625
-31.1279296875
-26.55029296875
-24.71923828125
-23.8037109375
-20.1416015625
-21.97265625
-23.8037109375
-20.1416015625
-16.4794921875
-18.310546875
-15.56396484375
-8.23974609375
-10.986328125
-8.23974609375
-9.1552734375
-10.07080078125
0
2.74658203125
0.91552734375
8.23974609375
11.90185546875
12.8173828125
11.90185546875
10.986328125
12.8173828125
14.6484375
18.310546875
21.05712890625
25.634765625
29.296875
31.1279296875
32.04345703125
32.958984375
32.958984375
35.70556640625
32.958984375
35.70556640625
33.87451171875
44.86083984375
50.35400390625
53.1005859375
46.69189453125
45.7763671875
50.35400390625
65.00244140625
64.0869140625
60.4248046875
65.00244140625
65.00244140625
75.98876953125
74.15771484375
80.56640625
74.15771484375
72.32666015625
73.2421875
83.31298828125
83.31298828125
88.80615234375
93.3837890625
94.29931640625
97.0458984375
99.79248046875
105.28564453125
103.45458984375
103.45458984375
112.60986328125
109.86328125
110.77880859375
118.10302734375
120.849609375
125.42724609375
130.0048828125
130.0048828125
125.42724609375
127.25830078125
125.42724609375
126.3427734375
129.08935546875
121.76513671875
120.849609375
127.25830078125
125.42724609375
126.3427734375
115.3564453125
118.10302734375
118.10302734375
118.10302734375
119.93408203125
114.44091796875
116.27197265625
113.525390625
108.0322265625
105.28564453125
97.96142578125
91.552734375
86.97509765625
75.0732421875
69.580078125
61.34033203125
58.59375
52.18505859375
43.9453125
32.04345703125
30.21240234375
15.56396484375
10.986328125
6.40869140625
-0.91552734375
-4.57763671875
-7.32421875
-12.8173828125
-18.310546875
-28.38134765625
-35.70556640625
-32.04345703125
-32.958984375
-42.1142578125
-43.9453125
-45.7763671875
-51.26953125
-52.18505859375
-56.7626953125
-60.4248046875
-64.0869140625
-61.34033203125
-63.17138671875
-55.84716796875
-68.66455078125
-65.91796875
-60.4248046875
-61.34033203125
-64.0869140625
-65.00244140625
-60.4248046875
-59.50927734375
-65.91796875
-65.00244140625
-65.00244140625
-58.59375
-62.255859375
-70.49560546875
-65.91796875
-67.7490234375
-65.91796875
-67.7490234375
-61.34033203125
-63.17138671875
-65.00244140625
-67.7490234375
-57.67822265625
-58.59375
-57.67822265625
-61.34033203125
-63.17138671875
-60.4248046875
-59.50927734375
-58.59375
-57.67822265625
-54.01611328125
-56.7626953125
-53.1005859375
-54.931640625
-55.84716796875
-55.84716796875
-54.01611328125
-54.931640625
-56.7626953125
-60.4248046875
-55.84716796875
-50.35400390625
-53.1005859375
-53.1005859375
-51.26953125
-54.931640625
-58.59375
-57.67822265625
-56.7626953125
-57.67822265625
-53.1005859375
-51.26953125
-52.18505859375
-52.18505859375
-54.931640625
-59.50927734375
-64.0869140625
-64.0869140625
-52.18505859375
-56.7626953125
-56.7626953125
-59.50927734375
-58.59375
-54.931640625
-58.59375
-63.17138671875
-70.49560546875
-70.49560546875
-71.4111328125
-65.91796875
-74.15771484375
-75.0732421875
-69.580078125
-68.66455078125
-76.904296875
-78.7353515625
-75.98876953125
-75.0732421875
-80.56640625
-74.15771484375
-75.0732421875
-74.15771484375
-79.65087890625
-82.3974609375
-77.81982421875
-71.4111328125
-77.81982421875
-81.48193359375
-89.7216796875
-86.0595703125
-90.63720703125
-85.14404296875
-77.81982421875
-78.7353515625
-78.7353515625
-86.0595703125
-83.31298828125
-82.3974609375
-81.48193359375
-75.98876953125
-74.15771484375
-78.7353515625
-86.0595703125
-83.31298828125
-81.48193359375
-84.228515625
-86.97509765625
-87.890625
-88.80615234375
-87.890625
-86.0595703125
-89.7216796875
-86.0595703125
-86.0595703125
-93.3837890625
-93.3837890625
-96.13037109375
-99.79248046875
-97.96142578125
-93.3837890625
-93.3837890625
-97.0458984375
-94.29931640625
-89.7216796875
-90.63720703125
-96.13037109375
-93.3837890625
-90.63720703125
-93.3837890625
-94.29931640625
-94.29931640625
-90.63720703125
-87.890625
-97.0458984375
-101.62353515625
-99.79248046875
-93.3837890625
-96.13037109375
-97.0458984375
-97.96142578125
-100.7080078125
-97.0458984375
-94.29931640625
-94.29931640625
-95.21484375
-92.46826171875
-97.0458984375
-99.79248046875
-99.79248046875
-97.96142578125
-90.63720703125
-82.3974609375
-89.7216796875
-88.80615234375
-92.46826171875
-92.46826171875
-95.21484375
-96.13037109375
-92.46826171875
-94.29931640625
-97.0458984375
-92.46826171875
-96.13037109375
-86.0595703125
-93.3837890625
-95.21484375
-97.96142578125
-101.62353515625
-99.79248046875
-92.46826171875
-91.552734375
-99.79248046875
-98.876953125
-95.21484375
-91.552734375
-97.96142578125
-104.3701171875
-103.45458984375
-105.28564453125
-108.0322265625
-108.94775390625
-108.0322265625
-107.11669921875
-108.94775390625
-99.79248046875
-96.13037109375
-101.62353515625
-108.0322265625
-107.11669921875
-101.62353515625
-106.201171875
-107.11669921875
-103.45458984375
-105.28564453125
-104.3701171875
-98.876953125
-97.96142578125
-102.5390625
-105.28564453125
-101.62353515625
-105.28564453125
-98.876953125
-108.0322265625
-111.6943359375
-106.201171875
-103.45458984375
-93.3837890625
-97.96142578125
-90.63720703125
-85.14404296875
-82.3974609375
-83.31298828125
-74.15771484375
-75.0732421875
-61.34033203125
-48.52294921875
-43.02978515625
-36.62109375
-18.310546875
-3.662109375
1.8310546875
11.90185546875
31.1279296875
41.19873046875
45.7763671875
30.21240234375
29.296875
12.8173828125
10.07080078125
23.8037109375
33.87451171875
42.1142578125
37.53662109375
33.87451171875
24.71923828125
14.6484375
7.32421875
-9.1552734375
-23.8037109375
-29.296875
-38.4521484375
-48.52294921875
-64.0869140625
-75.98876953125
-70.49560546875
-73.2421875
-80.56640625
-85.14404296875
-86.0595703125
-87.890625
-87.890625
-95.21484375
-96.13037109375
-96.13037109375
-96.13037109375
-98.876953125
-99.79248046875
-98.876953125
-102.5390625
-108.0322265625
-99.79248046875
-99.79248046875
-96.13037109375
-103.45458984375
-104.3701171875
-108.94775390625
-111.6943359375
-116.27197265625
-119.93408203125
-119.0185546875
-117.1875
-105.28564453125
-84.228515625
-42.1142578125
-9.1552734375
22.88818359375
67.7490234375
128.173828125
228.8818359375
356.14013671875
491.63818359375
661.92626953125
850.52490234375
1044.61669921875
1197.509765625
1348.57177734375
1511.53564453125
1601.25732421875
1619.56787109375
1612.24365234375
1573.79150390625
1380.615234375
1120.60546875
912.78076171875
694.88525390625
445.86181640625
172.119140625
30.21240234375
-2.74658203125
-29.296875
-65.00244140625
-83.31298828125
-81.48193359375
-49.4384765625
-32.958984375
-15.56396484375
-0.91552734375
-6.40869140625
-10.986328125
-19.22607421875
-24.71923828125
-26.55029296875
-37.53662109375
-36.62109375
-42.1142578125
-50.35400390625
-58.59375
-55.84716796875
-64.0869140625
-61.34033203125
-59.50927734375
-57.67822265625
-57.67822265625
-60.4248046875
-61.34033203125
-63.17138671875
-67.7490234375
-68.66455078125
-63.17138671875
-65.91796875
-63.17138671875
-65.91796875
-59.50927734375
-58.59375
-62.255859375
-57.67822265625
-56.7626953125
-53.1005859375
-56.7626953125
-47.607421875
-50.35400390625
-52.18505859375
-49.4384765625
-49.4384765625
-51.26953125
-47.607421875
-43.02978515625
-43.9453125
-38.4521484375
-25.634765625
-24.71923828125
-23.8037109375
-22.88818359375
-29.296875
-25.634765625
-17.39501953125
-12.8173828125
-12.8173828125
-12.8173828125
-13.73291015625
-8.23974609375
-2.74658203125
-1.8310546875
5.4931640625
3.662109375
3.662109375
6.40869140625
10.07080078125
8.23974609375
15.56396484375
16.4794921875
26.55029296875
25.634765625
22.88818359375
26.55029296875
27.4658203125
32.04345703125
31.1279296875
33.87451171875
37.53662109375
39.36767578125
43.02978515625
47.607421875
52.18505859375
54.01611328125
55.84716796875
57.67822265625
61.34033203125
61.34033203125
72.32666015625
67.7490234375
75.98876953125
75.0732421875
80.56640625
88.80615234375
89.7216796875
86.0595703125
82.3974609375
84.228515625
85.14404296875
95.21484375
95.21484375
100.7080078125
105.28564453125
108.94775390625
99.79248046875
100.7080078125
100.7080078125
104.3701171875
109.86328125
103.45458984375
102.5390625
108.94775390625
101.62353515625
105.28564453125
94.29931640625
101.62353515625
103.45458984375
95.21484375
93.3837890625
97.96142578125
92.46826171875
88.80615234375
87.890625
79.65087890625
74.15771484375
66.83349609375
54.931640625
48.52294921875
46.69189453125
31.1279296875
22.88818359375
17.39501953125
6.40869140625
-7.32421875
-15.56396484375
-24.71923828125
-22.88818359375
-34.7900390625
-42.1142578125
-54.01611328125
-44.86083984375
-54.931640625
-59.50927734375
-68.66455078125
-70.49560546875
-75.0732421875
-81.48193359375
-79.65087890625
-80.56640625
-82.3974609375
-86.97509765625
-86.0595703125
-79.65087890625
-90.63720703125
-95.21484375
-105.28564453125
-91.552734375
-86.0595703125
-90.63720703125
-101.62353515625
-104.3701171875
-100.7080078125
-90.63720703125
-89.7216796875
-97.96142578125
-93.3837890625
-97.96142578125
-95.21484375
-99.79248046875
-98.876953125
-95.21484375
-95.21484375
-89.7216796875
-95.21484375
-97.96142578125
-95.21484375
-86.97509765625
-92.46826171875
-91.552734375
-78.7353515625
-91.552734375
-85.14404296875
-84.228515625
-88.80615234375
-94.29931640625
-96.13037109375
-88.80615234375
-90.63720703125
-88.80615234375
-91.552734375
-90.63720703125
-92.46826171875
-82.3974609375
-85.14404296875
-87.890625
-95.21484375
-91.552734375
-91.552734375
-88.80615234375
-91.552734375
-85.14404296875
-86.97509765625
-87.890625
-86.97509765625
-88.80615234375
-90.63720703125
-85.14404296875
-85.14404296875
-85.14404296875
-87.890625
-89.7216796875
-86.0595703125
-93.3837890625
-93.3837890625
-87.890625
-95.21484375
-95.21484375
-88.80615234375
-86.0595703125
-93.3837890625
-90.63720703125
-86.0595703125
-81.48193359375
-92.46826171875
-93.3837890625
-97.0458984375
-98.876953125
-106.201171875
-101.62353515625
-102.5390625
-96.13037109375
-100.7080078125
-101.62353515625
-99.79248046875
-101.62353515625
-103.45458984375
-105.28564453125
-101.62353515625
-101.62353515625
-103.45458984375
-105.28564453125
-106.201171875
-101.62353515625
-97.96142578125
-93.3837890625
-106.201171875
-117.1875
-107.11669921875
-114.44091796875
-108.94775390625
-108.94775390625
-115.3564453125
-114.44091796875
-114.44091796875
-105.28564453125
-115.3564453125
-120.849609375
-119.93408203125
-111.6943359375
-112.60986328125
-111.6943359375
-114.44091796875
-118.10302734375
-110.77880859375
-111.6943359375
-118.10302734375
-123.59619140625
-120.849609375
-117.1875
-119.0185546875
-125.42724609375
-122.6806640625
-125.42724609375
-120.849609375
-126.3427734375
-129.08935546875
-122.6806640625
-119.93408203125
-127.25830078125
-119.93408203125
-119.0185546875
-120.849609375
-121.76513671875
-115.3564453125
-120.849609375
-123.59619140625
-118.10302734375
-121.76513671875
-128.173828125
-123.59619140625
-113.525390625
-117.1875
-116.27197265625
-116.27197265625
-118.10302734375
-118.10302734375
-120.849609375
-127.25830078125
-118.10302734375
-119.93408203125
-117.1875
-117.1875
-116.27197265625
-122.6806640625
-123.59619140625
-122.6806640625
-130.92041015625
-132.75146484375
-122.6806640625
-122.6806640625
-120.849609375
-122.6806640625
-126.3427734375
-128.173828125
-128.173828125
-131.8359375
-133.6669921875
-132.75146484375
-131.8359375
-130.92041015625
-125.42724609375
-123.59619140625
-126.3427734375
-122.6806640625
-124.51171875
-121.76513671875
-126.3427734375
-121.76513671875
-122.6806640625
-130.0048828125
-129.08935546875
-126.3427734375
-124.51171875
-129.08935546875
-130.92041015625
-129.08935546875
-131.8359375
-130.0048828125
-129.08935546875
-130.92041015625
-130.92041015625
-129.08935546875
-124.51171875
-119.0185546875
-127.25830078125
-122.6806640625
-128.173828125
-126.3427734375
-128.173828125
-123.59619140625
-123.59619140625
-121.76513671875
-124.51171875
-130.0048828125
-123.59619140625
-130.0048828125
-123.59619140625
-119.0185546875
-118.10302734375
-119.93408203125
-116.27197265625
-119.0185546875
-116.27197265625
-110.77880859375
-105.28564453125
-109.86328125
-106.201171875
-103.45458984375
-100.7080078125
-93.3837890625
-83.31298828125
-73.2421875
-62.255859375
-43.9453125
-34.7900390625
-24.71923828125
-19.22607421875
3.662109375
15.56396484375
29.296875
25.634765625
8.23974609375
-0.91552734375
-0.91552734375
2.74658203125
5.4931640625
10.986328125
6.40869140625
6.40869140625
8.23974609375
0
-6.40869140625
-22.88818359375
-31.1279296875
-43.9453125
-56.7626953125
-69.580078125
-84.228515625
-90.63720703125
-89.7216796875
-94.29931640625
-97.0458984375
-97.96142578125
-97.96142578125
-105.28564453125
-105.28564453125
-116.27197265625
-114.44091796875
-107.11669921875
-110.77880859375
-116.27197265625
-118.10302734375
-118.10302734375
-118.10302734375
-115.3564453125
-126.3427734375
-119.93408203125
-122.6806640625
-117.1875
-121.76513671875
-119.93408203125
-115.3564453125
-120.849609375
-129.08935546875
-140.9912109375
-134.58251953125
-125.42724609375
-107.11669921875
-76.904296875
-28.38134765625
2.74658203125
49.4384765625
102.5390625
192.2607421875
313.1103515625
441.2841796875
593.26171875
789.1845703125
973.20556640625
1135.25390625
1300.048828125
1461.181640625
1573.79150390625
1596.6796875
1594.8486328125
1572.8759765625
1412.65869140625
1144.4091796875
936.58447265625
726.9287109375
488.8916015625
220.64208984375
43.02978515625
-1.8310546875
-29.296875
-63.17138671875
-99.79248046875
-105.28564453125
-77.81982421875
-64.0869140625
-37.53662109375
-15.56396484375
-14.6484375
-21.05712890625
-29.296875
-34.7900390625
-46.69189453125
-56.7626953125
-62.255859375
-59.50927734375
-66.83349609375
-73.2421875
-72.32666015625
-63.17138671875
-75.0732421875
-75.98876953125
-78.7353515625
-72.32666015625
-73.2421875
-70.49560546875
-66.83349609375
-66.83349609375
-64.0869140625
-70.49560546875
-75.0732421875
-70.49560546875
-67.7490234375
-63.17138671875
-65.00244140625
-60.4248046875
-63.17138671875
-66.83349609375
-59.50927734375
-53.1005859375
-51.26953125
-49.4384765625
-49.4384765625
-49.4384765625
-52.18505859375
-50.35400390625
-44.86083984375
-43.9453125
-39.36767578125
-41.19873046875
-40.283203125
-37.53662109375
-30.21240234375
-22.88818359375
-27.4658203125
-32.04345703125
-26.55029296875
-23.8037109375
-21.97265625
-21.97265625
-14.6484375
-15.56396484375
-15.56396484375
-18.310546875
-9.1552734375
-0.91552734375
2.74658203125
1.8310546875
6.40869140625
10.986328125
15.56396484375
18.310546875
27.4658203125
28.38134765625
19.22607421875
21.05712890625
27.4658203125
29.296875
32.04345703125
36.62109375
39.36767578125
42.1142578125
44.86083984375
44.86083984375
53.1005859375
62.255859375
59.50927734375
58.59375
66.83349609375
67.7490234375
66.83349609375
76.904296875
73.2421875
75.98876953125
75.98876953125
84.228515625
84.228515625
88.80615234375
88.80615234375
87.890625
88.80615234375
94.29931640625
96.13037109375
97.0458984375
106.201171875
101.62353515625
100.7080078125
98.876953125
106.201171875
109.86328125
108.0322265625
104.3701171875
107.11669921875
99.79248046875
100.7080078125
102.5390625
99.79248046875
97.96142578125
106.201171875
99.79248046875
104.3701171875
96.13037109375
96.13037109375
92.46826171875
90.63720703125
89.7216796875
72.32666015625
70.49560546875
65.00244140625
58.59375
41.19873046875
35.70556640625
28.38134765625
17.39501953125
14.6484375
1.8310546875
-9.1552734375
-9.1552734375
-18.310546875
-29.296875
-29.296875
-43.02978515625
-53.1005859375
-59.50927734375
-60.4248046875
-65.91796875
-69.580078125
-63.17138671875
-67.7490234375
-70.49560546875
-79.65087890625
-83.31298828125
-87.890625
-82.3974609375
-85.14404296875
-88.80615234375
-92.46826171875
-91.552734375
-86.0595703125
-89.7216796875
-89.7216796875
-94.29931640625
-91.552734375
-91.552734375
-88.80615234375
-90.63720703125
-92.46826171875
-83.31298828125
-84.228515625
-85.14404296875
-87.890625
-86.0595703125
-79.65087890625
-78.7353515625
-77.81982421875
-77.81982421875
-80.56640625
-85.14404296875
-74.15771484375
-71.4111328125
-74.15771484375
-75.0732421875
-84.228515625
-78.7353515625
-77.81982421875
-75.0732421875
-84.228515625
-76.904296875
-75.98876953125
-75.98876953125
-77.81982421875
-80.56640625
-75.98876953125
-74.15771484375
-77.81982421875
-77.81982421875
-75.0732421875
-79.65087890625
-80.56640625
-79.65087890625
-84.228515625
-80.56640625
-77.81982421875
-84.228515625
-85.14404296875
-78.7353515625
-82.3974609375
-82.3974609375
-72.32666015625
-72.32666015625
-79.65087890625
-77.81982421875
-85.14404296875
-85.14404296875
-81.48193359375
-78.7353515625
-86.0595703125
-75.0732421875
-75.0732421875
-78.7353515625
-78.7353515625
-75.0732421875
-72.32666015625
-78.7353515625
-81.48193359375
-79.65087890625
-71.4111328125
-77.81982421875
-78.7353515625
-83.31298828125
-84.228515625
-81.48193359375
-89.7216796875
-84.228515625
-80.56640625
-82.3974609375
-82.3974609375
-85.14404296875
-82.3974609375
-82.3974609375
-87.890625
-95.21484375
-95.21484375
-94.29931640625
-92.46826171875
-87.890625
-97.96142578125
-95.21484375
-86.97509765625
-89.7216796875
-98.876953125
-103.45458984375
-107.11669921875
-103.45458984375
-103.45458984375
-102.5390625
-100.7080078125
-104.3701171875
-108.94775390625
-104.3701171875
-108.0322265625
-108.94775390625
-108.94775390625
-109.86328125
-109.86328125
-112.60986328125
-119.0185546875
-114.44091796875
-107.11669921875
-108.94775390625
-108.94775390625
-110.77880859375
-116.27197265625
-112.60986328125
-109.86328125
-117.1875
-110.77880859375
-110.77880859375
-103.45458984375
-107.11669921875
-104.3701171875
-107.11669921875
-111.6943359375
-111.6943359375
-114.44091796875
-111.6943359375
-111.6943359375
-102.5390625
-102.5390625
-110.77880859375
-116.27197265625
-112.60986328125
-114.44091796875
-113.525390625
-110.77880859375
-117.1875
-113.525390625
-116.27197265625
-115.3564453125
-117.1875
-114.44091796875
-120.849609375
-121.76513671875
-119.0185546875
-120.849609375
-119.93408203125
-115.3564453125
-116.27197265625
-117.1875
-118.10302734375
-126.3427734375
-127.25830078125
-123.59619140625
-114.44091796875
-116.27197265625
-114.44091796875
-125.42724609375
-120.849609375
-117.1875
-120.849609375
-119.0185546875
-121.76513671875
-120.849609375
-126.3427734375
-125.42724609375
-120.849609375
-116.27197265625
-119.0185546875
-117.1875
-112.60986328125
-119.0185546875
-119.0185546875
-114.44091796875
-117.1875
-117.1875
-125.42724609375
-122.6806640625
-119.0185546875
-119.0185546875
-120.849609375
-119.0185546875
-121.76513671875
-122.6806640625
-119.0185546875
-119.0185546875
-120.849609375
-113.525390625
-119.0185546875
-114.44091796875
-123.59619140625
-123.59619140625
-123.59619140625
-117.1875
-118.10302734375
-120.849609375
-113.525390625
-122.6806640625
-119.93408203125
-115.3564453125
-110.77880859375
-111.6943359375
-110.77880859375
-106.201171875
-98.876953125
-92.46826171875
-85.14404296875
-71.4111328125
-59.50927734375
-45.7763671875
-25.634765625
-14.6484375
-10.986328125
2.74658203125
21.05712890625
27.4658203125
11.90185546875
0.91552734375
-3.662109375
-0.91552734375
-0.91552734375
8.23974609375
10.07080078125
13.73291015625
7.32421875
2.74658203125
-1.8310546875
-13.73291015625
-25.634765625
-32.04345703125
-39.36767578125
-50.35400390625
-66.83349609375
-83.31298828125
-88.80615234375
-86.0595703125
-89.7216796875
-88.80615234375
-91.552734375
-100.7080078125
-100.7080078125
-102.5390625
-104.3701171875
-109.86328125
-113.525390625
-119.93408203125
-118.10302734375
-115.3564453125
-114.44091796875
-118.10302734375
-119.93408203125
-120.849609375
-124.51171875
-128.173828125
-127.25830078125
-124.51171875
-124.51171875
-121.76513671875
-127.25830078125
-135.498046875
-133.6669921875
-117.1875
-107.11669921875
-77.81982421875
-28.38134765625
10.07080078125
45.7763671875
93.3837890625
165.71044921875
270.08056640625
400.08544921875
523.681640625
684.814453125
867.00439453125
1040.0390625
1179.19921875
1354.06494140625
1492.3095703125
1561.8896484375
1583.8623046875
1593.017578125
1531.67724609375
1306.45751953125
1063.8427734375
858.7646484375
669.25048828125
437.6220703125
219.7265625
129.08935546875
66.83349609375
21.97265625
-41.19873046875
-86.0595703125
-112.60986328125
-93.3837890625
-79.65087890625
-46.69189453125
-22.88818359375
-12.8173828125
-10.07080078125
-11.90185546875
-21.05712890625
-31.1279296875
-43.9453125
-49.4384765625
-50.35400390625
-55.84716796875
-51.26953125
-55.84716796875
-56.7626953125
-65.91796875
-62.255859375
-74.15771484375
-69.580078125
-65.91796875
-64.0869140625
-64.0869140625
-67.7490234375
-62.255859375
-59.50927734375
-58.59375
-66.83349609375
-63.17138671875
-68.66455078125
-58.59375
-51.26953125
-55.84716796875
-55.84716796875
-51.26953125
-44.86083984375
-51.26953125
-49.4384765625
-45.7763671875
-54.01611328125
-52.18505859375
-51.26953125
-40.283203125
-43.9453125
-45.7763671875
-43.9453125
-43.02978515625
-41.19873046875
-38.4521484375
-32.958984375
-33.87451171875
-31.1279296875
-28.38134765625
-24.71923828125
-23.8037109375
-21.05712890625
-26.55029296875
-21.05712890625
-13.73291015625
-9.1552734375
-12.8173828125
-13.73291015625
-8.23974609375
-4.57763671875
-8.23974609375
-5.4931640625
-2.74658203125
0.91552734375
-3.662109375
5.4931640625
9.1552734375
10.986328125
20.1416015625
18.310546875
23.8037109375
24.71923828125
23.8037109375
19.22607421875
29.296875
34.7900390625
30.21240234375
32.04345703125
40.283203125
40.283203125
45.7763671875
43.02978515625
47.607421875
52.18505859375
45.7763671875
52.18505859375
58.59375
56.7626953125
59.50927734375
66.83349609375
67.7490234375
72.32666015625
73.2421875
79.65087890625
71.4111328125
75.98876953125
80.56640625
76.904296875
75.98876953125
75.0732421875
75.98876953125
82.3974609375
82.3974609375
77.81982421875
77.81982421875
79.65087890625
78.7353515625
68.66455078125
69.580078125
66.83349609375
69.580078125
67.7490234375
73.2421875
71.4111328125
62.255859375
44.86083984375
48.52294921875
49.4384765625
32.958984375
26.55029296875
25.634765625
21.05712890625
8.23974609375
5.4931640625
-3.662109375
-14.6484375
-24.71923828125
-26.55029296875
-33.87451171875
-44.86083984375
-48.52294921875
-47.607421875
-54.01611328125
-69.580078125
-75.98876953125
-78.7353515625
-83.31298828125
-84.228515625
-87.890625
-91.552734375
-95.21484375
-94.29931640625
-98.876953125
-94.29931640625
-97.96142578125
-101.62353515625
-108.94775390625
-106.201171875
-108.94775390625
-109.86328125
-106.201171875
-108.94775390625
-100.7080078125
-103.45458984375
-107.11669921875
-108.94775390625
-99.79248046875
-108.0322265625
-100.7080078125
-94.29931640625
-103.45458984375
-103.45458984375
-100.7080078125
-101.62353515625
-106.201171875
-105.28564453125
-104.3701171875
-99.79248046875
-100.7080078125
-100.7080078125
-100.7080078125
-98.876953125
-99.79248046875
-97.96142578125
-99.79248046875
-98.876953125
-97.0458984375
-100.7080078125
-98.876953125
-103.45458984375
-97.0458984375
-97.0458984375
-93.3837890625
-96.13037109375
-96.13037109375
-99.79248046875
-96.13037109375
-104.3701171875
-103.45458984375
-99.79248046875
-95.21484375
-91.552734375
-98.876953125
-94.29931640625
-99.79248046875
