ECG
-41.19873046875
-44.86083984375
-49.4384765625
-55.84716796875
-57.67822265625
-56.7626953125
-50.35400390625
-47.607421875
-54.01611328125
-50.35400390625
-43.02978515625
-47.607421875
-45.7763671875
-38.4521484375
-43.9453125
-52.18505859375
-65.91796875
-75.0732421875
-66.83349609375
-70.49560546875
-65.91796875
-61.34033203125
-58.59375
-58.59375
-59.50927734375
-56.7626953125
-54.01611328125
-55.84716796875
-56.7626953125
-61.34033203125
-55.84716796875
-55.84716796875
-56.7626953125
-62.255859375
-65.00244140625
-64.0869140625
-66.83349609375
-70.49560546875
-65.91796875
-60.4248046875
-52.18505859375
-52.18505859375
-51.26953125
-55.84716796875
-62.255859375
-61.34033203125
-60.4248046875
-62.255859375
-57.67822265625
-67.7490234375
-67.7490234375
-64.0869140625
-54.931640625
-54.931640625
-62.255859375
-59.50927734375
-65.00244140625
-64.0869140625
-62.255859375
-64.0869140625
-60.4248046875
-55.84716796875
-65.00244140625
-64.0869140625
-60.4248046875
-66.83349609375
-72.32666015625
-79.65087890625
-72.32666015625
-60.4248046875
-61.34033203125
-60.4248046875
-62.255859375
-66.83349609375
-81.48193359375
-80.56640625
-84.228515625
-75.0732421875
-66.83349609375
-62.255859375
-57.67822265625
-58.59375
-61.34033203125
-56.7626953125
-57.67822265625
-52.18505859375
-43.9453125
-35.70556640625
-23.8037109375
-17.39501953125
-5.4931640625
0
-3.662109375
-5.4931640625
0
-10.07080078125
-27.4658203125
-24.71923828125
-15.56396484375
-3.662109375
4.57763671875
7.32421875
18.310546875
21.97265625
21.05712890625
11.90185546875
13.73291015625
19.22607421875
23.8037109375
7.32421875
-1.8310546875
7.32421875
18.310546875
19.22607421875
21.97265625
25.634765625
21.05712890625
15.56396484375
5.4931640625
9.1552734375
10.986328125
10.07080078125
-1.8310546875
-19.22607421875
-31.1279296875
-39.36767578125
-47.607421875
-53.1005859375
-50.35400390625
-60.4248046875
-74.15771484375
-85.14404296875
-84.228515625
-83.31298828125
-93.3837890625
-90.63720703125
-95.21484375
-92.46826171875
-85.14404296875
-82.3974609375
-85.14404296875
-94.29931640625
-87.890625
-84.228515625
-76.904296875
-74.15771484375
-81.48193359375
-94.29931640625
-94.29931640625
-97.96142578125
-107.11669921875
-101.62353515625
-97.0458984375
-93.3837890625
-86.0595703125
-93.3837890625
-95.21484375
-86.97509765625
-90.63720703125
-93.3837890625
-94.29931640625
-93.3837890625
-87.890625
-73.2421875
-45.7763671875
-13.73291015625
54.01611328125
140.9912109375
255.43212890625
392.76123046875
536.4990234375
687.56103515625
846.86279296875
999.755859375
1137.0849609375
1273.49853515625
1386.1083984375
1446.533203125
1436.46240234375
1353.1494140625
1177.3681640625
915.52734375
662.841796875
401.91650390625
141.90673828125
12.8173828125
-38.4521484375
-89.7216796875
-125.42724609375
-108.94775390625
-87.890625
-64.0869140625
-33.87451171875
-20.1416015625
-11.90185546875
-7.32421875
-4.57763671875
-0.91552734375
-7.32421875
-10.07080078125
-18.310546875
-24.71923828125
-31.1279296875
-39.36767578125
-37.53662109375
-34.7900390625
-32.04345703125
-23.8037109375
-27.4658203125
-29.296875
-28.38134765625
-26.55029296875
-23.8037109375
-18.310546875
-20.1416015625
-21.05712890625
-17.39501953125
-17.39501953125
-16.4794921875
-14.6484375
-10.986328125
-8.23974609375
5.4931640625
0
3.662109375
21.05712890625
23.8037109375
26.55029296875
17.39501953125
9.1552734375
10.986328125
20.1416015625
26.55029296875
29.296875
21.05712890625
28.38134765625
37.53662109375
36.62109375
46.69189453125
53.1005859375
52.18505859375
63.17138671875
66.83349609375
67.7490234375
69.580078125
75.98876953125
86.97509765625
84.228515625
84.228515625
86.97509765625
91.552734375
102.5390625
113.525390625
120.849609375
121.76513671875
127.25830078125
137.3291015625
146.484375
151.9775390625
151.9775390625
158.38623046875
172.119140625
183.10546875
191.34521484375
195.00732421875
205.078125
214.2333984375
224.30419921875
236.2060546875
249.0234375
255.43212890625
266.41845703125
276.4892578125
280.1513671875
290.22216796875
298.4619140625
302.1240234375
314.02587890625
318.603515625
318.603515625
314.02587890625
329.58984375
335.99853515625
340.576171875
346.0693359375
339.66064453125
338.7451171875
348.81591796875
349.7314453125
346.98486328125
346.0693359375
341.49169921875
336.9140625
327.7587890625
323.18115234375
314.94140625
298.4619140625
292.05322265625
279.23583984375
268.24951171875
253.60107421875
238.037109375
230.712890625
215.14892578125
192.2607421875
170.2880859375
157.470703125
140.07568359375
119.0185546875
106.201171875
102.5390625
90.63720703125
77.81982421875
65.91796875
55.84716796875
30.21240234375
16.4794921875
15.56396484375
13.73291015625
0.91552734375
-3.662109375
-4.57763671875
-10.986328125
-20.1416015625
-30.21240234375
-33.87451171875
-32.04345703125
-35.70556640625
-43.9453125
-48.52294921875
-47.607421875
-53.1005859375
-50.35400390625
-47.607421875
-42.1142578125
-46.69189453125
-46.69189453125
-58.59375
-58.59375
-53.1005859375
-53.1005859375
-57.67822265625
-56.7626953125
-51.26953125
-58.59375
-62.255859375
-63.17138671875
-54.01611328125
-43.02978515625
-42.1142578125
-47.607421875
-44.86083984375
-55.84716796875
-57.67822265625
-61.34033203125
-52.18505859375
-44.86083984375
-52.18505859375
-53.1005859375
-45.7763671875
-49.4384765625
-54.931640625
-57.67822265625
-53.1005859375
-53.1005859375
-53.1005859375
-54.931640625
-57.67822265625
-57.67822265625
-60.4248046875
-60.4248046875
-51.26953125
-49.4384765625
-43.9453125
-45.7763671875
-49.4384765625
-44.86083984375
-48.52294921875
-41.19873046875
-43.02978515625
-43.02978515625
-34.7900390625
-35.70556640625
-42.1142578125
-32.04345703125
-28.38134765625
-38.4521484375
-48.52294921875
-46.69189453125
-44.86083984375
-43.9453125
-36.62109375
-36.62109375
-42.1142578125
-44.86083984375
-37.53662109375
-43.9453125
-57.67822265625
-55.84716796875
-40.283203125
-46.69189453125
-38.4521484375
-34.7900390625
-36.62109375
-41.19873046875
-49.4384765625
-47.607421875
-44.86083984375
-53.1005859375
-61.34033203125
-62.255859375
-55.84716796875
-52.18505859375
-56.7626953125
-61.34033203125
-64.0869140625
-68.66455078125
-54.931640625
-48.52294921875
-45.7763671875
-48.52294921875
-59.50927734375
-54.931640625
-50.35400390625
-54.01611328125
-63.17138671875
-62.255859375
-54.01611328125
-58.59375
-65.00244140625
-73.2421875
-64.0869140625
-64.0869140625
-68.66455078125
-70.49560546875
-68.66455078125
-68.66455078125
-61.34033203125
-60.4248046875
-55.84716796875
-54.931640625
-54.01611328125
-55.84716796875
-58.59375
-65.91796875
-75.98876953125
-82.3974609375
-88.80615234375
-84.228515625
-74.15771484375
-65.91796875
-64.0869140625
-66.83349609375
-66.83349609375
-74.15771484375
-71.4111328125
-68.66455078125
-70.49560546875
-70.49560546875
-69.580078125
-73.2421875
-72.32666015625
-65.91796875
-60.4248046875
-72.32666015625
-84.228515625
-86.0595703125
-77.81982421875
-69.580078125
-62.255859375
-64.0869140625
-62.255859375
-64.0869140625
-70.49560546875
-80.56640625
-86.0595703125
-80.56640625
-69.580078125
-59.50927734375
-58.59375
-62.255859375
-55.84716796875
-44.86083984375
-43.02978515625
-45.7763671875
-40.283203125
-30.21240234375
-30.21240234375
-23.8037109375
-21.05712890625
-26.55029296875
-32.04345703125
-30.21240234375
-31.1279296875
-23.8037109375
-10.07080078125
1.8310546875
1.8310546875
8.23974609375
8.23974609375
8.23974609375
7.32421875
4.57763671875
10.986328125
8.23974609375
0
7.32421875
10.986328125
17.39501953125
19.22607421875
20.1416015625
25.634765625
15.56396484375
-1.8310546875
-7.32421875
-6.40869140625
2.74658203125
-1.8310546875
-34.7900390625
-27.4658203125
-39.36767578125
-51.26953125
-52.18505859375
-65.00244140625
-71.4111328125
-79.65087890625
-86.97509765625
-89.7216796875
-88.80615234375
-87.890625
-93.3837890625
-91.552734375
-89.7216796875
-92.46826171875
-89.7216796875
-88.80615234375
-88.80615234375
-100.7080078125
-113.525390625
-112.60986328125
-108.0322265625
-108.0322265625
-106.201171875
-101.62353515625
-99.79248046875
-97.96142578125
-88.80615234375
-91.552734375
-96.13037109375
-102.5390625
-107.11669921875
-109.86328125
-105.28564453125
-97.96142578125
-101.62353515625
-96.13037109375
-94.29931640625
-97.96142578125
-101.62353515625
-98.876953125
-79.65087890625
-49.4384765625
-4.57763671875
66.83349609375
155.6396484375
279.23583984375
417.48046875
568.54248046875
747.98583984375
917.3583984375
1066.58935546875
1213.07373046875
1333.92333984375
1411.7431640625
1418.15185546875
1361.38916015625
1221.3134765625
992.431640625
729.67529296875
478.82080078125
197.75390625
19.22607421875
-32.04345703125
-66.83349609375
-102.5390625
-129.08935546875
-130.0048828125
-118.10302734375
-102.5390625
-88.80615234375
-72.32666015625
-49.4384765625
-26.55029296875
-24.71923828125
-26.55029296875
-33.87451171875
-38.4521484375
-44.86083984375
-47.607421875
-41.19873046875
-44.86083984375
-40.283203125
-41.19873046875
-41.19873046875
-37.53662109375
-40.283203125
-40.283203125
-43.02978515625
-39.36767578125
-33.87451171875
-30.21240234375
-24.71923828125
-23.8037109375
-25.634765625
-27.4658203125
-24.71923828125
-16.4794921875
-11.90185546875
-15.56396484375
-17.39501953125
-21.05712890625
-13.73291015625
-2.74658203125
8.23974609375
10.986328125
8.23974609375
11.90185546875
14.6484375
21.05712890625
21.05712890625
26.55029296875
26.55029296875
35.70556640625
37.53662109375
40.283203125
40.283203125
46.69189453125
65.91796875
59.50927734375
55.84716796875
65.00244140625
63.17138671875
69.580078125
77.81982421875
85.14404296875
88.80615234375
84.228515625
95.21484375
105.28564453125
110.77880859375
128.173828125
143.73779296875
142.822265625
143.73779296875
146.484375
150.146484375
156.55517578125
162.9638671875
158.38623046875
170.2880859375
184.9365234375
198.66943359375
211.48681640625
218.81103515625
227.96630859375
245.361328125
253.60107421875
255.43212890625
261.8408203125
271.91162109375
282.89794921875
299.37744140625
312.19482421875
324.0966796875
333.251953125
331.4208984375
330.50537109375
343.32275390625
357.0556640625
340.576171875
339.66064453125
341.49169921875
355.224609375
362.548828125
348.81591796875
342.4072265625
345.15380859375
332.33642578125
325.927734375
325.927734375
319.51904296875
321.35009765625
329.58984375
303.955078125
274.658203125
258.1787109375
247.1923828125
229.79736328125
215.14892578125
200.50048828125
184.02099609375
158.38623046875
151.9775390625
146.484375
130.0048828125
105.28564453125
91.552734375
77.81982421875
57.67822265625
48.52294921875
34.7900390625
18.310546875
11.90185546875
8.23974609375
1.8310546875
8.23974609375
9.1552734375
-6.40869140625
-21.05712890625
-16.4794921875
-11.90185546875
-39.36767578125
-49.4384765625
-50.35400390625
-52.18505859375
-60.4248046875
-59.50927734375
-54.01611328125
-41.19873046875
-46.69189453125
-52.18505859375
-62.255859375
-58.59375
-61.34033203125
-80.56640625
-74.15771484375
-68.66455078125
-62.255859375
-64.0869140625
-61.34033203125
-61.34033203125
-61.34033203125
-65.00244140625
-63.17138671875
-58.59375
-61.34033203125
-59.50927734375
-64.0869140625
-63.17138671875
-56.7626953125
-67.7490234375
-72.32666015625
-74.15771484375
-73.2421875
-58.59375
-52.18505859375
-62.255859375
-66.83349609375
-66.83349609375
-63.17138671875
-67.7490234375
-55.84716796875
-44.86083984375
-58.59375
-58.59375
-44.86083984375
-33.87451171875
-39.36767578125
-39.36767578125
-50.35400390625
-58.59375
-57.67822265625
-53.1005859375
-54.931640625
-54.01611328125
-53.1005859375
-49.4384765625
-45.7763671875
-50.35400390625
-49.4384765625
-40.283203125
-40.283203125
-39.36767578125
-32.04345703125
-49.4384765625
-52.18505859375
-52.18505859375
-43.02978515625
-42.1142578125
-41.19873046875
-52.18505859375
-60.4248046875
-60.4248046875
-58.59375
-56.7626953125
-54.01611328125
-53.1005859375
-50.35400390625
-49.4384765625
-49.4384765625
-44.86083984375
-48.52294921875
-55.84716796875
-51.26953125
-56.7626953125
-54.931640625
-56.7626953125
-69.580078125
-86.0595703125
-81.48193359375
-72.32666015625
-65.00244140625
-62.255859375
-67.7490234375
-71.4111328125
-67.7490234375
-69.580078125
-68.66455078125
-55.84716796875
-63.17138671875
-72.32666015625
-65.00244140625
-64.0869140625
-63.17138671875
-64.0869140625
-62.255859375
-69.580078125
-63.17138671875
-55.84716796875
-64.0869140625
-79.65087890625
-85.14404296875
-84.228515625
-82.3974609375
-79.65087890625
-71.4111328125
-67.7490234375
-65.91796875
-78.7353515625
-84.228515625
-89.7216796875
-97.0458984375
-96.13037109375
-89.7216796875
-86.0595703125
-74.15771484375
-71.4111328125
-67.7490234375
-72.32666015625
-78.7353515625
-85.14404296875
-80.56640625
-82.3974609375
-85.14404296875
-84.228515625
-85.14404296875
-85.14404296875
-80.56640625
-77.81982421875
-81.48193359375
-86.0595703125
-86.97509765625
-85.14404296875
-87.890625
-84.228515625
-80.56640625
-78.7353515625
-79.65087890625
-84.228515625
-94.29931640625
-93.3837890625
-100.7080078125
-92.46826171875
-81.48193359375
-82.3974609375
-84.228515625
-82.3974609375
-78.7353515625
-86.97509765625
-96.13037109375
-97.96142578125
-86.97509765625
-86.97509765625
-90.63720703125
-77.81982421875
-89.7216796875
-95.21484375
-84.228515625
-85.14404296875
-90.63720703125
-86.97509765625
-92.46826171875
-81.48193359375
-86.0595703125
-95.21484375
-89.7216796875
-83.31298828125
-85.14404296875
-80.56640625
-85.14404296875
-85.14404296875
-90.63720703125
-92.46826171875
-75.98876953125
-75.98876953125
-79.65087890625
-74.15771484375
-67.7490234375
-61.34033203125
-54.01611328125
-53.1005859375
-40.283203125
-24.71923828125
-31.1279296875
-26.55029296875
-20.1416015625
-27.4658203125
-39.36767578125
-42.1142578125
-49.4384765625
-58.59375
-48.52294921875
-27.4658203125
-18.310546875
-17.39501953125
-18.310546875
-8.23974609375
0.91552734375
-7.32421875
-5.4931640625
1.8310546875
0
-2.74658203125
-0.91552734375
5.4931640625
7.32421875
7.32421875
6.40869140625
1.8310546875
-0.91552734375
-18.310546875
-18.310546875
-16.4794921875
-13.73291015625
-23.8037109375
-32.958984375
-45.7763671875
-41.19873046875
-54.931640625
-72.32666015625
-74.15771484375
-76.904296875
-75.98876953125
-80.56640625
-86.97509765625
-91.552734375
-96.13037109375
-97.0458984375
-107.11669921875
-110.77880859375
-105.28564453125
-102.5390625
-104.3701171875
-104.3701171875
-108.94775390625
-111.6943359375
-108.94775390625
-114.44091796875
-118.10302734375
-119.0185546875
-118.10302734375
-122.6806640625
-123.59619140625
-119.0185546875
-115.3564453125
-118.10302734375
-115.3564453125
-109.86328125
-107.11669921875
-108.94775390625
-103.45458984375
-103.45458984375
-108.94775390625
-102.5390625
-97.96142578125
-92.46826171875
-97.96142578125
-88.80615234375
-63.17138671875
-27.4658203125
46.69189453125
142.822265625
265.5029296875
388.18359375
525.5126953125
685.72998046875
851.4404296875
1015.31982421875
1170.95947265625
1314.697265625
1403.50341796875
1436.46240234375
1421.81396484375
1327.5146484375
1134.33837890625
869.7509765625
617.98095703125
344.23828125
100.7080078125
-10.07080078125
-64.0869140625
-112.60986328125
-125.42724609375
-118.10302734375
-101.62353515625
-69.580078125
-44.86083984375
-38.4521484375
-42.1142578125
-40.283203125
-35.70556640625
-43.02978515625
-38.4521484375
-36.62109375
-43.02978515625
-53.1005859375
-56.7626953125
-50.35400390625
-43.02978515625
-42.1142578125
-54.01611328125
-56.7626953125
-49.4384765625
-46.69189453125
-47.607421875
-43.02978515625
-33.87451171875
-30.21240234375
-28.38134765625
-23.8037109375
-21.97265625
-17.39501953125
-18.310546875
-25.634765625
-31.1279296875
-23.8037109375
-16.4794921875
-19.22607421875
-17.39501953125
-13.73291015625
-6.40869140625
1.8310546875
5.4931640625
1.8310546875
11.90185546875
14.6484375
8.23974609375
13.73291015625
17.39501953125
11.90185546875
14.6484375
27.4658203125
25.634765625
34.7900390625
33.87451171875
29.296875
43.02978515625
52.18505859375
46.69189453125
51.26953125
60.4248046875
64.0869140625
74.15771484375
82.3974609375
81.48193359375
87.890625
98.876953125
106.201171875
108.0322265625
114.44091796875
115.3564453125
124.51171875
133.6669921875
140.07568359375
153.80859375
166.6259765625
181.2744140625
188.5986328125
195.9228515625
196.83837890625
202.33154296875
206.9091796875
215.14892578125
226.13525390625
235.29052734375
241.69921875
258.1787109375
273.74267578125
290.22216796875
305.7861328125
294.7998046875
295.71533203125
307.6171875
324.0966796875
325.927734375
320.4345703125
325.927734375
327.7587890625
327.7587890625
331.4208984375
327.7587890625
339.66064453125
347.900390625
342.4072265625
337.82958984375
332.33642578125
333.251953125
332.33642578125
326.84326171875
319.51904296875
298.4619140625
286.56005859375
274.658203125
260.009765625
246.27685546875
229.79736328125
208.740234375
187.68310546875
172.119140625
159.3017578125
148.3154296875
139.16015625
120.849609375
110.77880859375
100.7080078125
81.48193359375
59.50927734375
46.69189453125
36.62109375
24.71923828125
10.07080078125
17.39501953125
21.97265625
5.4931640625
-13.73291015625
-26.55029296875
-46.69189453125
-45.7763671875
-54.931640625
-54.931640625
-55.84716796875
-65.00244140625
-63.17138671875
-57.67822265625
-62.255859375
-65.91796875
-63.17138671875
-60.4248046875
-60.4248046875
-65.00244140625
-65.00244140625
-68.66455078125
-72.32666015625
-74.15771484375
-67.7490234375
-63.17138671875
-60.4248046875
-54.931640625
-63.17138671875
-61.34033203125
-62.255859375
-62.255859375
-63.17138671875
-71.4111328125
-67.7490234375
-65.91796875
-75.0732421875
-79.65087890625
-64.0869140625
-58.59375
-68.66455078125
-58.59375
-54.931640625
-54.931640625
-58.59375
-64.0869140625
-52.18505859375
-54.01611328125
-55.84716796875
-54.01611328125
-61.34033203125
-62.255859375
-49.4384765625
-51.26953125
-57.67822265625
-57.67822265625
-58.59375
-62.255859375
-62.255859375
-57.67822265625
-51.26953125
-54.01611328125
-46.69189453125
-47.607421875
-52.18505859375
-47.607421875
-32.958984375
-20.1416015625
-32.04345703125
-48.52294921875
-48.52294921875
-53.1005859375
-60.4248046875
-57.67822265625
-56.7626953125
-50.35400390625
-54.01611328125
-51.26953125
-54.01611328125
-47.607421875
-39.36767578125
-49.4384765625
-48.52294921875
-34.7900390625
-43.02978515625
-50.35400390625
-47.607421875
-43.02978515625
-43.9453125
-55.84716796875
-56.7626953125
-61.34033203125
-60.4248046875
-54.931640625
-56.7626953125
-55.84716796875
-63.17138671875
-60.4248046875
-55.84716796875
-53.1005859375
-55.84716796875
-63.17138671875
-69.580078125
-69.580078125
-72.32666015625
-70.49560546875
-72.32666015625
-75.0732421875
-65.00244140625
-60.4248046875
-63.17138671875
-63.17138671875
-59.50927734375
-68.66455078125
-71.4111328125
-74.15771484375
-72.32666015625
-73.2421875
-73.2421875
-74.15771484375
-70.49560546875
-68.66455078125
-68.66455078125
-65.91796875
-65.00244140625
-68.66455078125
-74.15771484375
-73.2421875
-77.81982421875
-81.48193359375
-73.2421875
-66.83349609375
-59.50927734375
-74.15771484375
-85.14404296875
-86.97509765625
-73.2421875
-69.580078125
-76.904296875
-84.228515625
-88.80615234375
-79.65087890625
-76.904296875
-82.3974609375
-88.80615234375
-90.63720703125
-88.80615234375
-86.97509765625
-86.97509765625
-85.14404296875
-85.14404296875
-81.48193359375
-92.46826171875
-86.0595703125
-85.14404296875
-84.228515625
-84.228515625
-80.56640625
-83.31298828125
-97.0458984375
-86.97509765625
-75.0732421875
-73.2421875
-80.56640625
-97.0458984375
-93.3837890625
-93.3837890625
-95.21484375
-92.46826171875
-86.0595703125
-79.65087890625
-80.56640625
-82.3974609375
-80.56640625
-86.0595703125
-90.63720703125
-93.3837890625
-82.3974609375
-86.0595703125
-87.890625
-89.7216796875
-93.3837890625
-84.228515625
-81.48193359375
-85.14404296875
-96.13037109375
-80.56640625
-88.80615234375
-93.3837890625
-88.80615234375
-87.890625
-88.80615234375
-85.14404296875
-75.0732421875
-85.14404296875
-84.228515625
-83.31298828125
-87.890625
-84.228515625
-88.80615234375
-92.46826171875
-95.21484375
-97.0458984375
-90.63720703125
-85.14404296875
-82.3974609375
-93.3837890625
-89.7216796875
-81.48193359375
-75.0732421875
-77.81982421875
-69.580078125
-56.7626953125
-54.931640625
-56.7626953125
-54.01611328125
-43.02978515625
-31.1279296875
-28.38134765625
-28.38134765625
-27.4658203125
-30.21240234375
-30.21240234375
-27.4658203125
-27.4658203125
-25.634765625
-30.21240234375
-27.4658203125
-12.8173828125
-5.4931640625
-12.8173828125
-16.4794921875
-9.1552734375
-0.91552734375
-13.73291015625
-18.310546875
-7.32421875
-9.1552734375
-3.662109375
-4.57763671875
-8.23974609375
-14.6484375
-23.8037109375
-30.21240234375
-28.38134765625
-28.38134765625
-21.97265625
-24.71923828125
-35.70556640625
-43.02978515625
-49.4384765625
-73.2421875
-85.14404296875
-84.228515625
-78.7353515625
-85.14404296875
-97.96142578125
-105.28564453125
-109.86328125
-108.94775390625
-109.86328125
-105.28564453125
-99.79248046875
-101.62353515625
-102.5390625
-106.201171875
-110.77880859375
-115.3564453125
-113.525390625
-109.86328125
-105.28564453125
-114.44091796875
-113.525390625
-111.6943359375
-108.94775390625
-111.6943359375
-115.3564453125
-119.0185546875
-118.10302734375
-118.10302734375
-126.3427734375
-123.59619140625
-127.25830078125
-113.525390625
-106.201171875
-108.94775390625
-110.77880859375
-100.7080078125
-94.29931640625
-106.201171875
-96.13037109375
-74.15771484375
-46.69189453125
20.1416015625
113.525390625
222.47314453125
344.23828125
471.49658203125
623.47412109375
783.69140625
943.90869140625
1093.1396484375
1251.52587890625
1377.86865234375
1443.78662109375
1444.7021484375
1376.953125
1222.22900390625
972.2900390625
721.435546875
461.42578125
179.443359375
21.97265625
-54.01611328125
-96.13037109375
-126.3427734375
-128.173828125
-103.45458984375
-79.65087890625
-48.52294921875
-36.62109375
-34.7900390625
-24.71923828125
-17.39501953125
-23.8037109375
-33.87451171875
-32.958984375
-43.9453125
-44.86083984375
-48.52294921875
-48.52294921875
-51.26953125
-58.59375
-55.84716796875
-47.607421875
-36.62109375
-40.283203125
-40.283203125
-38.4521484375
-39.36767578125
-39.36767578125
-37.53662109375
-34.7900390625
-36.62109375
-30.21240234375
-23.8037109375
-20.1416015625
-17.39501953125
-21.05712890625
-26.55029296875
-18.310546875
-20.1416015625
-19.22607421875
-13.73291015625
-7.32421875
-0.91552734375
-0.91552734375
3.662109375
-1.8310546875
0.91552734375
2.74658203125
16.4794921875
23.8037109375
22.88818359375
27.4658203125
32.04345703125
23.8037109375
26.55029296875
33.87451171875
31.1279296875
32.04345703125
43.02978515625
61.34033203125
64.0869140625
66.83349609375
75.0732421875
79.65087890625
77.81982421875
82.3974609375
86.0595703125
93.3837890625
111.6943359375
119.93408203125
124.51171875
125.42724609375
133.6669921875
144.6533203125
151.06201171875
148.3154296875
164.794921875
177.6123046875
190.4296875
196.83837890625
205.99365234375
211.48681640625
224.30419921875
230.712890625
232.5439453125
243.5302734375
253.60107421875
260.92529296875
283.8134765625
292.05322265625
298.4619140625
315.85693359375
322.265625
324.0966796875
323.18115234375
331.4208984375
333.251953125
331.4208984375
327.7587890625
329.58984375
336.9140625
344.23828125
347.900390625
344.23828125
340.576171875
346.0693359375
333.251953125
320.4345703125
313.1103515625
312.19482421875
303.955078125
298.4619140625
292.96875
275.57373046875
256.34765625
242.61474609375
224.30419921875
207.82470703125
191.34521484375
175.78125
165.71044921875
157.470703125
154.72412109375
140.9912109375
110.77880859375
74.15771484375
66.83349609375
54.931640625
34.7900390625
30.21240234375
23.8037109375
16.4794921875
1.8310546875
-13.73291015625
-21.97265625
-31.1279296875
-31.1279296875
-38.4521484375
-45.7763671875
-44.86083984375
-41.19873046875
-45.7763671875
-50.35400390625
-54.931640625
-55.84716796875
-60.4248046875
-63.17138671875
-62.255859375
-69.580078125
-73.2421875
-60.4248046875
-55.84716796875
-62.255859375
-68.66455078125
-64.0869140625
-53.1005859375
-61.34033203125
-70.49560546875
-82.3974609375
-87.890625
-79.65087890625
-77.81982421875
-68.66455078125
-67.7490234375
-57.67822265625
-70.49560546875
-75.98876953125
-69.580078125
-65.00244140625
-54.931640625
-64.0869140625
-70.49560546875
-67.7490234375
-69.580078125
-67.7490234375
-67.7490234375
-68.66455078125
-69.580078125
-70.49560546875
-62.255859375
-61.34033203125
-65.91796875
-65.00244140625
-51.26953125
-50.35400390625
-66.83349609375
-68.66455078125
-71.4111328125
-72.32666015625
-61.34033203125
-44.86083984375
-34.7900390625
-39.36767578125
-62.255859375
-72.32666015625
-71.4111328125
-74.15771484375
-67.7490234375
-65.00244140625
-65.91796875
-66.83349609375
-54.931640625
-48.52294921875
-62.255859375
-62.255859375
-58.59375
-51.26953125
-46.69189453125
-54.01611328125
-65.91796875
-62.255859375
-43.9453125
-45.7763671875
-62.255859375
-62.255859375
-56.7626953125
-55.84716796875
-52.18505859375
-54.01611328125
-52.18505859375
-48.52294921875
-56.7626953125
-52.18505859375
-68.66455078125
-76.904296875
-68.66455078125
-60.4248046875
-59.50927734375
-52.18505859375
-64.0869140625
-72.32666015625
-66.83349609375
-72.32666015625
-65.91796875
-64.0869140625
-64.0869140625
-75.0732421875
-80.56640625
-85.14404296875
-72.32666015625
-71.4111328125
-80.56640625
-76.904296875
-70.49560546875
-85.14404296875
-80.56640625
-80.56640625
-78.7353515625
-73.2421875
-72.32666015625
-75.0732421875
-80.56640625
-84.228515625
-79.65087890625
-79.65087890625
-87.890625
-81.48193359375
-82.3974609375
-75.98876953125
-77.81982421875
-80.56640625
-78.7353515625
-86.0595703125
-82.3974609375
-82.3974609375
-81.48193359375
-76.904296875
-79.65087890625
-95.21484375
-93.3837890625
-97.0458984375
-100.7080078125
-108.94775390625
-95.21484375
-93.3837890625
-97.96142578125
-93.3837890625
-91.552734375
-95.21484375
-93.3837890625
-89.7216796875
-85.14404296875
-95.21484375
-93.3837890625
-84.228515625
-92.46826171875
-97.96142578125
-86.97509765625
-92.46826171875
-96.13037109375
-94.29931640625
-108.0322265625
-100.7080078125
-95.21484375
-95.21484375
-82.3974609375
-80.56640625
-75.98876953125
-93.3837890625
-90.63720703125
-81.48193359375
-75.98876953125
-82.3974609375
-89.7216796875
-103.45458984375
-102.5390625
-97.96142578125
-96.13037109375
-93.3837890625
-92.46826171875
-93.3837890625
-107.11669921875
-104.3701171875
-90.63720703125
-94.29931640625
-95.21484375
-90.63720703125
-79.65087890625
-90.63720703125
-83.31298828125
-82.3974609375
-98.876953125
-103.45458984375
-97.96142578125
-92.46826171875
-95.21484375
-93.3837890625
-89.7216796875
-91.552734375
-94.29931640625
-89.7216796875
-92.46826171875
-92.46826171875
-93.3837890625
-93.3837890625
-95.21484375
-99.79248046875
-86.97509765625
-90.63720703125
-92.46826171875
-80.56640625
-91.552734375
-93.3837890625
-85.14404296875
-79.65087890625
-75.98876953125
-63.17138671875
-54.01611328125
-53.1005859375
-60.4248046875
-59.50927734375
-56.7626953125
-51.26953125
-48.52294921875
-56.7626953125
-59.50927734375
-58.59375
-53.1005859375
-56.7626953125
-48.52294921875
-35.70556640625
-27.4658203125
-29.296875
-30.21240234375
-24.71923828125
-28.38134765625
-16.4794921875
-21.97265625
-23.8037109375
-22.88818359375
-18.310546875
-15.56396484375
-22.88818359375
-23.8037109375
-19.22607421875
-9.1552734375
-10.986328125
-14.6484375
-15.56396484375
-14.6484375
-21.97265625
-40.283203125
-45.7763671875
-51.26953125
-52.18505859375
-67.7490234375
-75.0732421875
-83.31298828125
-86.97509765625
-95.21484375
-109.86328125
-117.1875
-106.201171875
-89.7216796875
-103.45458984375
-111.6943359375
-111.6943359375
-115.3564453125
-122.6806640625
-116.27197265625
-117.1875
-111.6943359375
-103.45458984375
-116.27197265625
-124.51171875
-127.25830078125
-123.59619140625
-115.3564453125
-110.77880859375
-119.0185546875
-130.92041015625
-127.25830078125
-122.6806640625
-118.10302734375
-107.11669921875
-117.1875
-121.76513671875
-111.6943359375
-101.62353515625
-104.3701171875
-115.3564453125
-106.201171875
-115.3564453125
-121.76513671875
-108.0322265625
-71.4111328125
-39.36767578125
2.74658203125
67.7490234375
162.04833984375
300.29296875
439.453125
605.16357421875
808.41064453125
966.796875
1107.7880859375
1246.03271484375
1353.1494140625
1417.236328125
1415.4052734375
1340.33203125
1175.537109375
945.73974609375
685.72998046875
438.53759765625
163.87939453125
16.4794921875
-42.1142578125
-75.0732421875
-122.6806640625
-151.9775390625
-138.24462890625
-126.3427734375
-116.27197265625
-97.0458984375
-68.66455078125
-35.70556640625
-28.38134765625
-29.296875
-29.296875
-34.7900390625
-43.02978515625
-47.607421875
-50.35400390625
-70.49560546875
-68.66455078125
-67.7490234375
-65.91796875
-60.4248046875
-54.01611328125
-48.52294921875
-57.67822265625
-52.18505859375
-50.35400390625
-44.86083984375
-36.62109375
-24.71923828125
-18.310546875
-32.958984375
-38.4521484375
-43.02978515625
-43.9453125
-40.283203125
-29.296875
-27.4658203125
-28.38134765625
-14.6484375
-7.32421875
-5.4931640625
-7.32421875
-8.23974609375
-6.40869140625
-10.07080078125
-6.40869140625
7.32421875
12.8173828125
17.39501953125
14.6484375
25.634765625
19.22607421875
18.310546875
20.1416015625
33.87451171875
43.9453125
53.1005859375
57.67822265625
56.7626953125
57.67822265625
52.18505859375
59.50927734375
65.91796875
77.81982421875
97.0458984375
92.46826171875
90.63720703125
106.201171875
102.5390625
104.3701171875
105.28564453125
120.849609375
144.6533203125
151.06201171875
154.72412109375
153.80859375
164.794921875
177.6123046875
187.68310546875
179.443359375
191.34521484375
206.9091796875
221.5576171875
234.375
249.93896484375
257.26318359375
263.671875
273.74267578125
289.306640625
296.630859375
303.03955078125
306.70166015625
306.70166015625
315.85693359375
318.603515625
324.0966796875
331.4208984375
345.15380859375
354.30908203125
353.3935546875
347.900390625
358.88671875
357.0556640625
349.7314453125
349.7314453125
339.66064453125
321.35009765625
314.02587890625
305.7861328125
300.29296875
292.05322265625
281.982421875
273.74267578125
258.1787109375
247.1923828125
233.45947265625
210.5712890625
195.00732421875
174.86572265625
160.21728515625
149.23095703125
137.3291015625
107.11669921875
86.97509765625
76.904296875
55.84716796875
44.86083984375
40.283203125
38.4521484375
20.1416015625
6.40869140625
-0.91552734375
-6.40869140625
-10.07080078125
-27.4658203125
-40.283203125
-36.62109375
-41.19873046875
-43.9453125
-43.02978515625
-51.26953125
-54.931640625
-54.01611328125
-58.59375
-68.66455078125
-69.580078125
-67.7490234375
-58.59375
-60.4248046875
-62.255859375
-54.931640625
-69.580078125
-77.81982421875
-77.81982421875
-86.0595703125
-90.63720703125
-82.3974609375
-75.98876953125
-68.66455078125
-79.65087890625
-68.66455078125
-80.56640625
-83.31298828125
-75.0732421875
-74.15771484375
-87.890625
-94.29931640625
-90.63720703125
-79.65087890625
-82.3974609375
-91.552734375
-85.14404296875
-76.904296875
-75.98876953125
-64.0869140625
-59.50927734375
-73.2421875
-71.4111328125
-63.17138671875
-65.00244140625
-75.0732421875
-77.81982421875
-73.2421875
-68.66455078125
-72.32666015625
-62.255859375
-65.91796875
-72.32666015625
-65.00244140625
-55.84716796875
-53.1005859375
-59.50927734375
-54.01611328125
-54.01611328125
-73.2421875
-73.2421875
-70.49560546875
-61.34033203125
-56.7626953125
-59.50927734375
-74.15771484375
-65.00244140625
-54.01611328125
-54.931640625
-44.86083984375
-53.1005859375
-59.50927734375
-46.69189453125
-54.931640625
-65.00244140625
-61.34033203125
-51.26953125
-54.931640625
-63.17138671875
-64.0869140625
-72.32666015625
-65.00244140625
-46.69189453125
-43.9453125
-65.00244140625
-61.34033203125
-61.34033203125
-66.83349609375
-75.0732421875
-77.81982421875
-75.0732421875
-65.91796875
-52.18505859375
-55.84716796875
-62.255859375
-67.7490234375
-69.580078125
-59.50927734375
-61.34033203125
-73.2421875
-79.65087890625
-80.56640625
-68.66455078125
-68.66455078125
-68.66455078125
-71.4111328125
-75.0732421875
-84.228515625
-93.3837890625
-97.0458984375
-87.890625
-84.228515625
-77.81982421875
-70.49560546875
-75.98876953125
-85.14404296875
-86.0595703125
-86.0595703125
-93.3837890625
-93.3837890625
-93.3837890625
-94.29931640625
-97.0458984375
-98.876953125
-97.0458984375
-86.0595703125
-77.81982421875
-80.56640625
-67.7490234375
-79.65087890625
-90.63720703125
-99.79248046875
-98.876953125
-95.21484375
-90.63720703125
-80.56640625
-85.14404296875
-80.56640625
-80.56640625
-99.79248046875
-97.0458984375
-92.46826171875
-91.552734375
-88.80615234375
-95.21484375
-100.7080078125
-101.62353515625
-100.7080078125
-99.79248046875
-93.3837890625
-89.7216796875
-91.552734375
-96.13037109375
-100.7080078125
-101.62353515625
-100.7080078125
-103.45458984375
-92.46826171875
-99.79248046875
-99.79248046875
-96.13037109375
-90.63720703125
-86.0595703125
-84.228515625
-95.21484375
-97.0458984375
-101.62353515625
-103.45458984375
-97.0458984375
-87.890625
-92.46826171875
-95.21484375
-101.62353515625
-93.3837890625
-93.3837890625
-97.0458984375
-96.13037109375
-82.3974609375
-79.65087890625
-92.46826171875
-86.0595703125
-81.48193359375
-96.13037109375
-102.5390625
-104.3701171875
-105.28564453125
-114.44091796875
-108.0322265625
-94.29931640625
-97.0458984375
-97.0458984375
-92.46826171875
-90.63720703125
-86.97509765625
-75.98876953125
-74.15771484375
-67.7490234375
-59.50927734375
-53.1005859375
-39.36767578125
-43.9453125
-53.1005859375
-37.53662109375
-30.21240234375
-36.62109375
-58.59375
-58.59375
-54.01611328125
-45.7763671875
-43.02978515625
-36.62109375
-35.70556640625
-31.1279296875
-31.1279296875
-23.8037109375
-18.310546875
-26.55029296875
-32.958984375
-29.296875
-26.55029296875
-33.87451171875
-38.4521484375
-39.36767578125
-38.4521484375
-28.38134765625
-31.1279296875
-32.04345703125
-32.04345703125
-32.958984375
-41.19873046875
-44.86083984375
-52.18505859375
-67.7490234375
-73.2421875
-68.66455078125
-73.2421875
-88.80615234375
-101.62353515625
-106.201171875
-114.44091796875
-120.849609375
-119.0185546875
-109.86328125
-109.86328125
-97.96142578125
-108.94775390625
-118.10302734375
-126.3427734375
-119.0185546875
-117.1875
-111.6943359375
-112.60986328125
-123.59619140625
-123.59619140625
-120.849609375
-122.6806640625
-110.77880859375
-100.7080078125
-102.5390625
-103.45458984375
-121.76513671875
-130.0048828125
-135.498046875
-139.16015625
-130.92041015625
-127.25830078125
-117.1875
-123.59619140625
-117.1875
-103.45458984375
-114.44091796875
-103.45458984375
-94.29931640625
-86.0595703125
-65.00244140625
-27.4658203125
42.1142578125
131.8359375
245.361328125
385.43701171875
531.92138671875
697.6318359375
874.32861328125
1027.2216796875
1173.7060546875
1328.43017578125
1431.884765625
1473.08349609375
1438.29345703125
1326.59912109375
1118.7744140625
845.947265625
596.923828125
331.4208984375
96.13037109375
-11.90185546875
-69.580078125
-111.6943359375
-124.51171875
-122.6806640625
-109.86328125
-92.46826171875
-60.4248046875
-42.1142578125
-28.38134765625
-18.310546875
-21.05712890625
-39.36767578125
-40.283203125
-41.19873046875
-38.4521484375
-45.7763671875
-53.1005859375
-51.26953125
-57.67822265625
-68.66455078125
-65.91796875
-57.67822265625
-53.1005859375
-43.9453125
-40.283203125
-41.19873046875
-44.86083984375
-34.7900390625
-32.958984375
-33.87451171875
-30.21240234375
-36.62109375
-32.958984375
-33.87451171875
-35.70556640625
-32.04345703125
-22.88818359375
-2.74658203125
-0.91552734375
-10.986328125
-6.40869140625
1.8310546875
1.8310546875
-8.23974609375
-9.1552734375
-4.57763671875
-0.91552734375
6.40869140625
7.32421875
6.40869140625
21.05712890625
32.04345703125
43.9453125
53.1005859375
43.02978515625
43.02978515625
41.19873046875
54.931640625
56.7626953125
55.84716796875
75.0732421875
72.32666015625
70.49560546875
67.7490234375
70.49560546875
85.14404296875
100.7080078125
111.6943359375
109.86328125
105.28564453125
106.201171875
114.44091796875
124.51171875
143.73779296875
148.3154296875
148.3154296875
164.794921875
181.2744140625
184.9365234375
196.83837890625
201.416015625
211.48681640625
227.05078125
230.712890625
240.78369140625
250.8544921875
268.24951171875
284.72900390625
283.8134765625
292.96875
300.29296875
304.87060546875
309.4482421875
322.265625
319.51904296875
327.7587890625
337.82958984375
340.576171875
349.7314453125
361.63330078125
356.14013671875
348.81591796875
364.3798828125
373.53515625
356.14013671875
339.66064453125
340.576171875
339.66064453125
327.7587890625
310.36376953125
308.53271484375
293.88427734375
279.23583984375
278.3203125
269.1650390625
245.361328125
222.47314453125
202.33154296875
183.10546875
166.6259765625
156.55517578125
138.24462890625
131.8359375
115.3564453125
86.0595703125
80.56640625
68.66455078125
53.1005859375
33.87451171875
22.88818359375
18.310546875
3.662109375
-10.07080078125
-19.22607421875
-21.05712890625
-27.4658203125
-30.21240234375
-21.05712890625
-43.9453125
-53.1005859375
-64.0869140625
-62.255859375
-61.34033203125
-61.34033203125
-57.67822265625
-65.00244140625
-71.4111328125
-69.580078125
-70.49560546875
-71.4111328125
-74.15771484375
-67.7490234375
-65.00244140625
-75.0732421875
-84.228515625
-85.14404296875
-76.904296875
-73.2421875
-69.580078125
-74.15771484375
-79.65087890625
-81.48193359375
-80.56640625
-80.56640625
-72.32666015625
-73.2421875
-75.98876953125
-83.31298828125
-84.228515625
-77.81982421875
-77.81982421875
-75.0732421875
-79.65087890625
-69.580078125
-68.66455078125
-69.580078125
-61.34033203125
-64.0869140625
-68.66455078125
-70.49560546875
-79.65087890625
-85.14404296875
-75.0732421875
-65.91796875
-65.00244140625
-68.66455078125
-70.49560546875
-64.0869140625
-66.83349609375
-71.4111328125
-72.32666015625
-69.580078125
-57.67822265625
-53.1005859375
-57.67822265625
-59.50927734375
-55.84716796875
-50.35400390625
-57.67822265625
-56.7626953125
-72.32666015625
-69.580078125
-61.34033203125
-69.580078125
-68.66455078125
-60.4248046875
-57.67822265625
-65.00244140625
-62.255859375
-58.59375
-54.01611328125
-60.4248046875
-54.01611328125
-59.50927734375
-74.15771484375
-71.4111328125
-76.904296875
-70.49560546875
-55.84716796875
-63.17138671875
-69.580078125
-67.7490234375
-55.84716796875
-52.18505859375
-71.4111328125
-73.2421875
-75.98876953125
-75.98876953125
-85.14404296875
-82.3974609375
-79.65087890625
-80.56640625
-72.32666015625
-60.4248046875
-69.580078125
-76.904296875
-66.83349609375
-60.4248046875
-68.66455078125
-76.904296875
-83.31298828125
-79.65087890625
-75.98876953125
-83.31298828125
-75.0732421875
-75.0732421875
-77.81982421875
-75.98876953125
-72.32666015625
-57.67822265625
-77.81982421875
-92.46826171875
-86.97509765625
-82.3974609375
-87.890625
-86.97509765625
-88.80615234375
-88.80615234375
-91.552734375
-97.0458984375
-93.3837890625
-92.46826171875
-92.46826171875
-98.876953125
-102.5390625
-94.29931640625
-85.14404296875
-87.890625
-84.228515625
-89.7216796875
-92.46826171875
-90.63720703125
-87.890625
-82.3974609375
-86.0595703125
-81.48193359375
-91.552734375
-91.552734375
-91.552734375
-96.13037109375
-93.3837890625
-92.46826171875
-92.46826171875
-98.876953125
-98.876953125
-94.29931640625
-90.63720703125
-86.0595703125
-95.21484375
-95.21484375
-90.63720703125
-90.63720703125
-94.29931640625
-98.876953125
-106.201171875
-105.28564453125
-101.62353515625
-94.29931640625
-103.45458984375
-102.5390625
-97.96142578125
-101.62353515625
-98.876953125
-96.13037109375
-95.21484375
-91.552734375
-96.13037109375
-106.201171875
-97.0458984375
-97.0458984375
-86.97509765625
-86.97509765625
-92.46826171875
-89.7216796875
-99.79248046875
-96.13037109375
-94.29931640625
-87.890625
-87.890625
-96.13037109375
-103.45458984375
-99.79248046875
-99.79248046875
-91.552734375
-86.97509765625
-82.3974609375
-84.228515625
-97.96142578125
-92.46826171875
-99.79248046875
-103.45458984375
-108.0322265625
-102.5390625
-96.13037109375
-88.80615234375
-90.63720703125
-86.0595703125
-83.31298828125
-73.2421875
-57.67822265625
-67.7490234375
-74.15771484375
-65.00244140625
-50.35400390625
-48.52294921875
-47.607421875
-37.53662109375
-34.7900390625
-35.70556640625
-42.1142578125
-54.01611328125
-46.69189453125
-41.19873046875
-41.19873046875
-34.7900390625
-29.296875
-26.55029296875
-28.38134765625
-32.04345703125
-31.1279296875
-30.21240234375
-35.70556640625
-33.87451171875
-14.6484375
-23.8037109375
-25.634765625
-23.8037109375
-13.73291015625
-7.32421875
-16.4794921875
-21.05712890625
-10.986328125
-9.1552734375
-22.88818359375
-38.4521484375
-64.0869140625
-75.0732421875
-71.4111328125
-73.2421875
-81.48193359375
-84.228515625
-79.65087890625
-85.14404296875
-96.13037109375
-104.3701171875
-108.0322265625
-116.27197265625
-119.0185546875
-124.51171875
-120.849609375
-111.6943359375
-109.86328125
-104.3701171875
-108.0322265625
-104.3701171875
-106.201171875
-115.3564453125
-124.51171875
-131.8359375
-127.25830078125
-121.76513671875
-112.60986328125
-111.6943359375
-114.44091796875
-119.93408203125
-133.6669921875
-133.6669921875
-124.51171875
-119.93408203125
-114.44091796875
-115.3564453125
-113.525390625
-118.10302734375
-116.27197265625
-110.77880859375
-107.11669921875
-107.11669921875
-97.0458984375
-70.49560546875
-39.36767578125
18.310546875
96.13037109375
203.2470703125
335.99853515625
479.736328125
639.0380859375
806.57958984375
975.9521484375
1133.4228515625
1265.2587890625
1374.20654296875
1442.87109375
1452.0263671875
1403.50341796875
1234.130859375
979.6142578125
723.2666015625
476.07421875
195.9228515625
40.283203125
-44.86083984375
-106.201171875
-147.39990234375
-148.3154296875
-121.76513671875
-91.552734375
-61.34033203125
-45.7763671875
-34.7900390625
-27.4658203125
-26.55029296875
-27.4658203125
-32.958984375
-33.87451171875
-37.53662109375
-49.4384765625
-48.52294921875
-50.35400390625
-60.4248046875
-57.67822265625
-52.18505859375
-43.02978515625
-42.1142578125
-41.19873046875
-35.70556640625
-34.7900390625
-38.4521484375
-40.283203125
-44.86083984375
-42.1142578125
-33.87451171875
-35.70556640625
-25.634765625
-23.8037109375
-26.55029296875
-26.55029296875
-24.71923828125
-25.634765625
-24.71923828125
-19.22607421875
-12.8173828125
-10.07080078125
-4.57763671875
-7.32421875
-10.07080078125
-0.91552734375
3.662109375
16.4794921875
15.56396484375
13.73291015625
20.1416015625
21.97265625
20.1416015625
21.05712890625
31.1279296875
31.1279296875
25.634765625
26.55029296875
38.4521484375
48.52294921875
54.931640625
71.4111328125
73.2421875
82.3974609375
103.45458984375
97.0458984375
91.552734375
98.876953125
102.5390625
110.77880859375
120.849609375
123.59619140625
128.173828125
133.6669921875
136.41357421875
139.16015625
143.73779296875
160.21728515625
172.119140625
172.119140625
182.18994140625
195.00732421875
205.99365234375
227.05078125
238.95263671875
242.61474609375
247.1923828125
257.26318359375
265.5029296875
272.8271484375
280.1513671875
283.8134765625
296.630859375
304.87060546875
317.68798828125
322.265625
328.67431640625
340.576171875
341.49169921875
336.9140625
332.33642578125
330.50537109375
331.4208984375
337.82958984375
346.0693359375
333.251953125
323.18115234375
326.84326171875
319.51904296875
315.85693359375
310.36376953125
296.630859375
286.56005859375
276.4892578125
255.43212890625
236.2060546875
227.05078125
216.064453125
196.83837890625
180.35888671875
154.72412109375
139.16015625
131.8359375
113.525390625
92.46826171875
74.15771484375
64.0869140625
50.35400390625
36.62109375
29.296875
22.88818359375
12.8173828125
-1.8310546875
-14.6484375
-18.310546875
-21.97265625
-33.87451171875
-43.02978515625
-52.18505859375
-54.931640625
-61.34033203125
-58.59375
-52.18505859375
-64.0869140625
-69.580078125
-79.65087890625
-83.31298828125
-75.98876953125
-68.66455078125
-75.98876953125
-84.228515625
-76.904296875
-67.7490234375
-60.4248046875
-61.34033203125
-78.7353515625
-83.31298828125
-82.3974609375
-86.97509765625
-81.48193359375
-77.81982421875
-81.48193359375
-71.4111328125
-64.0869140625
-71.4111328125
-81.48193359375
-86.97509765625
-84.228515625
-84.228515625
-86.0595703125
-84.228515625
-81.48193359375
-78.7353515625
-83.31298828125
-75.0732421875
-68.66455078125
-69.580078125
-72.32666015625
-71.4111328125
-75.0732421875
-75.98876953125
-70.49560546875
-75.98876953125
-73.2421875
-76.904296875
-79.65087890625
-71.4111328125
-60.4248046875
-75.0732421875
-80.56640625
-81.48193359375
-82.3974609375
-74.15771484375
-79.65087890625
-79.65087890625
-77.81982421875
-74.15771484375
-64.0869140625
-60.4248046875
-66.83349609375
-74.15771484375
-72.32666015625
-60.4248046875
-68.66455078125
-69.580078125
-72.32666015625
-72.32666015625
-72.32666015625
-65.00244140625
-59.50927734375
-70.49560546875
-68.66455078125
-59.50927734375
-58.59375
-64.0869140625
-66.83349609375
-58.59375
-51.26953125
-43.02978515625
-43.9453125
-65.00244140625
-78.7353515625
-71.4111328125
-65.91796875
-68.66455078125
-75.0732421875
-70.49560546875
-65.91796875
-72.32666015625
-79.65087890625
-80.56640625
-89.7216796875
-89.7216796875
-84.228515625
-88.80615234375
-90.63720703125
-86.97509765625
-88.80615234375
-96.13037109375
-92.46826171875
-85.14404296875
-90.63720703125
-88.80615234375
-87.890625
-90.63720703125
-90.63720703125
-86.0595703125
-90.63720703125
-88.80615234375
-87.890625
-86.97509765625
-83.31298828125
-86.97509765625
-88.80615234375
-105.28564453125
-104.3701171875
-97.96142578125
-100.7080078125
-92.46826171875
-89.7216796875
-94.29931640625
-93.3837890625
-98.876953125
-102.5390625
-100.7080078125
-105.28564453125
-108.0322265625
-108.94775390625
-100.7080078125
-98.876953125
-96.13037109375
-94.29931640625
-101.62353515625
-106.201171875
-100.7080078125
-97.96142578125
-100.7080078125
-107.11669921875
-99.79248046875
-97.0458984375
-99.79248046875
-101.62353515625
-99.79248046875
-103.45458984375
-108.94775390625
-107.11669921875
-113.525390625
-113.525390625
-97.96142578125
-97.96142578125
-86.0595703125
-93.3837890625
-108.94775390625
-105.28564453125
-99.79248046875
-101.62353515625
-101.62353515625
-93.3837890625
-88.80615234375
-90.63720703125
-94.29931640625
-88.80615234375
-92.46826171875
-87.890625
-93.3837890625
-103.45458984375
-110.77880859375
-113.525390625
-105.28564453125
-115.3564453125
-112.60986328125
-115.3564453125
-108.94775390625
-109.86328125
-108.94775390625
-96.13037109375
-96.13037109375
-100.7080078125
-112.60986328125
-117.1875
-108.0322265625
-97.96142578125
-110.77880859375
-110.77880859375
-104.3701171875
-111.6943359375
-111.6943359375
-109.86328125
-108.0322265625
-103.45458984375
-99.79248046875
-107.11669921875
-105.28564453125
-106.201171875
-97.96142578125
-99.79248046875
-94.29931640625
-90.63720703125
-104.3701171875
-106.201171875
-101.62353515625
-101.62353515625
-106.201171875
-101.62353515625
-98.876953125
-107.11669921875
-98.876953125
-90.63720703125
-92.46826171875
-80.56640625
-73.2421875
-61.34033203125
-55.84716796875
-54.01611328125
-60.4248046875
-65.00244140625
-57.67822265625
-53.1005859375
-57.67822265625
-65.00244140625
-75.98876953125
-75.0732421875
-67.7490234375
-64.0869140625
-51.26953125
-40.283203125
-32.958984375
-30.21240234375
-30.21240234375
-33.87451171875
-39.36767578125
-45.7763671875
-43.02978515625
-45.7763671875
-34.7900390625
-38.4521484375
-40.283203125
-44.86083984375
-41.19873046875
-29.296875
-28.38134765625
-29.296875
-27.4658203125
-39.36767578125
-35.70556640625
-57.67822265625
-82.3974609375
-84.228515625
-77.81982421875
-85.14404296875
-96.13037109375
-91.552734375
-93.3837890625
-108.0322265625
-111.6943359375
-111.6943359375
-119.93408203125
-117.1875
-117.1875
-128.173828125
-137.3291015625
-136.41357421875
-132.75146484375
-130.0048828125
-125.42724609375
-133.6669921875
-130.92041015625
-127.25830078125
-136.41357421875
-143.73779296875
-139.16015625
-132.75146484375
-123.59619140625
-127.25830078125
-135.498046875
-132.75146484375
-136.41357421875
-131.8359375
-126.3427734375
-122.6806640625
-123.59619140625
-121.76513671875
-116.27197265625
-111.6943359375
-114.44091796875
-120.849609375
-111.6943359375
-104.3701171875
-82.3974609375
-54.931640625
4.57763671875
79.65087890625
186.767578125
312.19482421875
447.69287109375
614.31884765625
781.8603515625
948.486328125
1103.21044921875
1247.86376953125
1372.37548828125
1444.7021484375
1435.546875
1361.38916015625
1211.24267578125
966.796875
698.54736328125
443.115234375
162.04833984375
5.4931640625
-69.580078125
-120.849609375
-146.484375
-138.24462890625
-133.6669921875
-130.92041015625
-105.28564453125
-69.580078125
-57.67822265625
-45.7763671875
-43.9453125
-46.69189453125
-53.1005859375
-57.67822265625
-63.17138671875
-61.34033203125
-58.59375
-61.34033203125
-57.67822265625
-59.50927734375
-60.4248046875
-58.59375
-64.0869140625
-63.17138671875
-61.34033203125
-57.67822265625
-54.931640625
-54.931640625
-55.84716796875
-59.50927734375
-60.4248046875
-53.1005859375
-42.1142578125
-39.36767578125
-43.02978515625
-43.02978515625
-33.87451171875
-29.296875
-32.958984375
-35.70556640625
-40.283203125
-36.62109375
-32.958984375
-19.22607421875
-7.32421875
-2.74658203125
0
0
-2.74658203125
-2.74658203125
5.4931640625
5.4931640625
3.662109375
13.73291015625
15.56396484375
18.310546875
25.634765625
26.55029296875
27.4658203125
41.19873046875
43.9453125
45.7763671875
52.18505859375
61.34033203125
65.00244140625
65.00244140625
70.49560546875
83.31298828125
91.552734375
91.552734375
87.890625
89.7216796875
103.45458984375
116.27197265625
122.6806640625
129.08935546875
143.73779296875
151.9775390625
160.21728515625
161.1328125
175.78125
186.767578125
196.83837890625
204.16259765625
209.65576171875
217.8955078125
234.375
246.27685546875
250.8544921875
269.1650390625
265.5029296875
274.658203125
284.72900390625
289.306640625
292.05322265625
295.71533203125
307.6171875
309.4482421875
312.19482421875
304.87060546875
313.1103515625
327.7587890625
320.4345703125
324.0966796875
321.35009765625
308.53271484375
311.279296875
324.0966796875
321.35009765625
310.36376953125
302.1240234375
297.54638671875
286.56005859375
266.41845703125
255.43212890625
241.69921875
223.388671875
205.99365234375
195.00732421875
173.9501953125
163.87939453125
140.07568359375
115.3564453125
108.94775390625
90.63720703125
77.81982421875
66.83349609375
52.18505859375
37.53662109375
22.88818359375
13.73291015625
0.91552734375
-10.986328125
-25.634765625
-22.88818359375
-24.71923828125
-28.38134765625
-32.958984375
-39.36767578125
-51.26953125
-65.91796875
-65.00244140625
-66.83349609375
-73.2421875
-76.904296875
-78.7353515625
-78.7353515625
-75.0732421875
-70.49560546875
-65.00244140625
-74.15771484375
-87.890625
-93.3837890625
-97.96142578125
-97.0458984375
-88.80615234375
-92.46826171875
-100.7080078125
-108.94775390625
-101.62353515625
-99.79248046875
-97.0458984375
-86.97509765625
-90.63720703125
-92.46826171875
-82.3974609375
-88.80615234375
-93.3837890625
-90.63720703125
-90.63720703125
-91.552734375
-94.29931640625
-90.63720703125
-86.97509765625
-89.7216796875
-88.80615234375
-86.97509765625
-83.31298828125
-84.228515625
-89.7216796875
-87.890625
-81.48193359375
-70.49560546875
-69.580078125
-81.48193359375
-91.552734375
-89.7216796875
-81.48193359375
-79.65087890625
-77.81982421875
-80.56640625
-76.904296875
-67.7490234375
-66.83349609375
-67.7490234375
-79.65087890625
-92.46826171875
-86.0595703125
-79.65087890625
-83.31298828125
-85.14404296875
-86.97509765625
-86.0595703125
-71.4111328125
-70.49560546875
-75.98876953125
-84.228515625
-76.904296875
-73.2421875
-66.83349609375
-65.91796875
-62.255859375
-61.34033203125
-65.91796875
-65.91796875
-55.84716796875
-61.34033203125
-65.91796875
-70.49560546875
-63.17138671875
-54.931640625
-65.91796875
-73.2421875
-73.2421875
-79.65087890625
-86.97509765625
-86.0595703125
-74.15771484375
-72.32666015625
-73.2421875
-76.904296875
-75.98876953125
-82.3974609375
-79.65087890625
-81.48193359375
-79.65087890625
-82.3974609375
-86.0595703125
-82.3974609375
-84.228515625
-77.81982421875
-75.0732421875
-75.98876953125
-65.91796875
-79.65087890625
-87.890625
-89.7216796875
-97.0458984375
-95.21484375
-88.80615234375
-80.56640625
-87.890625
-82.3974609375
-78.7353515625
-82.3974609375
-86.0595703125
-99.79248046875
-101.62353515625
-99.79248046875
-99.79248046875
-89.7216796875
-96.13037109375
-106.201171875
-94.29931640625
-89.7216796875
-89.7216796875
-87.890625
-93.3837890625
-97.96142578125
-108.0322265625
-110.77880859375
-99.79248046875
-93.3837890625
-97.0458984375
-108.0322265625
-107.11669921875
-112.60986328125
-98.876953125
-95.21484375
-94.29931640625
-95.21484375
-100.7080078125
-107.11669921875
-109.86328125
-108.0322265625
-106.201171875
-101.62353515625
-98.876953125
-106.201171875
-102.5390625
-97.96142578125
-103.45458984375
-107.11669921875
-105.28564453125
-97.0458984375
-96.13037109375
-92.46826171875
-97.0458984375
-105.28564453125
-106.201171875
-104.3701171875
-107.11669921875
-112.60986328125
-108.94775390625
-98.876953125
-98.876953125
-100.7080078125
-97.96142578125
-88.80615234375
-91.552734375
-87.890625
-78.7353515625
-82.3974609375
-73.2421875
-65.91796875
-70.49560546875
-75.0732421875
-73.2421875
-73.2421875
-62.255859375
-63.17138671875
-66.83349609375
-58.59375
-62.255859375
-66.83349609375
-59.50927734375
-56.7626953125
-48.52294921875
-34.7900390625
-19.22607421875
-26.55029296875
-36.62109375
-37.53662109375
-37.53662109375
-39.36767578125
-41.19873046875
-49.4384765625
-46.69189453125
-36.62109375
-28.38134765625
-21.05712890625
-13.73291015625
-12.8173828125
-17.39501953125
-29.296875
-33.87451171875
-38.4521484375
-39.36767578125
-40.283203125
-50.35400390625
-57.67822265625
-66.83349609375
-65.91796875
-75.0732421875
-90.63720703125
-100.7080078125
-100.7080078125
-108.94775390625
-119.0185546875
-130.0048828125
-128.173828125
-111.6943359375
-111.6943359375
-125.42724609375
-131.8359375
-131.8359375
-130.92041015625
-127.25830078125
-127.25830078125
-124.51171875
-119.93408203125
-118.10302734375
-125.42724609375
-136.41357421875
-132.75146484375
-123.59619140625
-131.8359375
-136.41357421875
-135.498046875
-137.3291015625
-132.75146484375
-120.849609375
-119.93408203125
-123.59619140625
-133.6669921875
-143.73779296875
-140.07568359375
-140.07568359375
-131.8359375
-130.0048828125
-123.59619140625
-110.77880859375
-101.62353515625
-77.81982421875
-54.01611328125
0
82.3974609375
182.18994140625
307.6171875
447.69287109375
609.7412109375
792.8466796875
959.47265625
1110.53466796875
1246.03271484375
1351.318359375
1419.98291015625
1417.236328125
1349.4873046875
1183.77685546875
929.26025390625
652.77099609375
380.859375
118.10302734375
-20.1416015625
-81.48193359375
-125.42724609375
-155.6396484375
-167.54150390625
-151.9775390625
-129.08935546875
-103.45458984375
-78.7353515625
-62.255859375
-50.35400390625
-40.283203125
-35.70556640625
-38.4521484375
-41.19873046875
-47.607421875
-55.84716796875
-61.34033203125
-66.83349609375
-65.91796875
-65.00244140625
-65.91796875
-54.01611328125
-48.52294921875
-47.607421875
-53.1005859375
-46.69189453125
-54.01611328125
-53.1005859375
-41.19873046875
-44.86083984375
-46.69189453125
-42.1142578125
-44.86083984375
-39.36767578125
-30.21240234375
-25.634765625
-24.71923828125
-17.39501953125
-10.986328125
-13.73291015625
-25.634765625
-28.38134765625
-23.8037109375
-12.8173828125
-7.32421875
-6.40869140625
-4.57763671875
5.4931640625
8.23974609375
1.8310546875
13.73291015625
17.39501953125
19.22607421875
25.634765625
25.634765625
31.1279296875
37.53662109375
43.02978515625
40.283203125
45.7763671875
50.35400390625
57.67822265625
65.91796875
75.98876953125
85.14404296875
83.31298828125
79.65087890625
89.7216796875
96.13037109375
102.5390625
107.11669921875
121.76513671875
130.0048828125
130.0048828125
133.6669921875
144.6533203125
163.87939453125
170.2880859375
185.85205078125
196.83837890625
196.83837890625
203.2470703125
218.81103515625
227.05078125
238.037109375
245.361328125
252.685546875
260.92529296875
270.99609375
282.89794921875
294.7998046875
307.6171875
298.4619140625
298.4619140625
301.20849609375
314.02587890625
324.0966796875
331.4208984375
331.4208984375
335.99853515625
340.576171875
337.82958984375
335.99853515625
344.23828125
332.33642578125
327.7587890625
335.0830078125
327.7587890625
321.35009765625
321.35009765625
305.7861328125
289.306640625
286.56005859375
275.57373046875
266.41845703125
244.44580078125
218.81103515625
212.40234375
204.16259765625
181.2744140625
166.6259765625
138.24462890625
119.93408203125
108.94775390625
98.876953125
85.14404296875
68.66455078125
46.69189453125
36.62109375
33.87451171875
26.55029296875
17.39501953125
7.32421875
-7.32421875
-27.4658203125
-33.87451171875
-39.36767578125
-44.86083984375
-49.4384765625
-47.607421875
-44.86083984375
-39.36767578125
-40.283203125
-54.01611328125
-54.01611328125
-65.91796875
-65.91796875
-68.66455078125
-75.0732421875
-75.98876953125
-83.31298828125
-91.552734375
-86.97509765625
-81.48193359375
-82.3974609375
-80.56640625
-84.228515625
-85.14404296875
-83.31298828125
-87.890625
-85.14404296875
-90.63720703125
-90.63720703125
-84.228515625
-76.904296875
-74.15771484375
-75.98876953125
-75.98876953125
-70.49560546875
-70.49560546875
-71.4111328125
-78.7353515625
-72.32666015625
-67.7490234375
-67.7490234375
-65.91796875
-65.91796875
-67.7490234375
-72.32666015625
-84.228515625
-89.7216796875
-79.65087890625
-66.83349609375
-66.83349609375
-69.580078125
-72.32666015625
-74.15771484375
-68.66455078125
-64.0869140625
-55.84716796875
-57.67822265625
-70.49560546875
-75.0732421875
-71.4111328125
-70.49560546875
-71.4111328125
-68.66455078125
-65.00244140625
-60.4248046875
-62.255859375
-65.00244140625
-63.17138671875
-65.00244140625
-65.91796875
-60.4248046875
-64.0869140625
-77.81982421875
-78.7353515625
-74.15771484375
-71.4111328125
-69.580078125
-66.83349609375
-67.7490234375
-65.91796875
-65.00244140625
-69.580078125
-71.4111328125
-68.66455078125
-65.00244140625
-56.7626953125
-55.84716796875
-66.83349609375
-75.98876953125
-76.904296875
-69.580078125
-61.34033203125
-62.255859375
-68.66455078125
-68.66455078125
-65.91796875
-71.4111328125
-70.49560546875
-74.15771484375
-80.56640625
-87.890625
-78.7353515625
-71.4111328125
-77.81982421875
-78.7353515625
-76.904296875
-81.48193359375
-78.7353515625
-69.580078125
-72.32666015625
-77.81982421875
-72.32666015625
-71.4111328125
-77.81982421875
-92.46826171875
-88.80615234375
-89.7216796875
-99.79248046875
-101.62353515625
-89.7216796875
-89.7216796875
-89.7216796875
-85.14404296875
-80.56640625
-88.80615234375
-96.13037109375
-84.228515625
-85.14404296875
-84.228515625
-90.63720703125
-88.80615234375
-86.0595703125
-91.552734375
-98.876953125
-104.3701171875
-101.62353515625
-94.29931640625
-94.29931640625
-86.0595703125
-88.80615234375
-98.876953125
-88.80615234375
-89.7216796875
-85.14404296875
-88.80615234375
-86.97509765625
-85.14404296875
-95.21484375
-88.80615234375
-89.7216796875
-96.13037109375
-98.876953125
-97.0458984375
-96.13037109375
-93.3837890625
-93.3837890625
-97.96142578125
-105.28564453125
-108.94775390625
-112.60986328125
-108.0322265625
-99.79248046875
-94.29931640625
-90.63720703125
-87.890625
-90.63720703125
-95.21484375
-97.96142578125
-89.7216796875
-89.7216796875
-83.31298828125
-88.80615234375
-97.0458984375
-101.62353515625
-98.876953125
-87.890625
-96.13037109375
-99.79248046875
-102.5390625
-109.86328125
-109.86328125
-105.28564453125
-104.3701171875
-99.79248046875
-97.0458984375
-106.201171875
-107.11669921875
-103.45458984375
-98.876953125
-97.96142578125
-87.890625
-91.552734375
-105.28564453125
-100.7080078125
-94.29931640625
-89.7216796875
-89.7216796875
-80.56640625
-86.0595703125
-82.3974609375
-89.7216796875
-82.3974609375
-77.81982421875
-71.4111328125
-67.7490234375
-60.4248046875
-49.4384765625
-41.19873046875
-41.19873046875
-52.18505859375
-55.84716796875
-53.1005859375
-55.84716796875
-60.4248046875
-50.35400390625
-47.607421875
-38.4521484375
-33.87451171875
-38.4521484375
-35.70556640625
-34.7900390625
-32.04345703125
-33.87451171875
-32.958984375
-32.958984375
-33.87451171875
-32.958984375
-35.70556640625
-32.958984375
-31.1279296875
-32.958984375
-28.38134765625
-32.04345703125
-33.87451171875
-31.1279296875
-33.87451171875
-38.4521484375
-43.9453125
-57.67822265625
-73.2421875
-74.15771484375
-71.4111328125
-78.7353515625
-84.228515625
-89.7216796875
-91.552734375
-100.7080078125
-109.86328125
-116.27197265625
-111.6943359375
-119.0185546875
-124.51171875
-116.27197265625
-120.849609375
-132.75146484375
-124.51171875
-123.59619140625
-129.08935546875
-129.08935546875
-126.3427734375
-123.59619140625
-119.0185546875
-119.93408203125
-118.10302734375
-113.525390625
-110.77880859375
-116.27197265625
-122.6806640625
-122.6806640625
-120.849609375
-117.1875
-115.3564453125
-121.76513671875
-121.76513671875
-117.1875
-115.3564453125
-119.0185546875
-119.0185546875
-118.10302734375
-102.5390625
-86.0595703125
-63.17138671875
-12.8173828125
48.52294921875
130.92041015625
239.8681640625
363.46435546875
491.63818359375
658.26416015625
816.650390625
970.458984375
1118.7744140625
1272.5830078125
1391.6015625
1455.6884765625
1444.7021484375
1365.05126953125
1186.5234375
921.0205078125
673.828125
416.56494140625
145.56884765625
10.07080078125
-54.01611328125
-105.28564453125
-130.0048828125
-117.1875
-97.96142578125
-70.49560546875
-51.26953125
-45.7763671875
-53.1005859375
-46.69189453125
-34.7900390625
-32.958984375
-39.36767578125
-40.283203125
-44.86083984375
-43.9453125
-48.52294921875
-49.4384765625
-54.01611328125
-50.35400390625
-50.35400390625
-57.67822265625
-60.4248046875
-58.59375
-58.59375
-51.26953125
-33.87451171875
-22.88818359375
-27.4658203125
-21.05712890625
-10.07080078125
-21.97265625
-28.38134765625
-38.4521484375
-39.36767578125
-34.7900390625
-25.634765625
-30.21240234375
-30.21240234375
-16.4794921875
-14.6484375
-10.986328125
-4.57763671875
2.74658203125
8.23974609375
11.90185546875
11.90185546875
2.74658203125
-4.57763671875
6.40869140625
18.310546875
14.6484375
21.05712890625
27.4658203125
38.4521484375
42.1142578125
52.18505859375
59.50927734375
55.84716796875
60.4248046875
54.931640625
54.931640625
65.91796875
78.7353515625
75.98876953125
73.2421875
87.890625
97.96142578125
102.5390625
105.28564453125
122.6806640625
136.41357421875
138.24462890625
141.90673828125
142.822265625
146.484375
154.72412109375
167.54150390625
184.9365234375
186.767578125
190.4296875
198.66943359375
205.99365234375
214.2333984375
223.388671875
229.79736328125
240.78369140625
251.77001953125
262.75634765625
269.1650390625
279.23583984375
289.306640625
293.88427734375
303.955078125
309.4482421875
314.94140625
322.265625
327.7587890625
335.0830078125
335.99853515625
335.99853515625
338.7451171875
343.32275390625
338.7451171875
345.15380859375
342.4072265625
328.67431640625
327.7587890625
331.4208984375
329.58984375
324.0966796875
307.6171875
287.4755859375
282.89794921875
262.75634765625
241.69921875
223.388671875
214.2333984375
200.50048828125
180.35888671875
180.35888671875
162.9638671875
140.07568359375
118.10302734375
115.3564453125
105.28564453125
88.80615234375
72.32666015625
62.255859375
42.1142578125
25.634765625
13.73291015625
-3.662109375
-24.71923828125
-17.39501953125
-16.4794921875
-24.71923828125
-39.36767578125
-43.02978515625
-48.52294921875
-54.01611328125
-43.02978515625
-49.4384765625
-54.931640625
-56.7626953125
-54.01611328125
-65.91796875
-65.91796875
-65.00244140625
-73.2421875
-81.48193359375
-81.48193359375
-75.98876953125
-81.48193359375
-83.31298828125
-79.65087890625
-76.904296875
-81.48193359375
-84.228515625
-87.890625
-81.48193359375
-74.15771484375
-71.4111328125
-63.17138671875
-63.17138671875
-62.255859375
-64.0869140625
-67.7490234375
-66.83349609375
-72.32666015625
-80.56640625
-76.904296875
-75.0732421875
-71.4111328125
-67.7490234375
-65.91796875
-60.4248046875
-56.7626953125
-68.66455078125
-78.7353515625
-73.2421875
-60.4248046875
-52.18505859375
-54.01611328125
-64.0869140625
-75.0732421875
-67.7490234375
-66.83349609375
-67.7490234375
-65.91796875
-65.91796875
-65.00244140625
-62.255859375
-67.7490234375
-70.49560546875
-65.91796875
-66.83349609375
-59.50927734375
-58.59375
-65.91796875
-67.7490234375
-74.15771484375
-69.580078125
-60.4248046875
-57.67822265625
-53.1005859375
-56.7626953125
-57.67822265625
-62.255859375
-58.59375
-62.255859375
-71.4111328125
-69.580078125
-72.32666015625
-71.4111328125
-74.15771484375
-75.98876953125
-79.65087890625
-76.904296875
-70.49560546875
-65.00244140625
-65.91796875
-62.255859375
-60.4248046875
-70.49560546875
-78.7353515625
-78.7353515625
-79.65087890625
-75.98876953125
-75.0732421875
-73.2421875
-77.81982421875
-73.2421875
-66.83349609375
-75.98876953125
-83.31298828125
-85.14404296875
-96.13037109375
-95.21484375
-83.31298828125
-79.65087890625
-80.56640625
-78.7353515625
-79.65087890625
-78.7353515625
-75.98876953125
-78.7353515625
-85.14404296875
-86.97509765625
-94.29931640625
-87.890625
-83.31298828125
-87.890625
-91.552734375
-96.13037109375
-93.3837890625
-86.0595703125
-88.80615234375
-90.63720703125
-96.13037109375
-90.63720703125
-88.80615234375
-86.0595703125
-86.0595703125
-91.552734375
-92.46826171875
-92.46826171875
-88.80615234375
-92.46826171875
-88.80615234375
-77.81982421875
-88.80615234375
-94.29931640625
-97.0458984375
-95.21484375
-93.3837890625
-102.5390625
-101.62353515625
-96.13037109375
-95.21484375
-101.62353515625
-106.201171875
-110.77880859375
-96.13037109375
-91.552734375
-98.876953125
-95.21484375
-97.0458984375
-103.45458984375
-105.28564453125
-108.0322265625
-107.11669921875
-103.45458984375
-99.79248046875
-96.13037109375
-94.29931640625
-88.80615234375
-88.80615234375
-84.228515625
-86.0595703125
-87.890625
-88.80615234375
-87.890625
-110.77880859375
-119.93408203125
-121.76513671875
-116.27197265625
-116.27197265625
-120.849609375
-111.6943359375
-108.0322265625
-104.3701171875
-103.45458984375
-108.0322265625
-103.45458984375
-102.5390625
-105.28564453125
-112.60986328125
-117.1875
-109.86328125
-108.94775390625
-110.77880859375
-101.62353515625
-105.28564453125
-108.94775390625
-104.3701171875
-99.79248046875
-103.45458984375
-106.201171875
-113.525390625
-118.10302734375
-130.0048828125
-123.59619140625
-108.0322265625
-101.62353515625
-108.0322265625
-109.86328125
-103.45458984375
-110.77880859375
-113.525390625
-114.44091796875
-102.5390625
-107.11669921875
-105.28564453125
-100.7080078125
-94.29931640625
-89.7216796875
-81.48193359375
-86.97509765625
-80.56640625
-73.2421875
-65.91796875
-57.67822265625
-52.18505859375
-48.52294921875
-51.26953125
-53.1005859375
-55.84716796875
-72.32666015625
-67.7490234375
-56.7626953125
-55.84716796875
-51.26953125
-37.53662109375
-37.53662109375
-34.7900390625
-29.296875
-28.38134765625
-36.62109375
-48.52294921875
-45.7763671875
-41.19873046875
-37.53662109375
-41.19873046875
-35.70556640625
-33.87451171875
-40.283203125
-32.958984375
-32.04345703125
-36.62109375
-36.62109375
-38.4521484375
-44.86083984375
-46.69189453125
-57.67822265625
-65.00244140625
-59.50927734375
-72.32666015625
-92.46826171875
-102.5390625
-115.3564453125
-112.60986328125
-108.0322265625
-119.93408203125
-129.08935546875
-116.27197265625
-115.3564453125
-130.92041015625
-146.484375
-140.07568359375
-124.51171875
-130.92041015625
-129.08935546875
-130.92041015625
-130.0048828125
-128.173828125
-126.3427734375
-118.10302734375
-119.0185546875
-129.08935546875
-134.58251953125
-129.08935546875
-126.3427734375
-119.0185546875
-128.173828125
-127.25830078125
-125.42724609375
-121.76513671875
-127.25830078125
-126.3427734375
-123.59619140625
-120.849609375
-113.525390625
-118.10302734375
-110.77880859375
-105.28564453125
-98.876953125
-68.66455078125
-9.1552734375
70.49560546875
178.52783203125
296.630859375
423.88916015625
579.52880859375
748.9013671875
906.3720703125
1056.5185546875
1205.74951171875
1340.33203125
1419.0673828125
1430.96923828125
1384.27734375
1254.2724609375
1023.5595703125
742.49267578125
491.63818359375
206.9091796875
22.88818359375
-52.18505859375
-107.11669921875
-148.3154296875
-150.146484375
-137.3291015625
-115.3564453125
-94.29931640625
-71.4111328125
-61.34033203125
-52.18505859375
-44.86083984375
-32.958984375
-43.02978515625
-56.7626953125
-50.35400390625
-59.50927734375
-67.7490234375
-63.17138671875
-63.17138671875
-68.66455078125
-67.7490234375
-54.931640625
-57.67822265625
-62.255859375
-67.7490234375
-64.0869140625
-69.580078125
-74.15771484375
-54.01611328125
-43.02978515625
-51.26953125
-51.26953125
-53.1005859375
-50.35400390625
-46.69189453125
-46.69189453125
-44.86083984375
-34.7900390625
-33.87451171875
-31.1279296875
-32.04345703125
-24.71923828125
-21.05712890625
-32.04345703125
-30.21240234375
-29.296875
-23.8037109375
-20.1416015625
-7.32421875
5.4931640625
15.56396484375
20.1416015625
17.39501953125
20.1416015625
26.55029296875
26.55029296875
28.38134765625
37.53662109375
30.21240234375
26.55029296875
25.634765625
29.296875
29.296875
41.19873046875
48.52294921875
51.26953125
65.00244140625
87.890625
82.3974609375
86.0595703125
93.3837890625
100.7080078125
105.28564453125
113.525390625
113.525390625
119.93408203125
123.59619140625
133.6669921875
141.90673828125
145.56884765625
155.6396484375
165.71044921875
176.69677734375
184.9365234375
208.740234375
223.388671875
231.62841796875
226.13525390625
231.62841796875
241.69921875
249.93896484375
261.8408203125
266.41845703125
271.91162109375
280.1513671875
282.89794921875
291.1376953125
297.54638671875
306.70166015625
317.68798828125
318.603515625
307.6171875
298.4619140625
302.1240234375
296.630859375
303.955078125
309.4482421875
301.20849609375
296.630859375
293.88427734375
282.89794921875
270.08056640625
266.41845703125
251.77001953125
231.62841796875
219.7265625
216.97998046875
206.9091796875
193.17626953125
177.6123046875
162.9638671875
143.73779296875
121.76513671875
97.96142578125
91.552734375
85.14404296875
66.83349609375
56.7626953125
47.607421875
37.53662109375
25.634765625
8.23974609375
-12.8173828125
-24.71923828125
-30.21240234375
-38.4521484375
-50.35400390625
-58.59375
-63.17138671875
-59.50927734375
-63.17138671875
-65.91796875
-75.0732421875
-84.228515625
-90.63720703125
-94.29931640625
-97.96142578125
-98.876953125
-89.7216796875
-90.63720703125
-94.29931640625
-96.13037109375
-101.62353515625
-105.28564453125
-106.201171875
-103.45458984375
-104.3701171875
-96.13037109375
-91.552734375
-95.21484375
-104.3701171875
-105.28564453125
-103.45458984375
-98.876953125
-94.29931640625
-93.3837890625
-88.80615234375
-95.21484375
-100.7080078125
-100.7080078125
-99.79248046875
-97.0458984375
-102.5390625
-105.28564453125
-105.28564453125
-104.3701171875
-102.5390625
-94.29931640625
-88.80615234375
-86.0595703125
-89.7216796875
-88.80615234375
-91.552734375
-90.63720703125
-90.63720703125
-94.29931640625
-100.7080078125
-99.79248046875
-93.3837890625
-86.97509765625
-79.65087890625
-86.97509765625
-86.97509765625
-86.0595703125
-80.56640625
-79.65087890625
-94.29931640625
-88.80615234375
-80.56640625
-84.228515625
-92.46826171875
-99.79248046875
-96.13037109375
-92.46826171875
-80.56640625
-87.890625
-87.890625
-87.890625
-90.63720703125
-90.63720703125
-80.56640625
-80.56640625
-87.890625
-92.46826171875
-91.552734375
-97.0458984375
-94.29931640625
-86.97509765625
-86.0595703125
-86.97509765625
-91.552734375
-83.31298828125
-93.3837890625
-106.201171875
-107.11669921875
-99.79248046875
-103.45458984375
-104.3701171875
-106.201171875
-108.0322265625
-104.3701171875
-107.11669921875
-106.201171875
-105.28564453125
-105.28564453125
-108.94775390625
-109.86328125
-112.60986328125
-102.5390625
-95.21484375
-99.79248046875
-102.5390625
-101.62353515625
-105.28564453125
-113.525390625
-109.86328125
-108.94775390625
-105.28564453125
-104.3701171875
-105.28564453125
-109.86328125
-118.10302734375
-118.10302734375
-124.51171875
-126.3427734375
-120.849609375
-115.3564453125
-113.525390625
-113.525390625
-116.27197265625
-108.94775390625
-108.94775390625
-112.60986328125
-115.3564453125
-112.60986328125
-117.1875
-126.3427734375
-136.41357421875
-138.24462890625
-130.0048828125
-119.93408203125
-116.27197265625
-117.1875
-121.76513671875
-120.849609375
-130.0048828125
-135.498046875
-136.41357421875
-130.92041015625
-118.10302734375
-119.0185546875
-126.3427734375
-130.92041015625
-132.75146484375
-129.08935546875
-133.6669921875
-127.25830078125
-121.76513671875
-126.3427734375
-129.08935546875
-131.8359375
-140.07568359375
-132.75146484375
-121.76513671875
-119.0185546875
-130.0048828125
-130.0048828125
-125.42724609375
-123.59619140625
-122.6806640625
-117.1875
-119.93408203125
-123.59619140625
-139.16015625
-142.822265625
-130.92041015625
-136.41357421875
-138.24462890625
-130.0048828125
-129.08935546875
-132.75146484375
-128.173828125
-122.6806640625
-126.3427734375
-123.59619140625
-122.6806640625
-121.76513671875
-105.28564453125
-99.79248046875
-103.45458984375
-96.13037109375
-90.63720703125
-80.56640625
-75.98876953125
-81.48193359375
-80.56640625
-80.56640625
-87.890625
-95.21484375
-86.97509765625
-78.7353515625
-77.81982421875
-67.7490234375
-60.4248046875
-54.01611328125
-51.26953125
-51.26953125
-52.18505859375
-47.607421875
-50.35400390625
-49.4384765625
-43.02978515625
-47.607421875
-54.931640625
-58.59375
-58.59375
-63.17138671875
-60.4248046875
-61.34033203125
-58.59375
-64.0869140625
-73.2421875
-76.904296875
-84.228515625
-79.65087890625
-84.228515625
-102.5390625
-115.3564453125
-121.76513671875
-120.849609375
-130.92041015625
-135.498046875
-135.498046875
-141.90673828125
-149.23095703125
-154.72412109375
-156.55517578125
-153.80859375
-153.80859375
-155.6396484375
-145.56884765625
-150.146484375
-150.146484375
-152.89306640625
-152.89306640625
-155.6396484375
-151.06201171875
-142.822265625
-148.3154296875
-151.9775390625
-143.73779296875
-137.3291015625
-144.6533203125
-153.80859375
-145.56884765625
-142.822265625
-152.89306640625
-159.3017578125
-153.80859375
-154.72412109375
-155.6396484375
-157.470703125
-153.80859375
-162.04833984375
-164.794921875
-151.06201171875
-130.92041015625
-95.21484375
-33.87451171875
50.35400390625
155.6396484375
273.74267578125
403.74755859375
566.71142578125
752.5634765625
928.3447265625
1074.8291015625
1208.49609375
1316.5283203125
1385.19287109375
1384.27734375
1324.76806640625
1171.875
933.837890625
666.50390625
402.83203125
119.93408203125
-32.958984375
-74.15771484375
-107.11669921875
-147.39990234375
-168.45703125
-168.45703125
-157.470703125
-150.146484375
-127.25830078125
-95.21484375
-75.98876953125
-69.580078125
-82.3974609375
-84.228515625
-81.48193359375
-83.31298828125
-79.65087890625
-78.7353515625
-84.228515625
-83.31298828125
-72.32666015625
-72.32666015625
-80.56640625
-86.97509765625
-83.31298828125
-87.890625
-84.228515625
-75.98876953125
-72.32666015625
-79.65087890625
-76.904296875
-69.580078125
-66.83349609375
-63.17138671875
-62.255859375
-60.4248046875
-57.67822265625
-56.7626953125
-38.4521484375
-38.4521484375
-49.4384765625
-42.1142578125
-42.1142578125
-45.7763671875
-37.53662109375
-34.7900390625
-36.62109375
-37.53662109375
-31.1279296875
-22.88818359375
-14.6484375
-11.90185546875
-14.6484375
-12.8173828125
-4.57763671875
4.57763671875
10.986328125
6.40869140625
3.662109375
22.88818359375
36.62109375
25.634765625
28.38134765625
26.55029296875
39.36767578125
48.52294921875
49.4384765625
58.59375
70.49560546875
70.49560546875
82.3974609375
84.228515625
98.876953125
116.27197265625
100.7080078125
107.11669921875
119.0185546875
123.59619140625
125.42724609375
137.3291015625
148.3154296875
166.6259765625
186.767578125
186.767578125
194.091796875
201.416015625
221.5576171875
227.05078125
228.8818359375
228.8818359375
234.375
254.5166015625
253.60107421875
255.43212890625
270.08056640625
280.1513671875
297.54638671875
302.1240234375
303.955078125
303.955078125
303.03955078125
303.03955078125
305.7861328125
318.603515625
317.68798828125
297.54638671875
295.71533203125
303.03955078125
295.71533203125
284.72900390625
271.91162109375
267.333984375
265.5029296875
247.1923828125
228.8818359375
216.064453125
205.078125
193.17626953125
186.767578125
182.18994140625
163.87939453125
134.58251953125
125.42724609375
111.6943359375
85.14404296875
67.7490234375
53.1005859375
42.1142578125
29.296875
4.57763671875
-10.986328125
-27.4658203125
-43.02978515625
-43.02978515625
-54.01611328125
-54.01611328125
-51.26953125
-60.4248046875
-66.83349609375
-76.904296875
-80.56640625
-79.65087890625
-80.56640625
-84.228515625
-96.13037109375
-99.79248046875
-107.11669921875
-108.0322265625
-108.94775390625
-109.86328125
-117.1875
-108.0322265625
-111.6943359375
-109.86328125
-108.0322265625
-118.10302734375
-125.42724609375
-122.6806640625
-111.6943359375
-105.28564453125
-97.0458984375
-99.79248046875
-102.5390625
-106.201171875
-101.62353515625
-116.27197265625
-123.59619140625
-119.93408203125
-108.0322265625
-94.29931640625
-97.0458984375
-107.11669921875
-119.93408203125
-128.173828125
-129.08935546875
-121.76513671875
-110.77880859375
-101.62353515625
-97.96142578125
-101.62353515625
-100.7080078125
-97.96142578125
-85.14404296875
-80.56640625
-91.552734375
-96.13037109375
-104.3701171875
-108.0322265625
-98.876953125
-97.96142578125
-102.5390625
-103.45458984375
-100.7080078125
-97.96142578125
-99.79248046875
-95.21484375
-92.46826171875
-94.29931640625
-97.0458984375
-99.79248046875
-94.29931640625
-94.29931640625
-95.21484375
-93.3837890625
-93.3837890625
-100.7080078125
-101.62353515625
-96.13037109375
-96.13037109375
-87.890625
-90.63720703125
-100.7080078125
-99.79248046875
-79.65087890625
-76.904296875
-84.228515625
-93.3837890625
-107.11669921875
-106.201171875
-107.11669921875
-107.11669921875
-108.94775390625
-104.3701171875
-103.45458984375
-103.45458984375
-104.3701171875
-104.3701171875
-109.86328125
-103.45458984375
-89.7216796875
-104.3701171875
-110.77880859375
-106.201171875
-108.94775390625
-111.6943359375
-114.44091796875
-116.27197265625
-120.849609375
-122.6806640625
-117.1875
-117.1875
-114.44091796875
-119.0185546875
-112.60986328125
-112.60986328125
-119.0185546875
-121.76513671875
-117.1875
-119.93408203125
-123.59619140625
-115.3564453125
-104.3701171875
-111.6943359375
-112.60986328125
-104.3701171875
-109.86328125
-117.1875
-121.76513671875
-131.8359375
-136.41357421875
-139.16015625
-131.8359375
-134.58251953125
-136.41357421875
-128.173828125
-119.0185546875
-123.59619140625
-136.41357421875
-135.498046875
-129.08935546875
-129.08935546875
-137.3291015625
-126.3427734375
-121.76513671875
-130.92041015625
-146.484375
-154.72412109375
-144.6533203125
-143.73779296875
-134.58251953125
-132.75146484375
-130.92041015625
-125.42724609375
-122.6806640625
-127.25830078125
-150.146484375
-143.73779296875
-132.75146484375
-140.9912109375
-141.90673828125
-133.6669921875
-124.51171875
-123.59619140625
-114.44091796875
-107.11669921875
-126.3427734375
-142.822265625
-162.9638671875
-162.04833984375
-165.71044921875
-165.71044921875
-155.6396484375
-144.6533203125
-141.90673828125
-151.06201171875
-143.73779296875
-144.6533203125
-136.41357421875
-136.41357421875
-142.822265625
-134.58251953125
-138.24462890625
-144.6533203125
-139.16015625
-136.41357421875
-133.6669921875
-137.3291015625
-134.58251953125
-140.9912109375
-137.3291015625
-140.9912109375
-154.72412109375
-145.56884765625
-140.9912109375
-143.73779296875
-144.6533203125
-148.3154296875
-141.90673828125
-138.24462890625
-136.41357421875
-131.8359375
-140.9912109375
-138.24462890625
-140.9912109375
-132.75146484375
-119.93408203125
-123.59619140625
-134.58251953125
-142.822265625
-158.38623046875
-161.1328125
-151.9775390625
-139.16015625
-127.25830078125
-128.173828125
-132.75146484375
-123.59619140625
-107.11669921875
-105.28564453125
-102.5390625
-92.46826171875
-84.228515625
-80.56640625
-77.81982421875
-88.80615234375
-86.97509765625
-96.13037109375
-101.62353515625
-98.876953125
-83.31298828125
-71.4111328125
-70.49560546875
-67.7490234375
-69.580078125
-75.0732421875
-67.7490234375
-65.91796875
-60.4248046875
-63.17138671875
-72.32666015625
-73.2421875
-72.32666015625
-73.2421875
-68.66455078125
-65.00244140625
-74.15771484375
-74.15771484375
-65.00244140625
-48.52294921875
-44.86083984375
-54.01611328125
-65.00244140625
-73.2421875
-87.890625
-112.60986328125
-117.1875
-125.42724609375
-122.6806640625
-112.60986328125
-125.42724609375
-134.58251953125
-136.41357421875
-148.3154296875
-157.470703125
-161.1328125
-160.21728515625
-153.80859375
-159.3017578125
-173.03466796875
-172.119140625
-168.45703125
-166.6259765625
-163.87939453125
-157.470703125
-162.04833984375
-162.04833984375
-162.04833984375
-164.794921875
-161.1328125
-162.04833984375
-162.9638671875
-159.3017578125
-157.470703125
-169.37255859375
-178.52783203125
-175.78125
-173.03466796875
-167.54150390625
-155.6396484375
-151.06201171875
-154.72412109375
-157.470703125
-162.04833984375
-158.38623046875
-149.23095703125
-124.51171875
-95.21484375
-46.69189453125
23.8037109375
128.173828125
244.44580078125
365.29541015625
507.2021484375
678.40576171875
839.53857421875
997.9248046875
1145.32470703125
1280.82275390625
1380.615234375
1425.47607421875
1385.19287109375
1265.2587890625
1049.1943359375
766.29638671875
530.09033203125
244.44580078125
28.38134765625
-67.7490234375
-117.1875
-159.3017578125
-162.9638671875
-151.06201171875
-129.08935546875
-106.201171875
-81.48193359375
-89.7216796875
-91.552734375
-83.31298828125
-78.7353515625
-77.81982421875
-86.0595703125
-88.80615234375
-85.14404296875
-82.3974609375
-86.0595703125
-90.63720703125
-97.0458984375
-99.79248046875
-103.45458984375
-100.7080078125
-103.45458984375
-98.876953125
-84.228515625
-76.904296875
-76.904296875
-89.7216796875
-92.46826171875
-80.56640625
-75.0732421875
-75.0732421875
-67.7490234375
-66.83349609375
-67.7490234375
-68.66455078125
-64.0869140625
-61.34033203125
-54.931640625
-43.9453125
-50.35400390625
-58.59375
-59.50927734375
-49.4384765625
-41.19873046875
-35.70556640625
-38.4521484375
-39.36767578125
-30.21240234375
-21.97265625
-22.88818359375
-23.8037109375
-29.296875
-13.73291015625
-13.73291015625
-14.6484375
-7.32421875
-3.662109375
2.74658203125
21.97265625
28.38134765625
30.21240234375
38.4521484375
44.86083984375
48.52294921875
47.607421875
56.7626953125
54.931640625
57.67822265625
62.255859375
83.31298828125
79.65087890625
70.49560546875
76.904296875
90.63720703125
109.86328125
124.51171875
133.6669921875
139.16015625
139.16015625
147.39990234375
157.470703125
174.86572265625
184.02099609375
186.767578125
191.34521484375
188.5986328125
213.31787109375
227.05078125
238.95263671875
250.8544921875
249.0234375
254.5166015625
266.41845703125
283.8134765625
275.57373046875
268.24951171875
276.4892578125
281.982421875
283.8134765625
292.05322265625
291.1376953125
284.72900390625
282.89794921875
292.96875
297.54638671875
299.37744140625
295.71533203125
287.4755859375
270.08056640625
255.43212890625
237.12158203125
230.712890625
233.45947265625
222.47314453125
205.99365234375
193.17626953125
170.2880859375
152.89306640625
137.3291015625
128.173828125
108.0322265625
97.96142578125
72.32666015625
50.35400390625
43.9453125
32.04345703125
19.22607421875
7.32421875
2.74658203125
-9.1552734375
-22.88818359375
-30.21240234375
-38.4521484375
-53.1005859375
-73.2421875
-73.2421875
-75.0732421875
-84.228515625
-89.7216796875
-93.3837890625
-93.3837890625
-92.46826171875
-98.876953125
-99.79248046875
-103.45458984375
-111.6943359375
-114.44091796875
-112.60986328125
-110.77880859375
-108.94775390625
-108.0322265625
-116.27197265625
-113.525390625
-108.94775390625
-104.3701171875
-108.94775390625
-108.0322265625
-109.86328125
-115.3564453125
-133.6669921875
-118.10302734375
-117.1875
-126.3427734375
-115.3564453125
-110.77880859375
-111.6943359375
-110.77880859375
-108.0322265625
-104.3701171875
-95.21484375
-99.79248046875
-113.525390625
-113.525390625
-97.96142578125
-101.62353515625
-105.28564453125
-107.11669921875
-99.79248046875
-97.96142578125
-114.44091796875
-112.60986328125
-102.5390625
-108.0322265625
-108.0322265625
-99.79248046875
-102.5390625
-105.28564453125
-97.96142578125
-100.7080078125
-101.62353515625
-97.96142578125
-101.62353515625
-96.13037109375
-97.0458984375
-97.0458984375
-92.46826171875
-97.96142578125
-104.3701171875
-112.60986328125
-112.60986328125
-102.5390625
-97.96142578125
-93.3837890625
-85.14404296875
-91.552734375
-100.7080078125
-109.86328125
-109.86328125
-108.0322265625
-103.45458984375
-109.86328125
-106.201171875
-110.77880859375
-108.0322265625
-105.28564453125
-113.525390625
-104.3701171875
-101.62353515625
-108.0322265625
-109.86328125
-111.6943359375
-108.0322265625
-113.525390625
-110.77880859375
-97.96142578125
-105.28564453125
-112.60986328125
-110.77880859375
-107.11669921875
-107.11669921875
-114.44091796875
-123.59619140625
-121.76513671875
-117.1875
-113.525390625
-114.44091796875
-115.3564453125
-113.525390625
-110.77880859375
-108.0322265625
-115.3564453125
-115.3564453125
-119.0185546875
-124.51171875
-126.3427734375
-124.51171875
-120.849609375
-121.76513671875
-124.51171875
-129.08935546875
-133.6669921875
-127.25830078125
-121.76513671875
-122.6806640625
-125.42724609375
-132.75146484375
-128.173828125
-133.6669921875
-134.58251953125
-125.42724609375
-136.41357421875
-130.0048828125
-119.93408203125
-117.1875
-117.1875
-119.93408203125
-126.3427734375
-138.24462890625
-141.90673828125
-135.498046875
-131.8359375
-133.6669921875
-129.08935546875
-125.42724609375
-126.3427734375
-126.3427734375
-134.58251953125
-134.58251953125
-132.75146484375
-142.822265625
-142.822265625
-139.16015625
-132.75146484375
-130.0048828125
-126.3427734375
-126.3427734375
-121.76513671875
-121.76513671875
-122.6806640625
-124.51171875
-120.849609375
-130.0048828125
-136.41357421875
-138.24462890625
-137.3291015625
-129.08935546875
-135.498046875
-146.484375
-142.822265625
-130.92041015625
-134.58251953125
-139.16015625
-124.51171875
-120.849609375
-134.58251953125
-140.07568359375
-135.498046875
-134.58251953125
-133.6669921875
-130.92041015625
-125.42724609375
-131.8359375
-136.41357421875
-133.6669921875
-133.6669921875
-134.58251953125
-133.6669921875
-128.173828125
-128.173828125
-124.51171875
-125.42724609375
-133.6669921875
-137.3291015625
-142.822265625
-142.822265625
-140.9912109375
-140.9912109375
-142.822265625
-141.90673828125
-147.39990234375
-139.16015625
-138.24462890625
-140.9912109375
-134.58251953125
-128.173828125
-127.25830078125
-134.58251953125
-130.92041015625
-119.93408203125
-109.86328125
-114.44091796875
-127.25830078125
-123.59619140625
-111.6943359375
-104.3701171875
-101.62353515625
-98.876953125
-88.80615234375
-83.31298828125
-78.7353515625
-77.81982421875
-86.0595703125
-93.3837890625
-98.876953125
-102.5390625
-95.21484375
-84.228515625
-79.65087890625
-77.81982421875
-64.0869140625
-61.34033203125
-60.4248046875
-61.34033203125
-58.59375
-47.607421875
-42.1142578125
-58.59375
-58.59375
-47.607421875
-43.9453125
-43.9453125
-52.18505859375
-54.01611328125
-62.255859375
-67.7490234375
-62.255859375
-57.67822265625
-65.91796875
-73.2421875
-83.31298828125
-97.96142578125
-93.3837890625
-85.14404296875
-99.79248046875
-116.27197265625
-117.1875
-118.10302734375
-130.92041015625
-137.3291015625
-136.41357421875
-144.6533203125
-138.24462890625
-135.498046875
-131.8359375
-130.0048828125
-151.9775390625
-162.9638671875
-155.6396484375
-151.06201171875
-148.3154296875
-160.21728515625
-155.6396484375
-152.89306640625
-147.39990234375
-143.73779296875
-152.89306640625
-164.794921875
-158.38623046875
-158.38623046875
-143.73779296875
-139.16015625
-139.16015625
-160.21728515625
-174.86572265625
-165.71044921875
-170.2880859375
-168.45703125
-158.38623046875
-152.89306640625
-155.6396484375
-153.80859375
-133.6669921875
-108.94775390625
-86.97509765625
-15.56396484375
74.15771484375
190.4296875
319.51904296875
452.2705078125
612.48779296875
787.353515625
943.90869140625
1083.984375
1219.482421875
1321.10595703125
1386.1083984375
1377.86865234375
1304.62646484375
1143.49365234375
890.80810546875
623.47412109375
367.12646484375
107.11669921875
-25.634765625
-81.48193359375
-130.92041015625
-172.119140625
-181.2744140625
-162.04833984375
-142.822265625
-120.849609375
-97.0458984375
-81.48193359375
-65.00244140625
-66.83349609375
-69.580078125
-79.65087890625
-81.48193359375
-87.890625
-94.29931640625
-86.0595703125
-82.3974609375
-91.552734375
-95.21484375
-87.890625
-94.29931640625
-96.13037109375
-85.14404296875
-93.3837890625
-96.13037109375
-87.890625
-80.56640625
-77.81982421875
-85.14404296875
-77.81982421875
-65.00244140625
-65.00244140625
-63.17138671875
-56.7626953125
-50.35400390625
-43.02978515625
-44.86083984375
-45.7763671875
-43.9453125
-50.35400390625
-41.19873046875
-36.62109375
-36.62109375
-37.53662109375
-39.36767578125
-36.62109375
-22.88818359375
-21.05712890625
-27.4658203125
-16.4794921875
-8.23974609375
-11.90185546875
-14.6484375
-3.662109375
5.4931640625
2.74658203125
-1.8310546875
-1.8310546875
9.1552734375
24.71923828125
36.62109375
35.70556640625
32.958984375
43.02978515625
38.4521484375
46.69189453125
54.01611328125
63.17138671875
69.580078125
74.15771484375
75.0732421875
85.14404296875
90.63720703125
101.62353515625
109.86328125
113.525390625
120.849609375
128.173828125
136.41357421875
153.80859375
161.1328125
165.71044921875
175.78125
184.9365234375
205.99365234375
224.30419921875
225.2197265625
215.14892578125
227.05078125
249.0234375
253.60107421875
254.5166015625
256.34765625
264.58740234375
269.1650390625
281.06689453125
291.1376953125
297.54638671875
302.1240234375
297.54638671875
302.1240234375
298.4619140625
295.71533203125
298.4619140625
290.22216796875
290.22216796875
282.89794921875
278.3203125
279.23583984375
276.4892578125
276.4892578125
272.8271484375
249.93896484375
241.69921875
215.14892578125
202.33154296875
192.2607421875
167.54150390625
156.55517578125
143.73779296875
124.51171875
108.0322265625
89.7216796875
71.4111328125
57.67822265625
49.4384765625
51.26953125
30.21240234375
12.8173828125
-3.662109375
-11.90185546875
-26.55029296875
-28.38134765625
-35.70556640625
-31.1279296875
-33.87451171875
-35.70556640625
-52.18505859375
-79.65087890625
-85.14404296875
-93.3837890625
-101.62353515625
-96.13037109375
-95.21484375
-96.13037109375
-90.63720703125
-86.0595703125
-92.46826171875
-83.31298828125
-77.81982421875
-88.80615234375
-106.201171875
-114.44091796875
-110.77880859375
-103.45458984375
-111.6943359375
-118.10302734375
-110.77880859375
-117.1875
-109.86328125
-110.77880859375
-121.76513671875
-110.77880859375
-98.876953125
-91.552734375
-98.876953125
-86.0595703125
-86.97509765625
-95.21484375
-97.0458984375
-108.0322265625
-109.86328125
-115.3564453125
-115.3564453125
-108.94775390625
-110.77880859375
-97.96142578125
-94.29931640625
-93.3837890625
-86.97509765625
-90.63720703125
-101.62353515625
-107.11669921875
-104.3701171875
-97.0458984375
-93.3837890625
-97.96142578125
-97.96142578125
-103.45458984375
-99.79248046875
-82.3974609375
-86.0595703125
-85.14404296875
-88.80615234375
-88.80615234375
-100.7080078125
-108.0322265625
-112.60986328125
-98.876953125
-104.3701171875
-104.3701171875
-96.13037109375
-91.552734375
-88.80615234375
-90.63720703125
-97.96142578125
-102.5390625
-97.96142578125
-99.79248046875
-97.96142578125
-96.13037109375
-96.13037109375
-90.63720703125
-87.890625
-85.14404296875
-82.3974609375
-84.228515625
-90.63720703125
-90.63720703125
-89.7216796875
-99.79248046875
-104.3701171875
-98.876953125
-107.11669921875
-105.28564453125
-109.86328125
-109.86328125
-108.0322265625
-97.96142578125
-97.96142578125
-97.96142578125
-105.28564453125
-121.76513671875
-108.94775390625
-101.62353515625
-107.11669921875
-124.51171875
-127.25830078125
-119.0185546875
-125.42724609375
-126.3427734375
-123.59619140625
-124.51171875
-126.3427734375
-113.525390625
-115.3564453125
-118.10302734375
-114.44091796875
-108.94775390625
-114.44091796875
-117.1875
-126.3427734375
-126.3427734375
-120.849609375
-108.0322265625
-114.44091796875
-128.173828125
-126.3427734375
-131.8359375
-126.3427734375
-135.498046875
-135.498046875
-140.07568359375
-130.0048828125
-126.3427734375
-134.58251953125
-138.24462890625
-140.07568359375
-133.6669921875
-118.10302734375
-120.849609375
-125.42724609375
-129.08935546875
-122.6806640625
-119.0185546875
-131.8359375
-130.92041015625
-131.8359375
-135.498046875
-150.146484375
-142.822265625
-136.41357421875
-132.75146484375
-133.6669921875
-122.6806640625
-128.173828125
-140.07568359375
-151.06201171875
-153.80859375
-145.56884765625
-130.92041015625
-130.0048828125
-131.8359375
-131.8359375
-128.173828125
-128.173828125
-127.25830078125
-130.0048828125
-129.08935546875
-115.3564453125
-129.08935546875
-147.39990234375
-141.90673828125
-125.42724609375
-120.849609375
-128.173828125
-135.498046875
-140.07568359375
-143.73779296875
-141.90673828125
-134.58251953125
-125.42724609375
-130.92041015625
-127.25830078125
-117.1875
-103.45458984375
-108.0322265625
-108.0322265625
-111.6943359375
-107.11669921875
-97.0458984375
-83.31298828125
-78.7353515625
-78.7353515625
-71.4111328125
-84.228515625
-90.63720703125
-93.3837890625
-92.46826171875
-86.97509765625
-80.56640625
-80.56640625
-65.91796875
-59.50927734375
-55.84716796875
-57.67822265625
-64.0869140625
-63.17138671875
-60.4248046875
-58.59375
-64.0869140625
-64.0869140625
-55.84716796875
-45.7763671875
-52.18505859375
-48.52294921875
-54.01611328125
-52.18505859375
-40.283203125
-45.7763671875
-57.67822265625
-68.66455078125
-78.7353515625
-88.80615234375
-97.0458984375
-86.97509765625
-97.96142578125
-116.27197265625
-129.08935546875
-119.93408203125
-124.51171875
-144.6533203125
-151.06201171875
-151.9775390625
-147.39990234375
-134.58251953125
-152.89306640625
-160.21728515625
-149.23095703125
-153.80859375
-152.89306640625
-150.146484375
-156.55517578125
-154.72412109375
-151.9775390625
-147.39990234375
-148.3154296875
-156.55517578125
-151.9775390625
-143.73779296875
-150.146484375
-156.55517578125
-164.794921875
-155.6396484375
-156.55517578125
-152.89306640625
-149.23095703125
-147.39990234375
-158.38623046875
-156.55517578125
-139.16015625
-151.06201171875
-159.3017578125
-154.72412109375
-156.55517578125
-136.41357421875
-111.6943359375
-68.66455078125
-10.07080078125
71.4111328125
184.9365234375
304.87060546875
433.04443359375
600.5859375
786.43798828125
946.6552734375
1096.8017578125
1230.46875
1329.345703125
1379.69970703125
1333.92333984375
1240.53955078125
1051.025390625
804.74853515625
556.640625
273.74267578125
22.88818359375
-70.49560546875
-99.79248046875
-139.16015625
-172.119140625
-177.6123046875
-180.35888671875
-185.85205078125
-172.119140625
-140.9912109375
-114.44091796875
-97.96142578125
-93.3837890625
-86.0595703125
-81.48193359375
-77.81982421875
-86.0595703125
-93.3837890625
-103.45458984375
-98.876953125
-88.80615234375
-86.0595703125
-80.56640625
-82.3974609375
-88.80615234375
-88.80615234375
-95.21484375
-93.3837890625
-82.3974609375
-80.56640625
-74.15771484375
-74.15771484375
-71.4111328125
-66.83349609375
-63.17138671875
-78.7353515625
-86.0595703125
-80.56640625
-74.15771484375
-64.0869140625
-56.7626953125
-58.59375
-54.931640625
-42.1142578125
-39.36767578125
-46.69189453125
-43.02978515625
-37.53662109375
-44.86083984375
-39.36767578125
-32.04345703125
-32.958984375
-24.71923828125
-17.39501953125
-10.986328125
-8.23974609375
-3.662109375
-6.40869140625
1.8310546875
4.57763671875
7.32421875
13.73291015625
23.8037109375
32.958984375
38.4521484375
46.69189453125
43.02978515625
51.26953125
54.931640625
58.59375
64.0869140625
75.0732421875
75.98876953125
80.56640625
84.228515625
86.0595703125
97.0458984375
115.3564453125
122.6806640625
127.25830078125
135.498046875
146.484375
156.55517578125
162.9638671875
168.45703125
178.52783203125
187.68310546875
192.2607421875
208.740234375
229.79736328125
233.45947265625
238.037109375
240.78369140625
247.1923828125
251.77001953125
251.77001953125
255.43212890625
263.671875
262.75634765625
276.4892578125
293.88427734375
289.306640625
294.7998046875
292.05322265625
294.7998046875
298.4619140625
285.64453125
295.71533203125
281.982421875
277.40478515625
270.08056640625
262.75634765625
257.26318359375
254.5166015625
245.361328125
227.05078125
215.14892578125
190.4296875
172.119140625
161.1328125
150.146484375
132.75146484375
122.6806640625
108.0322265625
87.890625
64.0869140625
50.35400390625
34.7900390625
25.634765625
17.39501953125
5.4931640625
-9.1552734375
-15.56396484375
-24.71923828125
-26.55029296875
-37.53662109375
-49.4384765625
-63.17138671875
-68.66455078125
-75.98876953125
-82.3974609375
-74.15771484375
-84.228515625
-92.46826171875
-88.80615234375
-95.21484375
-107.11669921875
-114.44091796875
-102.5390625
-100.7080078125
-103.45458984375
-117.1875
-114.44091796875
-121.76513671875
-110.77880859375
-114.44091796875
-121.76513671875
-119.0185546875
-117.1875
-107.11669921875
-103.45458984375
-105.28564453125
-122.6806640625
-113.525390625
-111.6943359375
-113.525390625
-114.44091796875
-124.51171875
-119.93408203125
-115.3564453125
-118.10302734375
-122.6806640625
-122.6806640625
-118.10302734375
-110.77880859375
-105.28564453125
-99.79248046875
-94.29931640625
-87.890625
-92.46826171875
-100.7080078125
-107.11669921875
-108.0322265625
-113.525390625
-114.44091796875
-107.11669921875
-98.876953125
-96.13037109375
-96.13037109375
-104.3701171875
-108.94775390625
-115.3564453125
-106.201171875
-100.7080078125
-98.876953125
-94.29931640625
-93.3837890625
-96.13037109375
-90.63720703125
-91.552734375
-98.876953125
-104.3701171875
-108.0322265625
-101.62353515625
-102.5390625
-93.3837890625
-87.890625
-92.46826171875
-90.63720703125
-90.63720703125
-99.79248046875
-104.3701171875
-103.45458984375
-90.63720703125
-84.228515625
-74.15771484375
-81.48193359375
-97.96142578125
-103.45458984375
-102.5390625
-109.86328125
-112.60986328125
-96.13037109375
-86.0595703125
-92.46826171875
-105.28564453125
-109.86328125
-106.201171875
-108.0322265625
-114.44091796875
-117.1875
-111.6943359375
-109.86328125
-109.86328125
-108.0322265625
-103.45458984375
-101.62353515625
-104.3701171875
-98.876953125
-108.94775390625
-119.0185546875
-114.44091796875
-116.27197265625
-123.59619140625
-121.76513671875
-119.93408203125
-125.42724609375
-120.849609375
-118.10302734375
-118.10302734375
-123.59619140625
-128.173828125
-130.92041015625
-123.59619140625
-118.10302734375
-125.42724609375
-124.51171875
-121.76513671875
-128.173828125
-122.6806640625
-118.10302734375
-125.42724609375
-133.6669921875
-141.90673828125
-142.822265625
-143.73779296875
-134.58251953125
-120.849609375
-119.93408203125
-119.0185546875
-123.59619140625
-125.42724609375
-132.75146484375
-140.9912109375
-142.822265625
-141.90673828125
-140.9912109375
-136.41357421875
-136.41357421875
-128.173828125
-116.27197265625
-116.27197265625
-112.60986328125
-121.76513671875
-131.8359375
-137.3291015625
-141.90673828125
-132.75146484375
-131.8359375
-134.58251953125
-146.484375
-134.58251953125
-125.42724609375
-130.92041015625
-133.6669921875
-128.173828125
-133.6669921875
-145.56884765625
-147.39990234375
-143.73779296875
-150.146484375
-145.56884765625
-136.41357421875
-140.07568359375
-132.75146484375
-132.75146484375
-130.92041015625
-135.498046875
-133.6669921875
-129.08935546875
-127.25830078125
-130.92041015625
-132.75146484375
-126.3427734375
-123.59619140625
-114.44091796875
-108.94775390625
-96.13037109375
-80.56640625
-74.15771484375
-73.2421875
-68.66455078125
-66.83349609375
-71.4111328125
-81.48193359375
-84.228515625
-87.890625
-78.7353515625
-71.4111328125
-67.7490234375
-72.32666015625
-68.66455078125
-56.7626953125
-54.01611328125
-49.4384765625
-49.4384765625
-41.19873046875
-40.283203125
-49.4384765625
-41.19873046875
-45.7763671875
-55.84716796875
-49.4384765625
-45.7763671875
-50.35400390625
-55.84716796875
-57.67822265625
-58.59375
-50.35400390625
-48.52294921875
-65.91796875
-87.890625
-86.0595703125
-97.0458984375
-102.5390625
-111.6943359375
-126.3427734375
-121.76513671875
-133.6669921875
-138.24462890625
-135.498046875
-128.173828125
-132.75146484375
-136.41357421875
-140.07568359375
-147.39990234375
-153.80859375
-162.9638671875
-160.21728515625
-157.470703125
-159.3017578125
-163.87939453125
-160.21728515625
-167.54150390625
-171.20361328125
-160.21728515625
-151.06201171875
-165.71044921875
-165.71044921875
-164.794921875
-162.9638671875
-161.1328125
-151.06201171875
-156.55517578125
-163.87939453125
-161.1328125
-152.89306640625
-161.1328125
-159.3017578125
-140.07568359375
-145.56884765625
-145.56884765625
-140.9912109375
-121.76513671875
-96.13037109375
-60.4248046875
19.22607421875
102.5390625
218.81103515625
357.97119140625
490.72265625
659.1796875
833.1298828125
993.34716796875
1136.16943359375
1264.34326171875
1358.642578125
1379.69970703125
1345.8251953125
1245.1171875
1048.27880859375
779.11376953125
520.01953125
227.96630859375
10.986328125
-78.7353515625
-116.27197265625
-144.6533203125
-169.37255859375
-173.03466796875
-160.21728515625
-147.39990234375
-132.75146484375
-105.28564453125
-89.7216796875
-77.81982421875
-74.15771484375
-84.228515625
-83.31298828125
-77.81982421875
-80.56640625
-84.228515625
-85.14404296875
-89.7216796875
-95.21484375
-97.96142578125
-96.13037109375
-85.14404296875
-80.56640625
-75.98876953125
-66.83349609375
-72.32666015625
-70.49560546875
-78.7353515625
-77.81982421875
-75.98876953125
-76.904296875
-77.81982421875
-75.0732421875
-68.66455078125
-66.83349609375
-62.255859375
-61.34033203125
-50.35400390625
-40.283203125
-40.283203125
-38.4521484375
-29.296875
-31.1279296875
-27.4658203125
-29.296875
-23.8037109375
-30.21240234375
-30.21240234375
-21.05712890625
-22.88818359375
-13.73291015625
-3.662109375
-3.662109375
-20.1416015625
-8.23974609375
1.8310546875
12.8173828125
21.05712890625
21.97265625
26.55029296875
32.04345703125
31.1279296875
35.70556640625
40.283203125
49.4384765625
54.931640625
56.7626953125
62.255859375
75.0732421875
78.7353515625
83.31298828125
91.552734375
98.876953125
112.60986328125
119.0185546875
122.6806640625
128.173828125
145.56884765625
154.72412109375
159.3017578125
165.71044921875
186.767578125
193.17626953125
205.99365234375
212.40234375
205.99365234375
205.99365234375
219.7265625
233.45947265625
241.69921875
251.77001953125
272.8271484375
272.8271484375
280.1513671875
284.72900390625
288.39111328125
290.22216796875
297.54638671875
311.279296875
309.4482421875
310.36376953125
304.87060546875
296.630859375
290.22216796875
291.1376953125
302.1240234375
304.87060546875
292.96875
281.06689453125
272.8271484375
264.58740234375
259.09423828125
245.361328125
238.037109375
220.64208984375
200.50048828125
180.35888671875
164.794921875
151.9775390625
138.24462890625
131.8359375
119.0185546875
108.0322265625
88.80615234375
61.34033203125
40.283203125
20.1416015625
10.986328125
10.07080078125
0.91552734375
-8.23974609375
-33.87451171875
-40.283203125
-40.283203125
-48.52294921875
-62.255859375
-62.255859375
-65.91796875
-75.0732421875
-81.48193359375
-79.65087890625
-74.15771484375
-75.0732421875
-81.48193359375
-94.29931640625
-106.201171875
-110.77880859375
-105.28564453125
-105.28564453125
-106.201171875
-103.45458984375
-108.0322265625
-105.28564453125
-102.5390625
-108.94775390625
-112.60986328125
-109.86328125
-109.86328125
-109.86328125
-103.45458984375
-108.94775390625
-107.11669921875
-103.45458984375
-108.94775390625
-111.6943359375
-119.0185546875
-108.94775390625
-107.11669921875
-98.876953125
-93.3837890625
-96.13037109375
-97.0458984375
-92.46826171875
-87.890625
-94.29931640625
-108.94775390625
-111.6943359375
-111.6943359375
-107.11669921875
-98.876953125
-96.13037109375
-96.13037109375
-102.5390625
-100.7080078125
-86.0595703125
-88.80615234375
-91.552734375
-91.552734375
-97.0458984375
-99.79248046875
-97.0458984375
-102.5390625
-96.13037109375
-92.46826171875
-92.46826171875
-95.21484375
-87.890625
-90.63720703125
-91.552734375
-97.0458984375
-93.3837890625
-86.97509765625
-89.7216796875
-92.46826171875
-85.14404296875
-83.31298828125
-83.31298828125
-79.65087890625
-86.0595703125
-89.7216796875
-90.63720703125
-90.63720703125
-83.31298828125
-88.80615234375
-106.201171875
-94.29931640625
-91.552734375
-86.97509765625
-86.97509765625
-90.63720703125
-93.3837890625
-98.876953125
-96.13037109375
-98.876953125
-96.13037109375
-93.3837890625
-106.201171875
-103.45458984375
-103.45458984375
-102.5390625
-93.3837890625
-97.96142578125
-108.0322265625
-109.86328125
-108.0322265625
-100.7080078125
-97.96142578125
-98.876953125
-99.79248046875
-93.3837890625
-106.201171875
-115.3564453125
-109.86328125
-106.201171875
-108.0322265625
-119.0185546875
-120.849609375
-98.876953125
-93.3837890625
-110.77880859375
-104.3701171875
-106.201171875
-118.10302734375
-128.173828125
-130.92041015625
-119.0185546875
-109.86328125
-114.44091796875
-108.0322265625
-103.45458984375
-103.45458984375
-105.28564453125
-111.6943359375
-118.10302734375
-118.10302734375
-123.59619140625
-123.59619140625
-134.58251953125
-130.0048828125
-116.27197265625
-111.6943359375
-114.44091796875
-118.10302734375
-118.10302734375
-119.0185546875
-119.0185546875
-121.76513671875
-119.0185546875
-118.10302734375
-107.11669921875
-108.94775390625
-117.1875
-122.6806640625
-116.27197265625
-127.25830078125
-134.58251953125
-129.08935546875
-128.173828125
-116.27197265625
-111.6943359375
-114.44091796875
-116.27197265625
-115.3564453125
-117.1875
-122.6806640625
-122.6806640625
-120.849609375
-128.173828125
-123.59619140625
-119.0185546875
-123.59619140625
-119.93408203125
-124.51171875
-137.3291015625
-130.0048828125
-123.59619140625
-130.92041015625
-124.51171875
-127.25830078125
-124.51171875
-124.51171875
-130.92041015625
-127.25830078125
-123.59619140625
-126.3427734375
-131.8359375
-128.173828125
-132.75146484375
-128.173828125
-114.44091796875
-116.27197265625
-117.1875
-117.1875
-98.876953125
-84.228515625
-77.81982421875
-86.97509765625
-90.63720703125
-95.21484375
-80.56640625
-69.580078125
-65.91796875
-68.66455078125
-72.32666015625
-76.904296875
-91.552734375
-89.7216796875
-74.15771484375
-62.255859375
-54.931640625
-44.86083984375
-42.1142578125
-41.19873046875
-29.296875
-39.36767578125
-46.69189453125
-47.607421875
-39.36767578125
-39.36767578125
-41.19873046875
-34.7900390625
-30.21240234375
-30.21240234375
-33.87451171875
-40.283203125
-51.26953125
-52.18505859375
-52.18505859375
-54.01611328125
-52.18505859375
-53.1005859375
-56.7626953125
-70.49560546875
-80.56640625
-88.80615234375
-94.29931640625
-104.3701171875
-112.60986328125
-112.60986328125
-116.27197265625
-116.27197265625
-130.0048828125
-139.16015625
-139.16015625
-144.6533203125
-143.73779296875
-145.56884765625
-148.3154296875
-148.3154296875
-152.89306640625
-151.9775390625
-150.146484375
-143.73779296875
-151.06201171875
-148.3154296875
-151.06201171875
-156.55517578125
-152.89306640625
-148.3154296875
-141.90673828125
-143.73779296875
-148.3154296875
-149.23095703125
-144.6533203125
-144.6533203125
-147.39990234375
-148.3154296875
-145.56884765625
-143.73779296875
-144.6533203125
-138.24462890625
-133.6669921875
-124.51171875
-108.94775390625
-85.14404296875
-54.931640625
4.57763671875
91.552734375
207.82470703125
328.67431640625
464.17236328125
620.7275390625
788.26904296875
945.73974609375
1095.88623046875
1244.20166015625
1362.3046875
1434.63134765625
1437.3779296875
1368.71337890625
1197.509765625
925.59814453125
670.166015625
409.24072265625
128.173828125
-30.21240234375
-95.21484375
-136.41357421875
-154.72412109375
-146.484375
-122.6806640625
-83.31298828125
-58.59375
-59.50927734375
-54.01611328125
-52.18505859375
-60.4248046875
-59.50927734375
-61.34033203125
-71.4111328125
-86.0595703125
-91.552734375
-91.552734375
-83.31298828125
-80.56640625
-79.65087890625
-83.31298828125
-76.904296875
-70.49560546875
-80.56640625
-75.98876953125
-72.32666015625
-70.49560546875
-73.2421875
-70.49560546875
-66.83349609375
-64.0869140625
-62.255859375
-53.1005859375
-47.607421875
-57.67822265625
-63.17138671875
-57.67822265625
-53.1005859375
-48.52294921875
-45.7763671875
-46.69189453125
-40.283203125
-36.62109375
-31.1279296875
-21.05712890625
-17.39501953125
-15.56396484375
-13.73291015625
-5.4931640625
3.662109375
-6.40869140625
-8.23974609375
-3.662109375
-3.662109375
9.1552734375
10.986328125
5.4931640625
14.6484375
15.56396484375
20.1416015625
25.634765625
29.296875
30.21240234375
33.87451171875
40.283203125
37.53662109375
51.26953125
68.66455078125
75.98876953125
87.890625
92.46826171875
102.5390625
110.77880859375
113.525390625
105.28564453125
113.525390625
119.0185546875
127.25830078125
140.9912109375
162.9638671875
162.9638671875
171.20361328125
181.2744140625
191.34521484375
203.2470703125
216.97998046875
220.64208984375
233.45947265625
243.5302734375
245.361328125
258.1787109375
265.5029296875
272.8271484375
284.72900390625
290.22216796875
296.630859375
300.29296875
297.54638671875
298.4619140625
311.279296875
317.68798828125
308.53271484375
304.87060546875
305.7861328125
304.87060546875
301.20849609375
304.87060546875
306.70166015625
292.96875
288.39111328125
270.08056640625
255.43212890625
257.26318359375
256.34765625
247.1923828125
226.13525390625
202.33154296875
189.51416015625
167.54150390625
147.39990234375
135.498046875
127.25830078125
109.86328125
102.5390625
84.228515625
58.59375
49.4384765625
30.21240234375
17.39501953125
10.07080078125
1.8310546875
-0.91552734375
-15.56396484375
-18.310546875
-32.958984375
-39.36767578125
-40.283203125
-49.4384765625
-59.50927734375
-59.50927734375
-69.580078125
-85.14404296875
-83.31298828125
-81.48193359375
-81.48193359375
-81.48193359375
-84.228515625
-95.21484375
-105.28564453125
-105.28564453125
-109.86328125
-108.94775390625
-102.5390625
-97.96142578125
-90.63720703125
-85.14404296875
-95.21484375
-98.876953125
-100.7080078125
-107.11669921875
-117.1875
-108.0322265625
-102.5390625
-97.0458984375
-98.876953125
-98.876953125
-95.21484375
-92.46826171875
-90.63720703125
-85.14404296875
-84.228515625
-81.48193359375
-78.7353515625
-82.3974609375
-91.552734375
-96.13037109375
-100.7080078125
-95.21484375
-89.7216796875
-97.0458984375
-98.876953125
-94.29931640625
-97.0458984375
-89.7216796875
-92.46826171875
-97.0458984375
-88.80615234375
-81.48193359375
-92.46826171875
-90.63720703125
-88.80615234375
-90.63720703125
-80.56640625
-78.7353515625
-73.2421875
-73.2421875
-76.904296875
-88.80615234375
-93.3837890625
-90.63720703125
-86.97509765625
-76.904296875
-76.904296875
-86.0595703125
-91.552734375
-93.3837890625
-91.552734375
-85.14404296875
-76.904296875
-70.49560546875
-63.17138671875
-71.4111328125
-70.49560546875
-80.56640625
-85.14404296875
-89.7216796875
-99.79248046875
-99.79248046875
-92.46826171875
-79.65087890625
-92.46826171875
-96.13037109375
-92.46826171875
-84.228515625
-86.0595703125
-86.97509765625
-91.552734375
-98.876953125
-109.86328125
-102.5390625
-102.5390625
-100.7080078125
-97.96142578125
-99.79248046875
-108.0322265625
-109.86328125
-100.7080078125
-108.94775390625
-108.94775390625
-98.876953125
-100.7080078125
-97.96142578125
-97.96142578125
-97.96142578125
-90.63720703125
-88.80615234375
-92.46826171875
-99.79248046875
-101.62353515625
-102.5390625
-101.62353515625
-109.86328125
-121.76513671875
-112.60986328125
-112.60986328125
-119.0185546875
-119.0185546875
-121.76513671875
-122.6806640625
-105.28564453125
-108.94775390625
-117.1875
-109.86328125
-102.5390625
-101.62353515625
-106.201171875
-105.28564453125
-118.10302734375
-125.42724609375
-110.77880859375
-108.94775390625
-105.28564453125
-105.28564453125
-111.6943359375
-122.6806640625
-133.6669921875
-129.08935546875
-120.849609375
-113.525390625
-116.27197265625
-108.94775390625
-108.0322265625
-108.94775390625
-116.27197265625
-119.93408203125
-118.10302734375
-124.51171875
-121.76513671875
-113.525390625
-109.86328125
-109.86328125
-112.60986328125
-120.849609375
-119.93408203125
-112.60986328125
-110.77880859375
-108.94775390625
-120.849609375
-130.92041015625
-122.6806640625
-118.10302734375
-119.93408203125
-109.86328125
-110.77880859375
-123.59619140625
-122.6806640625
-117.1875
-117.1875
-118.10302734375
-122.6806640625
-119.0185546875
-121.76513671875
-116.27197265625
-116.27197265625
-117.1875
-109.86328125
-128.173828125
-129.08935546875
-127.25830078125
-128.173828125
-120.849609375
-111.6943359375
-111.6943359375
-118.10302734375
-120.849609375
-119.0185546875
-113.525390625
-108.0322265625
-108.0322265625
-123.59619140625
-123.59619140625
-123.59619140625
-117.1875
-119.0185546875
-124.51171875
-121.76513671875
-107.11669921875
-96.13037109375
-80.56640625
-80.56640625
-86.97509765625
-84.228515625
-79.65087890625
-65.00244140625
-60.4248046875
-67.7490234375
-63.17138671875
-57.67822265625
-65.91796875
-76.904296875
-66.83349609375
-54.931640625
-48.52294921875
-43.02978515625
-37.53662109375
-48.52294921875
-54.931640625
-42.1142578125
-25.634765625
-32.04345703125
-31.1279296875
-31.1279296875
-42.1142578125
-37.53662109375
-35.70556640625
-41.19873046875
-36.62109375
-39.36767578125
-43.9453125
-42.1142578125
-37.53662109375
-42.1142578125
-43.9453125
-53.1005859375
-59.50927734375
-70.49560546875
-75.0732421875
-77.81982421875
-87.890625
-92.46826171875
-94.29931640625
-95.21484375
-104.3701171875
-121.76513671875
-128.173828125
-127.25830078125
-130.0048828125
-133.6669921875
-140.9912109375
-140.07568359375
-132.75146484375
-132.75146484375
-127.25830078125
-120.849609375
-130.0048828125
-140.9912109375
-135.498046875
-129.08935546875
-134.58251953125
-141.90673828125
-147.39990234375
-141.90673828125
-143.73779296875
-141.90673828125
-140.9912109375
-138.24462890625
-140.07568359375
-141.90673828125
-133.6669921875
-133.6669921875
-132.75146484375
-132.75146484375
-135.498046875
-135.498046875
-139.16015625
-142.822265625
-137.3291015625
-128.173828125
-90.63720703125
-65.00244140625
-15.56396484375
54.931640625
156.55517578125
282.89794921875
402.83203125
558.4716796875
726.9287109375
887.14599609375
1050.10986328125
1200.25634765625
1329.345703125
1416.32080078125
1440.12451171875
1396.17919921875
1280.82275390625
1064.75830078125
785.5224609375
548.40087890625
259.09423828125
45.7763671875
-63.17138671875
-129.08935546875
-159.3017578125
-147.39990234375
-116.27197265625
-97.0458984375
-70.49560546875
-53.1005859375
-45.7763671875
-44.86083984375
-46.69189453125
-43.02978515625
-60.4248046875
-71.4111328125
-76.904296875
-83.31298828125
-80.56640625
-81.48193359375
-73.2421875
-74.15771484375
-75.98876953125
-74.15771484375
-78.7353515625
-78.7353515625
-74.15771484375
-65.00244140625
-74.15771484375
-71.4111328125
-61.34033203125
-63.17138671875
-55.84716796875
-60.4248046875
-62.255859375
-57.67822265625
-60.4248046875
-52.18505859375
-48.52294921875
-46.69189453125
-39.36767578125
-35.70556640625
-35.70556640625
-35.70556640625
-36.62109375
-32.958984375
-24.71923828125
-26.55029296875
-25.634765625
-16.4794921875
-6.40869140625
6.40869140625
-5.4931640625
-15.56396484375
-14.6484375
-8.23974609375
0
9.1552734375
2.74658203125
16.4794921875
31.1279296875
23.8037109375
20.1416015625
29.296875
39.36767578125
50.35400390625
50.35400390625
57.67822265625
57.67822265625
66.83349609375
84.228515625
86.0595703125
88.80615234375
95.21484375
111.6943359375
119.0185546875
119.0185546875
122.6806640625
119.93408203125
130.92041015625
144.6533203125
146.484375
158.38623046875
163.87939453125
183.10546875
195.9228515625
196.83837890625
201.416015625
203.2470703125
220.64208984375
227.96630859375
238.037109375
244.44580078125
250.8544921875
266.41845703125
282.89794921875
284.72900390625
292.05322265625
302.1240234375
306.70166015625
306.70166015625
306.70166015625
301.20849609375
295.71533203125
300.29296875
315.85693359375
325.01220703125
319.51904296875
311.279296875
307.6171875
305.7861328125
296.630859375
287.4755859375
280.1513671875
267.333984375
252.685546875
238.95263671875
230.712890625
229.79736328125
210.5712890625
198.66943359375
185.85205078125
162.04833984375
132.75146484375
117.1875
118.10302734375
98.876953125
79.65087890625
61.34033203125
43.9453125
32.958984375
21.05712890625
17.39501953125
1.8310546875
-7.32421875
-7.32421875
-17.39501953125
-23.8037109375
-36.62109375
-42.1142578125
-46.69189453125
-55.84716796875
-64.0869140625
-72.32666015625
-77.81982421875
-82.3974609375
-82.3974609375
-75.98876953125
-76.904296875
-71.4111328125
-76.904296875
-74.15771484375
-75.98876953125
-82.3974609375
-86.97509765625
-93.3837890625
-88.80615234375
-92.46826171875
-95.21484375
-93.3837890625
-93.3837890625
-104.3701171875
-108.0322265625
-96.13037109375
-99.79248046875
-97.96142578125
-97.0458984375
-97.0458984375
-91.552734375
-85.14404296875
-86.0595703125
-91.552734375
-86.97509765625
-95.21484375
-84.228515625
-79.65087890625
-83.31298828125
-89.7216796875
-83.31298828125
-78.7353515625
-89.7216796875
-96.13037109375
-92.46826171875
-88.80615234375
-87.890625
-84.228515625
-84.228515625
-84.228515625
-87.890625
-88.80615234375
-75.98876953125
-78.7353515625
-72.32666015625
-65.91796875
-56.7626953125
-61.34033203125
-68.66455078125
-85.14404296875
-97.0458984375
-85.14404296875
-85.14404296875
-88.80615234375
-81.48193359375
-70.49560546875
-75.0732421875
-85.14404296875
-80.56640625
-80.56640625
-80.56640625
-83.31298828125
-83.31298828125
-88.80615234375
-86.97509765625
-85.14404296875
-84.228515625
-75.98876953125
-77.81982421875
-82.3974609375
-88.80615234375
-81.48193359375
-86.0595703125
-88.80615234375
-92.46826171875
-98.876953125
-89.7216796875
-89.7216796875
-96.13037109375
-97.96142578125
-89.7216796875
-95.21484375
-93.3837890625
-93.3837890625
-89.7216796875
-92.46826171875
-102.5390625
-94.29931640625
-85.14404296875
-83.31298828125
-94.29931640625
-102.5390625
-102.5390625
-111.6943359375
-108.94775390625
-108.94775390625
-109.86328125
-110.77880859375
-111.6943359375
-109.86328125
-100.7080078125
-91.552734375
-89.7216796875
-93.3837890625
-101.62353515625
-102.5390625
-108.94775390625
-113.525390625
-106.201171875
-107.11669921875
-105.28564453125
-107.11669921875
-96.13037109375
-93.3837890625
-97.0458984375
-109.86328125
-120.849609375
-124.51171875
-122.6806640625
-110.77880859375
-106.201171875
-103.45458984375
-95.21484375
-101.62353515625
-108.94775390625
-104.3701171875
-109.86328125
-105.28564453125
-99.79248046875
-109.86328125
-113.525390625
-119.93408203125
-121.76513671875
-127.25830078125
-123.59619140625
-118.10302734375
-117.1875
-103.45458984375
-98.876953125
-100.7080078125
-103.45458984375
-101.62353515625
-100.7080078125
-108.0322265625
-114.44091796875
-119.0185546875
-125.42724609375
-117.1875
-119.93408203125
-118.10302734375
-113.525390625
-120.849609375
-117.1875
-101.62353515625
-114.44091796875
-118.10302734375
-113.525390625
-117.1875
-109.86328125
-97.96142578125
-112.60986328125
-110.77880859375
-110.77880859375
-119.93408203125
-127.25830078125
-113.525390625
-112.60986328125
-116.27197265625
-108.94775390625
-107.11669921875
-119.93408203125
-119.0185546875
-118.10302734375
-124.51171875
-122.6806640625
-120.849609375
-118.10302734375
-113.525390625
-119.93408203125
-123.59619140625
-120.849609375
-116.27197265625
-114.44091796875
-108.94775390625
-105.28564453125
-109.86328125
-108.0322265625
-115.3564453125
-107.11669921875
-95.21484375
-98.876953125
-89.7216796875
-81.48193359375
-81.48193359375
-73.2421875
-72.32666015625
-76.904296875
-76.904296875
-70.49560546875
-68.66455078125
-63.17138671875
-71.4111328125
-87.890625
-94.29931640625
-85.14404296875
-65.00244140625
-41.19873046875
-43.9453125
-44.86083984375
-48.52294921875
-51.26953125
-35.70556640625
-25.634765625
-25.634765625
-27.4658203125
-43.9453125
-47.607421875
-35.70556640625
-27.4658203125
-32.958984375
-43.9453125
-45.7763671875
-43.9453125
-42.1142578125
-36.62109375
-39.36767578125
-49.4384765625
-58.59375
-64.0869140625
-72.32666015625
-69.580078125
-71.4111328125
-72.32666015625
-75.0732421875
-83.31298828125
-107.11669921875
-129.08935546875
