ECG
-92.46826171875
-89.7216796875
-81.48193359375
-66.83349609375
-53.1005859375
-48.52294921875
-52.18505859375
-50.35400390625
-47.607421875
-51.26953125
-60.4248046875
-46.69189453125
-36.62109375
-51.26953125
-57.67822265625
-67.7490234375
-81.48193359375
-86.97509765625
-81.48193359375
-76.904296875
-86.0595703125
-87.890625
-87.890625
-86.0595703125
-90.63720703125
-86.0595703125
-86.0595703125
-86.97509765625
-92.46826171875
-93.3837890625
-98.876953125
-97.0458984375
-104.3701171875
-108.94775390625
-102.5390625
-115.3564453125
-109.86328125
-110.77880859375
-112.60986328125
-108.94775390625
-105.28564453125
-99.79248046875
-112.60986328125
-109.86328125
-108.94775390625
-106.201171875
-107.11669921875
-108.0322265625
-98.876953125
-101.62353515625
-92.46826171875
-99.79248046875
-110.77880859375
-103.45458984375
-119.0185546875
-141.90673828125
-162.04833984375
-187.68310546875
-225.2197265625
-240.78369140625
-210.5712890625
-167.54150390625
-138.24462890625
-95.21484375
-6.40869140625
94.29931640625
205.078125
356.14013671875
488.8916015625
658.26416015625
834.04541015625
988.76953125
1094.05517578125
1143.49365234375
1137.0849609375
1056.5185546875
924.6826171875
711.36474609375
399.169921875
103.45458984375
-212.40234375
-466.9189453125
-514.5263671875
-472.412109375
-444.03076171875
-432.12890625
-433.04443359375
-409.24072265625
-373.53515625
-339.66064453125
-289.306640625
-246.27685546875
-212.40234375
-192.2607421875
-162.9638671875
-119.93408203125
-97.0458984375
-85.14404296875
-82.3974609375
-69.580078125
-67.7490234375
-72.32666015625
-73.2421875
-72.32666015625
-63.17138671875
-61.34033203125
-54.931640625
-47.607421875
-50.35400390625
-54.01611328125
-40.283203125
-34.7900390625
-42.1142578125
-42.1142578125
-23.8037109375
-17.39501953125
-22.88818359375
-35.70556640625
-30.21240234375
-22.88818359375
-18.310546875
-17.39501953125
-13.73291015625
-5.4931640625
-6.40869140625
-0.91552734375
-2.74658203125
4.57763671875
3.662109375
6.40869140625
9.1552734375
5.4931640625
13.73291015625
13.73291015625
10.986328125
15.56396484375
13.73291015625
20.1416015625
23.8037109375
30.21240234375
37.53662109375
35.70556640625
33.87451171875
34.7900390625
63.17138671875
63.17138671875
54.01611328125
54.01611328125
66.83349609375
73.2421875
64.0869140625
64.0869140625
72.32666015625
67.7490234375
78.7353515625
89.7216796875
95.21484375
97.96142578125
98.876953125
109.86328125
113.525390625
116.27197265625
118.10302734375
126.3427734375
134.58251953125
146.484375
155.6396484375
162.9638671875
153.80859375
177.6123046875
169.37255859375
183.10546875
199.5849609375
196.83837890625
207.82470703125
216.97998046875
228.8818359375
238.037109375
240.78369140625
247.1923828125
251.77001953125
255.43212890625
265.5029296875
288.39111328125
292.96875
285.64453125
293.88427734375
303.955078125
316.7724609375
314.02587890625
315.85693359375
324.0966796875
334.16748046875
335.0830078125
341.49169921875
353.3935546875
352.47802734375
346.0693359375
352.47802734375
361.63330078125
354.30908203125
348.81591796875
342.4072265625
341.49169921875
346.98486328125
329.58984375
333.251953125
332.33642578125
321.35009765625
318.603515625
300.29296875
284.72900390625
276.4892578125
273.74267578125
258.1787109375
241.69921875
233.45947265625
215.14892578125
202.33154296875
185.85205078125
171.20361328125
160.21728515625
146.484375
124.51171875
108.0322265625
101.62353515625
89.7216796875
77.81982421875
57.67822265625
48.52294921875
32.958984375
31.1279296875
23.8037109375
11.90185546875
-3.662109375
-3.662109375
-15.56396484375
-17.39501953125
-19.22607421875
-31.1279296875
-37.53662109375
-36.62109375
-36.62109375
-41.19873046875
-44.86083984375
-44.86083984375
-26.55029296875
-43.02978515625
-54.931640625
-52.18505859375
-57.67822265625
-59.50927734375
-61.34033203125
-50.35400390625
-59.50927734375
-65.91796875
-60.4248046875
-61.34033203125
-53.1005859375
-54.931640625
-52.18505859375
-55.84716796875
-52.18505859375
-60.4248046875
-60.4248046875
-56.7626953125
-54.931640625
-58.59375
-43.02978515625
-40.283203125
-47.607421875
-47.607421875
-45.7763671875
-42.1142578125
-41.19873046875
-42.1142578125
-45.7763671875
-40.283203125
-35.70556640625
-43.02978515625
-42.1142578125
-50.35400390625
-43.02978515625
-28.38134765625
-52.18505859375
-49.4384765625
-49.4384765625
-43.02978515625
-45.7763671875
-47.607421875
-43.02978515625
-40.283203125
-39.36767578125
-39.36767578125
-17.39501953125
-30.21240234375
-46.69189453125
-43.02978515625
-40.283203125
-43.02978515625
-41.19873046875
-48.52294921875
-50.35400390625
-43.9453125
-37.53662109375
-48.52294921875
-44.86083984375
-47.607421875
-43.9453125
-40.283203125
-44.86083984375
-42.1142578125
-43.02978515625
-47.607421875
-52.18505859375
-55.84716796875
-45.7763671875
-45.7763671875
-62.255859375
-58.59375
-48.52294921875
-54.931640625
-57.67822265625
-56.7626953125
-55.84716796875
-54.931640625
-60.4248046875
-55.84716796875
-64.0869140625
-55.84716796875
-57.67822265625
-58.59375
-61.34033203125
-71.4111328125
-60.4248046875
-57.67822265625
-49.4384765625
-73.2421875
-82.3974609375
-75.0732421875
-72.32666015625
-75.98876953125
-63.17138671875
-67.7490234375
-75.98876953125
-82.3974609375
-84.228515625
-72.32666015625
-77.81982421875
-75.0732421875
-71.4111328125
-71.4111328125
-72.32666015625
-66.83349609375
-84.228515625
-84.228515625
-76.904296875
-76.904296875
-88.80615234375
-88.80615234375
-86.0595703125
-77.81982421875
-77.81982421875
-74.15771484375
-77.81982421875
-80.56640625
-73.2421875
-70.49560546875
-73.2421875
-76.904296875
-79.65087890625
-79.65087890625
-74.15771484375
-74.15771484375
-83.31298828125
-82.3974609375
-70.49560546875
-76.904296875
-76.904296875
-75.98876953125
-79.65087890625
-79.65087890625
-74.15771484375
-73.2421875
-80.56640625
-75.98876953125
-79.65087890625
-80.56640625
-82.3974609375
-84.228515625
-74.15771484375
-74.15771484375
-77.81982421875
-89.7216796875
-83.31298828125
-75.0732421875
-73.2421875
-76.904296875
-79.65087890625
-83.31298828125
-85.14404296875
-79.65087890625
-71.4111328125
-82.3974609375
-84.228515625
-85.14404296875
-86.0595703125
-69.580078125
-82.3974609375
-83.31298828125
-84.228515625
-78.7353515625
-78.7353515625
-79.65087890625
-64.0869140625
-66.83349609375
-88.80615234375
-97.96142578125
-91.552734375
-88.80615234375
-87.890625
-86.97509765625
-85.14404296875
-86.0595703125
-84.228515625
-80.56640625
-84.228515625
-88.80615234375
-81.48193359375
-79.65087890625
-82.3974609375
-96.13037109375
-92.46826171875
-75.0732421875
-74.15771484375
-76.904296875
-85.14404296875
-69.580078125
-75.0732421875
-74.15771484375
-65.00244140625
-90.63720703125
-96.13037109375
-78.7353515625
-72.32666015625
-83.31298828125
-90.63720703125
-81.48193359375
-67.7490234375
-60.4248046875
-43.02978515625
-38.4521484375
-45.7763671875
-35.70556640625
-31.1279296875
-37.53662109375
-34.7900390625
-41.19873046875
-40.283203125
-41.19873046875
-52.18505859375
-58.59375
-49.4384765625
-48.52294921875
-68.66455078125
-70.49560546875
-59.50927734375
-58.59375
-62.255859375
-65.91796875
-68.66455078125
-71.4111328125
-75.0732421875
-74.15771484375
-69.580078125
-66.83349609375
-57.67822265625
-86.97509765625
-86.0595703125
-86.0595703125
-83.31298828125
-81.48193359375
-87.890625
-91.552734375
-93.3837890625
-95.21484375
-88.80615234375
-87.890625
-85.14404296875
-92.46826171875
-90.63720703125
-77.81982421875
-74.15771484375
-97.0458984375
-97.96142578125
-97.0458984375
-92.46826171875
-86.97509765625
-88.80615234375
-91.552734375
-96.13037109375
-117.1875
-141.90673828125
-153.80859375
-176.69677734375
-192.2607421875
-178.52783203125
-141.90673828125
-98.876953125
-59.50927734375
5.4931640625
119.0185546875
251.77001953125
368.95751953125
504.45556640625
659.1796875
853.271484375
1040.95458984375
1139.83154296875
1186.5234375
1218.56689453125
1180.11474609375
1087.646484375
919.189453125
637.20703125
354.30908203125
69.580078125
-294.7998046875
-504.45556640625
-531.005859375
-499.8779296875
-446.77734375
-425.72021484375
-398.25439453125
-346.98486328125
-306.70166015625
-264.58740234375
-224.30419921875
-178.52783203125
-142.822265625
-111.6943359375
-91.552734375
-72.32666015625
-51.26953125
-51.26953125
-62.255859375
-57.67822265625
-43.02978515625
-42.1142578125
-46.69189453125
-38.4521484375
-38.4521484375
-33.87451171875
-35.70556640625
-33.87451171875
-28.38134765625
-26.55029296875
-25.634765625
-25.634765625
-16.4794921875
-30.21240234375
-19.22607421875
-16.4794921875
-10.07080078125
-17.39501953125
-14.6484375
-6.40869140625
-3.662109375
4.57763671875
0.91552734375
0
0
3.662109375
12.8173828125
28.38134765625
14.6484375
10.07080078125
18.310546875
15.56396484375
23.8037109375
24.71923828125
24.71923828125
30.21240234375
32.04345703125
30.21240234375
30.21240234375
38.4521484375
43.9453125
46.69189453125
57.67822265625
57.67822265625
58.59375
65.00244140625
73.2421875
70.49560546875
76.904296875
82.3974609375
84.228515625
94.29931640625
89.7216796875
80.56640625
99.79248046875
103.45458984375
102.5390625
106.201171875
118.10302734375
119.0185546875
126.3427734375
130.0048828125
131.8359375
151.9775390625
167.54150390625
148.3154296875
149.23095703125
167.54150390625
178.52783203125
185.85205078125
180.35888671875
200.50048828125
209.65576171875
217.8955078125
221.5576171875
232.5439453125
241.69921875
253.60107421875
261.8408203125
272.8271484375
273.74267578125
285.64453125
301.20849609375
312.19482421875
317.68798828125
307.6171875
320.4345703125
340.576171875
338.7451171875
346.0693359375
354.30908203125
358.88671875
362.548828125
354.30908203125
358.88671875
365.29541015625
357.0556640625
364.3798828125
361.63330078125
363.46435546875
368.0419921875
365.29541015625
365.29541015625
365.29541015625
357.97119140625
342.4072265625
331.4208984375
330.50537109375
324.0966796875
320.4345703125
308.53271484375
293.88427734375
278.3203125
261.8408203125
249.0234375
235.29052734375
210.5712890625
196.83837890625
197.75390625
165.71044921875
136.41357421875
127.25830078125
116.27197265625
112.60986328125
91.552734375
72.32666015625
68.66455078125
59.50927734375
45.7763671875
33.87451171875
41.19873046875
22.88818359375
-3.662109375
4.57763671875
-6.40869140625
-16.4794921875
-20.1416015625
-13.73291015625
-13.73291015625
-41.19873046875
-44.86083984375
-43.02978515625
-40.283203125
-38.4521484375
-43.9453125
-46.69189453125
-48.52294921875
-54.01611328125
-59.50927734375
-54.01611328125
-56.7626953125
-58.59375
-65.91796875
-75.0732421875
-70.49560546875
-65.00244140625
-66.83349609375
-63.17138671875
-61.34033203125
-67.7490234375
-68.66455078125
-67.7490234375
-69.580078125
-69.580078125
-63.17138671875
-62.255859375
-61.34033203125
-54.931640625
-53.1005859375
-56.7626953125
-57.67822265625
-66.83349609375
-63.17138671875
-49.4384765625
-51.26953125
-54.01611328125
-43.02978515625
-49.4384765625
-42.1142578125
-40.283203125
-45.7763671875
-37.53662109375
-40.283203125
-43.02978515625
-46.69189453125
-39.36767578125
-29.296875
-37.53662109375
-38.4521484375
-35.70556640625
-38.4521484375
-30.21240234375
-29.296875
-29.296875
-35.70556640625
-14.6484375
-16.4794921875
-33.87451171875
-31.1279296875
-32.04345703125
-23.8037109375
-20.1416015625
-29.296875
-38.4521484375
-43.9453125
-39.36767578125
-33.87451171875
-23.8037109375
-19.22607421875
-30.21240234375
-30.21240234375
-27.4658203125
-41.19873046875
-39.36767578125
-42.1142578125
-41.19873046875
-35.70556640625
-43.9453125
-43.02978515625
-40.283203125
-57.67822265625
-48.52294921875
-45.7763671875
-61.34033203125
-57.67822265625
-56.7626953125
-50.35400390625
-50.35400390625
-54.01611328125
-53.1005859375
-52.18505859375
-51.26953125
-51.26953125
-47.607421875
-61.34033203125
-68.66455078125
-60.4248046875
-56.7626953125
-58.59375
-59.50927734375
-56.7626953125
-75.98876953125
-70.49560546875
-61.34033203125
-64.0869140625
-62.255859375
-57.67822265625
-65.00244140625
-56.7626953125
-60.4248046875
-66.83349609375
-69.580078125
-73.2421875
-66.83349609375
-65.91796875
-68.66455078125
-81.48193359375
-75.98876953125
-77.81982421875
-77.81982421875
-69.580078125
-73.2421875
-71.4111328125
-62.255859375
-81.48193359375
-78.7353515625
-75.98876953125
-77.81982421875
-79.65087890625
-84.228515625
-83.31298828125
-75.0732421875
-74.15771484375
-74.15771484375
-84.228515625
-79.65087890625
-78.7353515625
-75.98876953125
-72.32666015625
-75.0732421875
-84.228515625
-82.3974609375
-73.2421875
-75.0732421875
-79.65087890625
-85.14404296875
-89.7216796875
-80.56640625
-76.904296875
-70.49560546875
-65.00244140625
-73.2421875
-81.48193359375
-82.3974609375
-85.14404296875
-81.48193359375
-84.228515625
-79.65087890625
-82.3974609375
-82.3974609375
-86.0595703125
-80.56640625
-81.48193359375
-78.7353515625
-79.65087890625
-85.14404296875
-74.15771484375
-79.65087890625
-87.890625
-84.228515625
-82.3974609375
-81.48193359375
-85.14404296875
-90.63720703125
-83.31298828125
-75.0732421875
-84.228515625
-86.97509765625
-75.0732421875
-77.81982421875
-76.904296875
-85.14404296875
-83.31298828125
-79.65087890625
-73.2421875
-72.32666015625
-95.21484375
-94.29931640625
-84.228515625
-82.3974609375
-89.7216796875
-80.56640625
-80.56640625
-77.81982421875
-89.7216796875
-85.14404296875
-75.98876953125
-80.56640625
-75.98876953125
-63.17138671875
-63.17138671875
-76.904296875
-97.0458984375
-96.13037109375
-83.31298828125
-84.228515625
-86.0595703125
-81.48193359375
-78.7353515625
-82.3974609375
-86.97509765625
-76.904296875
-74.15771484375
-64.0869140625
-52.18505859375
-46.69189453125
-43.02978515625
-42.1142578125
-42.1142578125
-42.1142578125
-44.86083984375
-48.52294921875
-46.69189453125
-40.283203125
-71.4111328125
-73.2421875
-65.91796875
-65.00244140625
-66.83349609375
-71.4111328125
-69.580078125
-73.2421875
-79.65087890625
-72.32666015625
-65.91796875
-63.17138671875
-67.7490234375
-67.7490234375
-73.2421875
-75.98876953125
-70.49560546875
-75.98876953125
-79.65087890625
-76.904296875
-82.3974609375
-89.7216796875
-89.7216796875
-110.77880859375
-107.11669921875
-85.14404296875
-87.890625
-105.28564453125
-108.0322265625
-99.79248046875
-97.96142578125
-93.3837890625
-87.890625
-88.80615234375
-97.96142578125
-93.3837890625
-88.80615234375
-96.13037109375
-95.21484375
-95.21484375
-106.201171875
-119.0185546875
-144.6533203125
-163.87939453125
-171.20361328125
-175.78125
-159.3017578125
-113.525390625
-65.91796875
-7.32421875
86.0595703125
222.47314453125
330.50537109375
453.18603515625
601.50146484375
795.59326171875
983.2763671875
1103.21044921875
1159.97314453125
1204.833984375
1196.59423828125
1124.267578125
977.783203125
756.2255859375
466.9189453125
208.740234375
-139.16015625
-488.8916015625
-569.4580078125
-541.07666015625
-495.30029296875
-453.18603515625
-418.39599609375
-355.224609375
-304.87060546875
-257.26318359375
-211.48681640625
-164.794921875
-125.42724609375
-105.28564453125
-75.98876953125
-57.67822265625
-61.34033203125
-68.66455078125
-56.7626953125
-42.1142578125
-52.18505859375
-47.607421875
-49.4384765625
-52.18505859375
-39.36767578125
-38.4521484375
-37.53662109375
-29.296875
-26.55029296875
-30.21240234375
-30.21240234375
-22.88818359375
-25.634765625
-20.1416015625
-7.32421875
-11.90185546875
-27.4658203125
-15.56396484375
-2.74658203125
-8.23974609375
-16.4794921875
-3.662109375
0
-2.74658203125
1.8310546875
10.07080078125
12.8173828125
12.8173828125
21.97265625
20.1416015625
26.55029296875
13.73291015625
11.90185546875
23.8037109375
13.73291015625
14.6484375
24.71923828125
32.04345703125
41.19873046875
36.62109375
48.52294921875
44.86083984375
45.7763671875
43.9453125
50.35400390625
60.4248046875
57.67822265625
60.4248046875
64.0869140625
70.49560546875
74.15771484375
86.0595703125
75.98876953125
79.65087890625
88.80615234375
91.552734375
94.29931640625
103.45458984375
111.6943359375
111.6943359375
108.94775390625
116.27197265625
127.25830078125
130.92041015625
139.16015625
144.6533203125
152.89306640625
154.72412109375
161.1328125
184.9365234375
200.50048828125
184.02099609375
184.9365234375
198.66943359375
207.82470703125
212.40234375
226.13525390625
245.361328125
254.5166015625
257.26318359375
266.41845703125
275.57373046875
280.1513671875
287.4755859375
303.03955078125
307.6171875
313.1103515625
313.1103515625
312.19482421875
343.32275390625
341.49169921875
328.67431640625
325.01220703125
337.82958984375
345.15380859375
351.5625
349.7314453125
351.5625
349.7314453125
355.224609375
351.5625
353.3935546875
360.7177734375
349.7314453125
331.4208984375
330.50537109375
331.4208984375
323.18115234375
311.279296875
299.37744140625
294.7998046875
284.72900390625
270.99609375
258.1787109375
241.69921875
228.8818359375
210.5712890625
183.10546875
184.9365234375
176.69677734375
161.1328125
132.75146484375
119.93408203125
106.201171875
92.46826171875
75.98876953125
63.17138671875
54.01611328125
37.53662109375
34.7900390625
21.97265625
13.73291015625
5.4931640625
-7.32421875
-10.986328125
-16.4794921875
-21.97265625
-29.296875
-33.87451171875
-39.36767578125
-39.36767578125
-43.9453125
-52.18505859375
-54.931640625
-58.59375
-58.59375
-64.0869140625
-66.83349609375
-71.4111328125
-69.580078125
-63.17138671875
-65.00244140625
-61.34033203125
-69.580078125
-79.65087890625
-77.81982421875
-71.4111328125
-74.15771484375
-77.81982421875
-69.580078125
-65.00244140625
-65.91796875
-50.35400390625
-59.50927734375
-78.7353515625
-78.7353515625
-73.2421875
-75.98876953125
-72.32666015625
-71.4111328125
-67.7490234375
-65.91796875
-62.255859375
-60.4248046875
-64.0869140625
-65.00244140625
-59.50927734375
-60.4248046875
-57.67822265625
-49.4384765625
-43.02978515625
-44.86083984375
-56.7626953125
-56.7626953125
-41.19873046875
-57.67822265625
-43.02978515625
-48.52294921875
-44.86083984375
-43.9453125
-43.02978515625
-36.62109375
-43.02978515625
-37.53662109375
-46.69189453125
-46.69189453125
-45.7763671875
-47.607421875
-48.52294921875
-49.4384765625
-39.36767578125
-44.86083984375
-47.607421875
-46.69189453125
-40.283203125
-39.36767578125
-46.69189453125
-51.26953125
-46.69189453125
-51.26953125
-54.01611328125
-57.67822265625
-53.1005859375
-54.01611328125
-54.931640625
-61.34033203125
-59.50927734375
-53.1005859375
-49.4384765625
-43.02978515625
-38.4521484375
-65.91796875
-69.580078125
-56.7626953125
-61.34033203125
-63.17138671875
-55.84716796875
-56.7626953125
-54.01611328125
-54.931640625
-62.255859375
-64.0869140625
-54.01611328125
-55.84716796875
-62.255859375
-66.83349609375
-68.66455078125
-70.49560546875
-75.0732421875
-66.83349609375
-59.50927734375
-66.83349609375
-75.98876953125
-75.98876953125
-73.2421875
-71.4111328125
-72.32666015625
-68.66455078125
-71.4111328125
-71.4111328125
-73.2421875
-67.7490234375
-70.49560546875
-75.98876953125
-70.49560546875
-69.580078125
-76.904296875
-80.56640625
-86.97509765625
-80.56640625
-74.15771484375
-71.4111328125
-71.4111328125
-79.65087890625
-84.228515625
-83.31298828125
-80.56640625
-79.65087890625
-75.98876953125
-70.49560546875
-66.83349609375
-78.7353515625
-86.0595703125
-77.81982421875
-66.83349609375
-72.32666015625
-79.65087890625
-82.3974609375
-73.2421875
-69.580078125
-79.65087890625
-77.81982421875
-76.904296875
-79.65087890625
-80.56640625
-83.31298828125
-83.31298828125
-79.65087890625
-85.14404296875
-84.228515625
-79.65087890625
-77.81982421875
-75.98876953125
-81.48193359375
-77.81982421875
-72.32666015625
-77.81982421875
-80.56640625
-84.228515625
-81.48193359375
-99.79248046875
-87.890625
-81.48193359375
-75.98876953125
-86.97509765625
-88.80615234375
-84.228515625
-88.80615234375
-86.0595703125
-91.552734375
-89.7216796875
-79.65087890625
-79.65087890625
-79.65087890625
-85.14404296875
-84.228515625
-81.48193359375
-88.80615234375
-81.48193359375
-91.552734375
-97.0458984375
-95.21484375
-78.7353515625
-80.56640625
-87.890625
-85.14404296875
-86.97509765625
-84.228515625
-88.80615234375
-81.48193359375
-85.14404296875
-81.48193359375
-79.65087890625
-87.890625
-85.14404296875
-75.98876953125
-81.48193359375
-86.97509765625
-83.31298828125
-86.0595703125
-84.228515625
-75.98876953125
-86.97509765625
-85.14404296875
-79.65087890625
-70.49560546875
-77.81982421875
-78.7353515625
-72.32666015625
-75.98876953125
-80.56640625
-76.904296875
-69.580078125
-72.32666015625
-74.15771484375
-75.98876953125
-75.0732421875
-76.904296875
-74.15771484375
-74.15771484375
-66.83349609375
-63.17138671875
-60.4248046875
-69.580078125
-75.98876953125
-78.7353515625
-73.2421875
-80.56640625
-85.14404296875
-88.80615234375
-81.48193359375
-75.98876953125
-78.7353515625
-78.7353515625
-76.904296875
-57.67822265625
-43.9453125
-34.7900390625
-36.62109375
-37.53662109375
-38.4521484375
-33.87451171875
-36.62109375
-45.7763671875
-49.4384765625
-60.4248046875
-64.0869140625
-46.69189453125
-45.7763671875
-54.931640625
-60.4248046875
-69.580078125
-65.00244140625
-59.50927734375
-65.91796875
-71.4111328125
-76.904296875
-56.7626953125
-61.34033203125
-74.15771484375
-87.890625
-65.91796875
-81.48193359375
-84.228515625
-78.7353515625
-78.7353515625
-82.3974609375
-91.552734375
-95.21484375
-100.7080078125
-97.96142578125
-89.7216796875
-85.14404296875
-86.0595703125
-85.14404296875
-80.56640625
-75.0732421875
-66.83349609375
-81.48193359375
-104.3701171875
-103.45458984375
-97.0458984375
-92.46826171875
-98.876953125
-98.876953125
-95.21484375
-87.890625
-95.21484375
-114.44091796875
-149.23095703125
-164.794921875
-185.85205078125
-186.767578125
-150.146484375
-104.3701171875
-69.580078125
-10.986328125
75.98876953125
194.091796875
309.4482421875
441.2841796875
590.51513671875
793.76220703125
983.2763671875
1107.7880859375
1166.3818359375
1193.84765625
1168.212890625
1085.8154296875
928.3447265625
681.15234375
386.3525390625
111.6943359375
-238.037109375
-514.5263671875
-553.89404296875
-533.75244140625
-484.31396484375
-451.35498046875
-415.6494140625
-341.49169921875
-295.71533203125
-267.333984375
-219.7265625
-172.119140625
-130.92041015625
-93.3837890625
-75.98876953125
-71.4111328125
-65.00244140625
-55.84716796875
-54.931640625
-54.931640625
-53.1005859375
-53.1005859375
-56.7626953125
-41.19873046875
-38.4521484375
-32.04345703125
-32.958984375
-35.70556640625
-33.87451171875
-26.55029296875
-25.634765625
-28.38134765625
-21.05712890625
-13.73291015625
-17.39501953125
-21.97265625
-16.4794921875
-11.90185546875
-7.32421875
-6.40869140625
0
8.23974609375
5.4931640625
8.23974609375
10.07080078125
-0.91552734375
3.662109375
12.8173828125
10.986328125
12.8173828125
20.1416015625
10.986328125
18.310546875
21.05712890625
23.8037109375
32.958984375
37.53662109375
32.958984375
36.62109375
46.69189453125
24.71923828125
36.62109375
43.9453125
44.86083984375
50.35400390625
50.35400390625
62.255859375
70.49560546875
75.98876953125
71.4111328125
72.32666015625
78.7353515625
91.552734375
90.63720703125
94.29931640625
96.13037109375
102.5390625
95.21484375
113.525390625
117.1875
119.93408203125
130.0048828125
143.73779296875
146.484375
145.56884765625
151.06201171875
156.55517578125
167.54150390625
173.9501953125
183.10546875
189.51416015625
191.34521484375
204.16259765625
208.740234375
205.078125
215.14892578125
233.45947265625
234.375
241.69921875
253.60107421875
258.1787109375
267.333984375
280.1513671875
287.4755859375
292.05322265625
301.20849609375
309.4482421875
318.603515625
328.67431640625
339.66064453125
333.251953125
335.0830078125
339.66064453125
335.99853515625
339.66064453125
338.7451171875
345.15380859375
346.98486328125
346.98486328125
345.15380859375
351.5625
353.3935546875
362.548828125
346.98486328125
328.67431640625
329.58984375
325.01220703125
315.85693359375
309.4482421875
306.70166015625
292.96875
289.306640625
275.57373046875
256.34765625
247.1923828125
227.05078125
208.740234375
205.078125
192.2607421875
175.78125
142.822265625
130.0048828125
114.44091796875
104.3701171875
87.890625
68.66455078125
61.34033203125
53.1005859375
42.1142578125
32.04345703125
20.1416015625
15.56396484375
4.57763671875
0
-2.74658203125
-9.1552734375
-20.1416015625
-20.1416015625
-21.97265625
-37.53662109375
-38.4521484375
-57.67822265625
-38.4521484375
-47.607421875
-55.84716796875
-57.67822265625
-61.34033203125
-65.91796875
-60.4248046875
-60.4248046875
-57.67822265625
-56.7626953125
-64.0869140625
-62.255859375
-62.255859375
-69.580078125
-74.15771484375
-55.84716796875
-61.34033203125
-65.91796875
-70.49560546875
-70.49560546875
-74.15771484375
-71.4111328125
-73.2421875
-70.49560546875
-65.00244140625
-64.0869140625
-65.00244140625
-64.0869140625
-64.0869140625
-60.4248046875
-63.17138671875
-65.00244140625
-54.01611328125
-56.7626953125
-55.84716796875
-54.931640625
-58.59375
-58.59375
-55.84716796875
-48.52294921875
-49.4384765625
-65.91796875
-42.1142578125
-35.70556640625
-52.18505859375
-54.01611328125
-43.9453125
-43.9453125
-39.36767578125
-37.53662109375
-43.02978515625
-43.9453125
-47.607421875
-42.1142578125
-37.53662109375
-30.21240234375
-48.52294921875
-41.19873046875
-43.02978515625
-44.86083984375
-40.283203125
-36.62109375
-35.70556640625
-39.36767578125
-39.36767578125
-41.19873046875
-43.9453125
-40.283203125
-45.7763671875
-51.26953125
-49.4384765625
-43.02978515625
-52.18505859375
-53.1005859375
-38.4521484375
-49.4384765625
-70.49560546875
-58.59375
-59.50927734375
-55.84716796875
-38.4521484375
-45.7763671875
-49.4384765625
-60.4248046875
-65.91796875
-65.00244140625
-58.59375
-55.84716796875
-56.7626953125
-65.91796875
-65.91796875
-68.66455078125
-57.67822265625
-54.931640625
-67.7490234375
-71.4111328125
-65.91796875
-70.49560546875
-67.7490234375
-65.00244140625
-68.66455078125
-69.580078125
-64.0869140625
-63.17138671875
-58.59375
-71.4111328125
-71.4111328125
-86.0595703125
-75.0732421875
-75.98876953125
-75.98876953125
-70.49560546875
-74.15771484375
-66.83349609375
-44.86083984375
-72.32666015625
-81.48193359375
-73.2421875
-75.98876953125
-74.15771484375
-80.56640625
-88.80615234375
-88.80615234375
-86.0595703125
-86.0595703125
-83.31298828125
-83.31298828125
-82.3974609375
-75.0732421875
-74.15771484375
-86.0595703125
-90.63720703125
-80.56640625
-85.14404296875
-77.81982421875
-76.904296875
-85.14404296875
-79.65087890625
-76.904296875
-79.65087890625
-76.904296875
-77.81982421875
-75.0732421875
-69.580078125
-76.904296875
-78.7353515625
-79.65087890625
-81.48193359375
-95.21484375
-91.552734375
-85.14404296875
-86.0595703125
-79.65087890625
-91.552734375
-90.63720703125
-81.48193359375
-85.14404296875
-84.228515625
-88.80615234375
-85.14404296875
-90.63720703125
-94.29931640625
-91.552734375
-89.7216796875
-86.0595703125
-86.0595703125
-85.14404296875
-83.31298828125
-80.56640625
-73.2421875
-79.65087890625
-99.79248046875
-85.14404296875
-87.890625
-90.63720703125
-85.14404296875
-80.56640625
-81.48193359375
-78.7353515625
-89.7216796875
-91.552734375
-87.890625
-85.14404296875
-85.14404296875
-89.7216796875
-74.15771484375
-75.0732421875
-93.3837890625
-86.0595703125
-80.56640625
-88.80615234375
-93.3837890625
-97.96142578125
-90.63720703125
-90.63720703125
-90.63720703125
-89.7216796875
-93.3837890625
-95.21484375
-92.46826171875
-94.29931640625
-95.21484375
-92.46826171875
-91.552734375
-92.46826171875
-93.3837890625
-86.97509765625
-79.65087890625
-91.552734375
-86.0595703125
-94.29931640625
-90.63720703125
-85.14404296875
-94.29931640625
-95.21484375
-87.890625
-88.80615234375
-86.97509765625
-81.48193359375
-82.3974609375
-88.80615234375
-92.46826171875
-80.56640625
-80.56640625
-94.29931640625
-97.0458984375
-96.13037109375
-97.0458984375
-90.63720703125
-88.80615234375
-90.63720703125
-89.7216796875
-94.29931640625
-91.552734375
-94.29931640625
-87.890625
-89.7216796875
-85.14404296875
-75.0732421875
-76.904296875
-87.890625
-85.14404296875
-92.46826171875
-97.96142578125
-90.63720703125
-81.48193359375
-84.228515625
-88.80615234375
-91.552734375
-92.46826171875
-92.46826171875
-86.0595703125
-86.0595703125
-86.0595703125
-92.46826171875
-97.96142578125
-97.0458984375
-94.29931640625
-92.46826171875
-87.890625
-84.228515625
-93.3837890625
-97.96142578125
-93.3837890625
-80.56640625
-87.890625
-93.3837890625
-91.552734375
-90.63720703125
-90.63720703125
-89.7216796875
-85.14404296875
-91.552734375
-86.97509765625
-85.14404296875
-82.3974609375
-86.0595703125
-86.97509765625
-88.80615234375
-91.552734375
-84.228515625
-89.7216796875
-95.21484375
-97.96142578125
-94.29931640625
-89.7216796875
-98.876953125
-97.96142578125
-84.228515625
-63.17138671875
-40.283203125
-48.52294921875
-55.84716796875
-53.1005859375
-50.35400390625
-47.607421875
-54.01611328125
-62.255859375
-45.7763671875
-54.931640625
-68.66455078125
-73.2421875
-72.32666015625
-77.81982421875
-78.7353515625
-84.228515625
-84.228515625
-77.81982421875
-80.56640625
-75.98876953125
-75.98876953125
-77.81982421875
-77.81982421875
-70.49560546875
-72.32666015625
-84.228515625
-110.77880859375
-97.0458984375
-87.890625
-88.80615234375
-89.7216796875
-96.13037109375
-102.5390625
-101.62353515625
-103.45458984375
-108.94775390625
-107.11669921875
-93.3837890625
-94.29931640625
-102.5390625
-105.28564453125
-106.201171875
-103.45458984375
-104.3701171875
-104.3701171875
-103.45458984375
-102.5390625
-96.13037109375
-95.21484375
-97.96142578125
-109.86328125
-108.94775390625
-125.42724609375
-147.39990234375
-160.21728515625
-184.02099609375
-197.75390625
-185.85205078125
-147.39990234375
-111.6943359375
-69.580078125
-0.91552734375
100.7080078125
211.48681640625
332.33642578125
467.83447265625
632.62939453125
829.4677734375
1010.7421875
1105.95703125
1153.564453125
1174.62158203125
1123.35205078125
997.9248046875
798.33984375
511.77978515625
245.361328125
-29.296875
-362.548828125
-525.5126953125
-536.4990234375
-504.45556640625
-462.34130859375
-441.2841796875
-394.59228515625
-342.4072265625
-286.56005859375
-237.12158203125
-211.48681640625
-171.20361328125
-138.24462890625
-107.11669921875
-88.80615234375
-84.228515625
-73.2421875
-64.0869140625
-59.50927734375
-63.17138671875
-65.00244140625
-66.83349609375
-54.931640625
-54.01611328125
-53.1005859375
-47.607421875
-43.02978515625
-43.02978515625
-45.7763671875
-41.19873046875
-41.19873046875
-40.283203125
-30.21240234375
-37.53662109375
-39.36767578125
-29.296875
-26.55029296875
-25.634765625
-13.73291015625
-10.07080078125
-10.986328125
-10.986328125
-3.662109375
-4.57763671875
-14.6484375
-8.23974609375
-1.8310546875
-4.57763671875
0
2.74658203125
8.23974609375
18.310546875
18.310546875
9.1552734375
16.4794921875
28.38134765625
32.958984375
32.958984375
33.87451171875
35.70556640625
32.958984375
35.70556640625
39.36767578125
45.7763671875
44.86083984375
41.19873046875
42.1142578125
47.607421875
51.26953125
59.50927734375
74.15771484375
69.580078125
67.7490234375
71.4111328125
73.2421875
81.48193359375
89.7216796875
95.21484375
101.62353515625
103.45458984375
109.86328125
108.94775390625
117.1875
124.51171875
127.25830078125
136.41357421875
135.498046875
145.56884765625
157.470703125
166.6259765625
171.20361328125
184.02099609375
185.85205078125
190.4296875
199.5849609375
206.9091796875
216.97998046875
224.30419921875
232.5439453125
240.78369140625
250.8544921875
260.009765625
271.91162109375
270.08056640625
281.982421875
290.22216796875
298.4619140625
308.53271484375
321.35009765625
324.0966796875
326.84326171875
331.4208984375
325.927734375
325.927734375
337.82958984375
347.900390625
334.16748046875
329.58984375
336.9140625
328.67431640625
330.50537109375
336.9140625
340.576171875
337.82958984375
334.16748046875
327.7587890625
325.927734375
317.68798828125
315.85693359375
303.955078125
297.54638671875
289.306640625
275.57373046875
254.5166015625
243.5302734375
229.79736328125
217.8955078125
198.66943359375
190.4296875
176.69677734375
158.38623046875
158.38623046875
145.56884765625
122.6806640625
107.11669921875
94.29931640625
80.56640625
67.7490234375
63.17138671875
61.34033203125
47.607421875
30.21240234375
27.4658203125
21.05712890625
6.40869140625
13.73291015625
9.1552734375
-7.32421875
-24.71923828125
-27.4658203125
-26.55029296875
-28.38134765625
-24.71923828125
-28.38134765625
-43.9453125
-40.283203125
-38.4521484375
-43.02978515625
-40.283203125
-41.19873046875
-50.35400390625
-46.69189453125
-52.18505859375
-56.7626953125
-61.34033203125
-60.4248046875
-54.01611328125
-48.52294921875
-63.17138671875
-72.32666015625
-67.7490234375
-52.18505859375
-49.4384765625
-58.59375
-62.255859375
-58.59375
-46.69189453125
-54.01611328125
-58.59375
-51.26953125
-48.52294921875
-52.18505859375
-55.84716796875
-55.84716796875
-51.26953125
-52.18505859375
-47.607421875
-45.7763671875
-48.52294921875
-49.4384765625
-44.86083984375
-48.52294921875
-43.9453125
-43.9453125
-41.19873046875
-34.7900390625
-25.634765625
-28.38134765625
-30.21240234375
-32.04345703125
-39.36767578125
-33.87451171875
-35.70556640625
-35.70556640625
-41.19873046875
-37.53662109375
-29.296875
-31.1279296875
-27.4658203125
-24.71923828125
-21.97265625
-17.39501953125
-19.22607421875
-29.296875
-31.1279296875
-28.38134765625
-33.87451171875
-32.958984375
-30.21240234375
-29.296875
-33.87451171875
-35.70556640625
-32.04345703125
-29.296875
-32.958984375
-34.7900390625
-34.7900390625
-24.71923828125
-19.22607421875
-32.958984375
-44.86083984375
-43.9453125
-43.9453125
-50.35400390625
-46.69189453125
-40.283203125
-54.931640625
-56.7626953125
-49.4384765625
-46.69189453125
-49.4384765625
-48.52294921875
-60.4248046875
-59.50927734375
-57.67822265625
-56.7626953125
-55.84716796875
-54.931640625
-56.7626953125
-58.59375
-62.255859375
-61.34033203125
-60.4248046875
-61.34033203125
-61.34033203125
-63.17138671875
-71.4111328125
-77.81982421875
-69.580078125
-56.7626953125
-61.34033203125
-68.66455078125
-64.0869140625
-55.84716796875
-60.4248046875
-63.17138671875
-65.00244140625
-61.34033203125
-61.34033203125
-63.17138671875
-69.580078125
-69.580078125
-72.32666015625
-75.0732421875
-74.15771484375
-73.2421875
-74.15771484375
-80.56640625
-72.32666015625
-67.7490234375
-75.0732421875
-77.81982421875
-72.32666015625
-72.32666015625
-75.98876953125
-73.2421875
-75.98876953125
-73.2421875
-74.15771484375
-77.81982421875
-76.904296875
-75.0732421875
-79.65087890625
-72.32666015625
-73.2421875
-86.0595703125
-86.0595703125
-80.56640625
-76.904296875
-78.7353515625
-78.7353515625
-80.56640625
-79.65087890625
-85.14404296875
-75.0732421875
-57.67822265625
-68.66455078125
-66.83349609375
-85.14404296875
-81.48193359375
-81.48193359375
-84.228515625
-86.0595703125
-81.48193359375
-71.4111328125
-83.31298828125
-81.48193359375
-73.2421875
-67.7490234375
-74.15771484375
-79.65087890625
-77.81982421875
-76.904296875
-75.0732421875
-75.98876953125
-82.3974609375
-76.904296875
-72.32666015625
-85.14404296875
-86.0595703125
-83.31298828125
-80.56640625
-80.56640625
-80.56640625
-80.56640625
-84.228515625
-83.31298828125
-81.48193359375
-76.904296875
-77.81982421875
-83.31298828125
-92.46826171875
-92.46826171875
-80.56640625
-65.00244140625
-72.32666015625
-82.3974609375
-85.14404296875
-85.14404296875
-88.80615234375
-90.63720703125
-82.3974609375
-85.14404296875
-85.14404296875
-75.0732421875
-71.4111328125
-78.7353515625
-80.56640625
-82.3974609375
-83.31298828125
-86.0595703125
-81.48193359375
-78.7353515625
-71.4111328125
-80.56640625
-78.7353515625
-75.98876953125
-75.0732421875
-87.890625
-85.14404296875
-81.48193359375
-85.14404296875
-83.31298828125
-82.3974609375
-78.7353515625
-74.15771484375
-89.7216796875
-88.80615234375
-86.97509765625
-87.890625
-86.97509765625
-92.46826171875
-86.97509765625
-75.98876953125
-87.890625
-96.13037109375
-98.876953125
-99.79248046875
-89.7216796875
-80.56640625
-86.0595703125
-89.7216796875
-80.56640625
-72.32666015625
-83.31298828125
-77.81982421875
-73.2421875
-72.32666015625
-72.32666015625
-76.904296875
-73.2421875
-79.65087890625
-86.97509765625
-84.228515625
-86.0595703125
-79.65087890625
-75.98876953125
-82.3974609375
-85.14404296875
-81.48193359375
-84.228515625
-87.890625
-83.31298828125
-72.32666015625
-75.0732421875
-83.31298828125
-80.56640625
-82.3974609375
-82.3974609375
-74.15771484375
-80.56640625
-89.7216796875
-87.890625
-84.228515625
-84.228515625
-81.48193359375
-84.228515625
-76.904296875
-75.0732421875
-76.904296875
-77.81982421875
-78.7353515625
-85.14404296875
-84.228515625
-64.0869140625
-62.255859375
-91.552734375
-87.890625
-77.81982421875
-74.15771484375
-79.65087890625
-83.31298828125
-86.97509765625
-85.14404296875
-78.7353515625
-75.98876953125
-74.15771484375
-75.0732421875
-65.91796875
-51.26953125
-64.0869140625
-84.228515625
-83.31298828125
-79.65087890625
-79.65087890625
-80.56640625
-79.65087890625
-81.48193359375
-88.80615234375
-82.3974609375
-75.98876953125
-82.3974609375
-86.97509765625
-84.228515625
-74.15771484375
-65.91796875
-63.17138671875
-62.255859375
-71.4111328125
-83.31298828125
-84.228515625
-83.31298828125
-83.31298828125
-84.228515625
-83.31298828125
-81.48193359375
-74.15771484375
-83.31298828125
-86.97509765625
-75.0732421875
-65.91796875
-49.4384765625
-33.87451171875
-35.70556640625
-41.19873046875
-36.62109375
-46.69189453125
-45.7763671875
-38.4521484375
-42.1142578125
-52.18505859375
-49.4384765625
-52.18505859375
-53.1005859375
-57.67822265625
-60.4248046875
-63.17138671875
-62.255859375
-62.255859375
-60.4248046875
-70.49560546875
-75.0732421875
-75.98876953125
-75.98876953125
-72.32666015625
-73.2421875
-83.31298828125
-88.80615234375
-80.56640625
-83.31298828125
-84.228515625
-88.80615234375
-86.97509765625
-95.21484375
-99.79248046875
-90.63720703125
-81.48193359375
-85.14404296875
-87.890625
-92.46826171875
-91.552734375
-98.876953125
-95.21484375
-90.63720703125
-96.13037109375
-88.80615234375
-85.14404296875
-81.48193359375
-85.14404296875
-87.890625
-92.46826171875
-90.63720703125
-90.63720703125
-98.876953125
-124.51171875
-154.72412109375
-157.470703125
-167.54150390625
-183.10546875
-168.45703125
-127.25830078125
-85.14404296875
-39.36767578125
45.7763671875
159.3017578125
273.74267578125
410.15625
544.73876953125
733.33740234375
933.837890625
1058.349609375
1132.50732421875
1174.62158203125
1156.31103515625
1070.25146484375
910.0341796875
664.6728515625
362.548828125
103.45458984375
-192.2607421875
-444.03076171875
-503.5400390625
-498.046875
-456.84814453125
-427.55126953125
-409.24072265625
-381.77490234375
-322.265625
-273.74267578125
-231.62841796875
-185.85205078125
-146.484375
-121.76513671875
-95.21484375
-81.48193359375
-65.00244140625
-58.59375
-58.59375
-51.26953125
-50.35400390625
-49.4384765625
-50.35400390625
-44.86083984375
-43.02978515625
-47.607421875
-44.86083984375
-42.1142578125
-32.04345703125
-34.7900390625
-25.634765625
-19.22607421875
-13.73291015625
-27.4658203125
-31.1279296875
-19.22607421875
-14.6484375
-15.56396484375
-11.90185546875
-5.4931640625
-8.23974609375
-10.986328125
-9.1552734375
-6.40869140625
0.91552734375
0
2.74658203125
6.40869140625
9.1552734375
15.56396484375
32.04345703125
18.310546875
12.8173828125
21.05712890625
21.05712890625
25.634765625
31.1279296875
27.4658203125
25.634765625
29.296875
33.87451171875
41.19873046875
42.1142578125
41.19873046875
50.35400390625
49.4384765625
51.26953125
58.59375
60.4248046875
63.17138671875
81.48193359375
82.3974609375
86.97509765625
95.21484375
97.0458984375
107.11669921875
107.11669921875
108.94775390625
122.6806640625
129.08935546875
141.90673828125
144.6533203125
141.90673828125
149.23095703125
153.80859375
159.3017578125
166.6259765625
170.2880859375
177.6123046875
179.443359375
182.18994140625
191.34521484375
196.83837890625
199.5849609375
209.65576171875
217.8955078125
223.388671875
239.8681640625
264.58740234375
259.09423828125
251.77001953125
269.1650390625
279.23583984375
287.4755859375
288.39111328125
300.29296875
303.03955078125
311.279296875
317.68798828125
325.01220703125
327.7587890625
333.251953125
341.49169921875
346.98486328125
347.900390625
351.5625
350.64697265625
350.64697265625
355.224609375
357.97119140625
363.46435546875
358.88671875
356.14013671875
357.97119140625
353.3935546875
354.30908203125
351.5625
349.7314453125
348.81591796875
345.15380859375
335.99853515625
323.18115234375
312.19482421875
297.54638671875
288.39111328125
280.1513671875
263.671875
245.361328125
236.2060546875
222.47314453125
206.9091796875
191.34521484375
178.52783203125
169.37255859375
156.55517578125
138.24462890625
121.76513671875
112.60986328125
111.6943359375
97.96142578125
77.81982421875
62.255859375
60.4248046875
50.35400390625
32.04345703125
24.71923828125
19.22607421875
19.22607421875
8.23974609375
0.91552734375
-5.4931640625
-6.40869140625
-7.32421875
-8.23974609375
-18.310546875
-14.6484375
-15.56396484375
-24.71923828125
-27.4658203125
-21.05712890625
-21.97265625
-38.4521484375
-36.62109375
-33.87451171875
-33.87451171875
-39.36767578125
-44.86083984375
-36.62109375
-37.53662109375
-43.02978515625
-38.4521484375
-42.1142578125
-38.4521484375
-39.36767578125
-34.7900390625
-32.958984375
-36.62109375
-44.86083984375
-41.19873046875
-35.70556640625
-34.7900390625
-31.1279296875
-30.21240234375
-30.21240234375
-32.04345703125
-27.4658203125
-28.38134765625
-30.21240234375
-28.38134765625
-25.634765625
-32.04345703125
-29.296875
-25.634765625
-26.55029296875
-31.1279296875
-28.38134765625
-30.21240234375
-32.04345703125
-22.88818359375
-25.634765625
-19.22607421875
-20.1416015625
-21.05712890625
-19.22607421875
-23.8037109375
-20.1416015625
-16.4794921875
-18.310546875
-4.57763671875
-5.4931640625
-21.05712890625
-22.88818359375
-28.38134765625
-32.958984375
-32.04345703125
-31.1279296875
-32.04345703125
-24.71923828125
-23.8037109375
-22.88818359375
-21.05712890625
-24.71923828125
-26.55029296875
-19.22607421875
-14.6484375
-24.71923828125
-39.36767578125
-35.70556640625
-27.4658203125
-32.958984375
-32.04345703125
-39.36767578125
-37.53662109375
-32.04345703125
-36.62109375
-37.53662109375
-34.7900390625
-32.958984375
-36.62109375
-32.958984375
-43.02978515625
-43.9453125
-46.69189453125
-45.7763671875
-47.607421875
-52.18505859375
-47.607421875
-45.7763671875
-51.26953125
-50.35400390625
-45.7763671875
-55.84716796875
-56.7626953125
-50.35400390625
-58.59375
-63.17138671875
-64.0869140625
-67.7490234375
-70.49560546875
-73.2421875
-65.00244140625
-72.32666015625
-74.15771484375
-73.2421875
-66.83349609375
-70.49560546875
-74.15771484375
-79.65087890625
-69.580078125
-73.2421875
-77.81982421875
-72.32666015625
-79.65087890625
-78.7353515625
-79.65087890625
-75.98876953125
-75.98876953125
-76.904296875
-75.0732421875
-75.0732421875
-85.14404296875
-81.48193359375
-77.81982421875
-75.0732421875
-65.91796875
-75.98876953125
-82.3974609375
-87.890625
-86.0595703125
-86.97509765625
-81.48193359375
-84.228515625
-80.56640625
-84.228515625
-75.98876953125
-69.580078125
-80.56640625
-86.0595703125
-85.14404296875
-80.56640625
-75.98876953125
-84.228515625
-82.3974609375
-71.4111328125
-73.2421875
-81.48193359375
-90.63720703125
-83.31298828125
-72.32666015625
-71.4111328125
-81.48193359375
-83.31298828125
-78.7353515625
-77.81982421875
-83.31298828125
-82.3974609375
-81.48193359375
-83.31298828125
-78.7353515625
-78.7353515625
-67.7490234375
-67.7490234375
-90.63720703125
-86.97509765625
-80.56640625
-97.0458984375
-102.5390625
-93.3837890625
-83.31298828125
-80.56640625
-84.228515625
-82.3974609375
-86.0595703125
-86.97509765625
-86.97509765625
-89.7216796875
-86.0595703125
-75.98876953125
-74.15771484375
-79.65087890625
-78.7353515625
-82.3974609375
-88.80615234375
-87.890625
-78.7353515625
-78.7353515625
-86.97509765625
-86.97509765625
-84.228515625
-86.0595703125
-83.31298828125
-80.56640625
-85.14404296875
-87.890625
-79.65087890625
-78.7353515625
-74.15771484375
-77.81982421875
-88.80615234375
-90.63720703125
-87.890625
-86.97509765625
-86.0595703125
-83.31298828125
-79.65087890625
-77.81982421875
-83.31298828125
-87.890625
-84.228515625
-86.0595703125
-78.7353515625
-78.7353515625
-77.81982421875
-61.34033203125
-71.4111328125
-78.7353515625
-80.56640625
-86.97509765625
-84.228515625
-85.14404296875
-86.0595703125
-89.7216796875
-88.80615234375
-79.65087890625
-85.14404296875
-92.46826171875
-89.7216796875
-86.0595703125
-79.65087890625
-79.65087890625
-77.81982421875
-85.14404296875
-95.21484375
-91.552734375
-86.97509765625
-87.890625
-86.0595703125
-84.228515625
-79.65087890625
-82.3974609375
-89.7216796875
-85.14404296875
-84.228515625
-86.97509765625
-85.14404296875
-75.98876953125
-81.48193359375
-87.890625
-92.46826171875
-99.79248046875
-97.0458984375
-92.46826171875
-86.97509765625
-77.81982421875
-79.65087890625
-82.3974609375
-80.56640625
-80.56640625
-85.14404296875
-77.81982421875
-75.98876953125
-94.29931640625
-87.890625
-84.228515625
-82.3974609375
-86.97509765625
-86.97509765625
-77.81982421875
-75.0732421875
-76.904296875
-76.904296875
-83.31298828125
-80.56640625
-80.56640625
-82.3974609375
-88.80615234375
-88.80615234375
-86.0595703125
-87.890625
-85.14404296875
-82.3974609375
-80.56640625
-79.65087890625
-88.80615234375
-78.7353515625
-81.48193359375
-87.890625
-90.63720703125
-86.0595703125
-86.97509765625
-84.228515625
-81.48193359375
-85.14404296875
-80.56640625
-78.7353515625
-79.65087890625
-78.7353515625
-84.228515625
-84.228515625
-86.0595703125
-86.0595703125
-81.48193359375
-75.0732421875
-85.14404296875
-85.14404296875
-73.2421875
-87.890625
-86.97509765625
-86.97509765625
-83.31298828125
-78.7353515625
-71.4111328125
-64.0869140625
-65.00244140625
-78.7353515625
-74.15771484375
-80.56640625
-82.3974609375
-86.97509765625
-89.7216796875
-87.890625
-82.3974609375
-78.7353515625
-78.7353515625
-69.580078125
-66.83349609375
-51.26953125
-43.02978515625
-45.7763671875
-45.7763671875
-48.52294921875
-44.86083984375
-38.4521484375
-39.36767578125
-42.1142578125
-51.26953125
-51.26953125
-44.86083984375
-50.35400390625
-45.7763671875
-50.35400390625
-56.7626953125
-74.15771484375
-70.49560546875
-70.49560546875
-75.0732421875
-78.7353515625
-77.81982421875
-69.580078125
-71.4111328125
-75.0732421875
-69.580078125
-75.0732421875
-77.81982421875
-73.2421875
-75.98876953125
-83.31298828125
-85.14404296875
-84.228515625
-94.29931640625
-93.3837890625
-94.29931640625
-92.46826171875
-94.29931640625
-90.63720703125
-92.46826171875
-102.5390625
-96.13037109375
-91.552734375
-92.46826171875
-76.904296875
-66.83349609375
-81.48193359375
-93.3837890625
-97.0458984375
-94.29931640625
-86.0595703125
-87.890625
-91.552734375
-106.201171875
-129.08935546875
-148.3154296875
-172.119140625
-186.767578125
-170.2880859375
-132.75146484375
-89.7216796875
-47.607421875
31.1279296875
139.16015625
261.8408203125
379.94384765625
514.5263671875
691.22314453125
894.47021484375
1050.10986328125
1136.16943359375
1187.43896484375
1175.537109375
1093.1396484375
955.810546875
726.9287109375
423.88916015625
167.54150390625
-108.0322265625
-403.74755859375
-504.45556640625
-501.708984375
-460.51025390625
-434.87548828125
-426.6357421875
-372.61962890625
-319.51904296875
-278.3203125
-233.45947265625
-175.78125
-140.07568359375
-121.76513671875
-98.876953125
-74.15771484375
-63.17138671875
-54.01611328125
-46.69189453125
-45.7763671875
-51.26953125
-51.26953125
-43.02978515625
-40.283203125
-35.70556640625
-33.87451171875
-26.55029296875
-30.21240234375
-21.97265625
-18.310546875
-15.56396484375
-9.1552734375
0.91552734375
-4.57763671875
-12.8173828125
-16.4794921875
-6.40869140625
0.91552734375
-3.662109375
-0.91552734375
0.91552734375
8.23974609375
10.07080078125
11.90185546875
13.73291015625
23.8037109375
20.1416015625
14.6484375
20.1416015625
28.38134765625
30.21240234375
27.4658203125
29.296875
33.87451171875
31.1279296875
38.4521484375
42.1142578125
42.1142578125
38.4521484375
41.19873046875
43.9453125
54.01611328125
51.26953125
53.1005859375
58.59375
54.931640625
59.50927734375
70.49560546875
72.32666015625
74.15771484375
84.228515625
97.96142578125
97.96142578125
89.7216796875
93.3837890625
96.13037109375
96.13037109375
105.28564453125
109.86328125
114.44091796875
122.6806640625
119.93408203125
130.0048828125
134.58251953125
143.73779296875
151.9775390625
161.1328125
172.119140625
167.54150390625
168.45703125
180.35888671875
188.5986328125
192.2607421875
200.50048828125
212.40234375
215.14892578125
219.7265625
231.62841796875
237.12158203125
244.44580078125
260.009765625
272.8271484375
270.99609375
276.4892578125
284.72900390625
297.54638671875
303.955078125
299.37744140625
313.1103515625
319.51904296875
325.01220703125
329.58984375
334.16748046875
341.49169921875
346.0693359375
346.98486328125
354.30908203125
356.14013671875
362.548828125
369.873046875
365.29541015625
362.548828125
358.88671875
372.61962890625
378.11279296875
357.97119140625
344.23828125
346.98486328125
340.576171875
335.99853515625
334.16748046875
327.7587890625
327.7587890625
312.19482421875
292.96875
279.23583984375
274.658203125
261.8408203125
240.78369140625
226.13525390625
205.078125
182.18994140625
169.37255859375
153.80859375
142.822265625
130.92041015625
118.10302734375
109.86328125
97.0458984375
88.80615234375
74.15771484375
66.83349609375
54.01611328125
35.70556640625
32.958984375
28.38134765625
21.05712890625
4.57763671875
7.32421875
1.8310546875
-0.91552734375
-0.91552734375
-3.662109375
-13.73291015625
-26.55029296875
-29.296875
-30.21240234375
-32.04345703125
-33.87451171875
-30.21240234375
-40.283203125
-43.02978515625
-33.87451171875
-31.1279296875
-34.7900390625
-31.1279296875
-40.283203125
-43.02978515625
-40.283203125
-49.4384765625
-40.283203125
-38.4521484375
-40.283203125
-45.7763671875
-49.4384765625
-44.86083984375
-36.62109375
-31.1279296875
-38.4521484375
-42.1142578125
-41.19873046875
-35.70556640625
-38.4521484375
-40.283203125
-44.86083984375
-44.86083984375
-43.02978515625
-37.53662109375
-41.19873046875
-43.02978515625
-37.53662109375
-27.4658203125
-26.55029296875
-32.04345703125
-33.87451171875
-36.62109375
-39.36767578125
-32.958984375
-31.1279296875
-23.8037109375
-27.4658203125
-24.71923828125
-25.634765625
-28.38134765625
-22.88818359375
-16.4794921875
-21.05712890625
-18.310546875
-20.1416015625
-23.8037109375
-24.71923828125
-23.8037109375
-18.310546875
-7.32421875
-1.8310546875
-19.22607421875
-17.39501953125
-23.8037109375
-26.55029296875
-31.1279296875
-22.88818359375
-16.4794921875
-21.97265625
-27.4658203125
-22.88818359375
-17.39501953125
-26.55029296875
-35.70556640625
-40.283203125
-35.70556640625
-29.296875
-25.634765625
-30.21240234375
-39.36767578125
-38.4521484375
-38.4521484375
-38.4521484375
-42.1142578125
-40.283203125
-42.1142578125
-43.9453125
-44.86083984375
-47.607421875
-41.19873046875
-44.86083984375
-48.52294921875
-50.35400390625
-50.35400390625
-47.607421875
-47.607421875
-52.18505859375
-52.18505859375
-46.69189453125
-51.26953125
-48.52294921875
-42.1142578125
-43.9453125
-45.7763671875
-52.18505859375
-65.00244140625
-66.83349609375
-57.67822265625
-56.7626953125
-50.35400390625
-54.931640625
-62.255859375
-56.7626953125
-58.59375
-61.34033203125
-61.34033203125
-63.17138671875
-65.91796875
-54.01611328125
-60.4248046875
-59.50927734375
-56.7626953125
-71.4111328125
-66.83349609375
-55.84716796875
-50.35400390625
-65.91796875
-61.34033203125
-56.7626953125
-57.67822265625
-64.0869140625
-65.00244140625
-65.00244140625
-63.17138671875
-61.34033203125
-63.17138671875
-65.00244140625
-61.34033203125
-62.255859375
-64.0869140625
-57.67822265625
-60.4248046875
-65.91796875
-68.66455078125
-78.7353515625
-75.98876953125
-65.00244140625
-62.255859375
-56.7626953125
-62.255859375
-67.7490234375
-65.00244140625
-63.17138671875
-56.7626953125
-67.7490234375
-74.15771484375
-73.2421875
-72.32666015625
-61.34033203125
-60.4248046875
-68.66455078125
-71.4111328125
-73.2421875
-66.83349609375
-55.84716796875
-72.32666015625
-83.31298828125
-74.15771484375
-65.00244140625
-56.7626953125
-71.4111328125
-75.98876953125
-75.0732421875
-75.0732421875
-75.0732421875
-76.904296875
-74.15771484375
-65.00244140625
-62.255859375
-70.49560546875
-83.31298828125
-73.2421875
-67.7490234375
-77.81982421875
-75.98876953125
-73.2421875
-70.49560546875
-71.4111328125
-68.66455078125
-67.7490234375
-62.255859375
-69.580078125
-72.32666015625
-75.98876953125
-70.49560546875
-64.0869140625
-80.56640625
-80.56640625
-78.7353515625
-74.15771484375
-75.0732421875
-71.4111328125
-70.49560546875
-74.15771484375
-71.4111328125
-69.580078125
-60.4248046875
-69.580078125
-75.0732421875
-71.4111328125
-70.49560546875
-65.91796875
-69.580078125
-80.56640625
-75.98876953125
-70.49560546875
-69.580078125
-69.580078125
-65.91796875
-70.49560546875
-70.49560546875
-81.48193359375
-77.81982421875
-71.4111328125
-73.2421875
-65.00244140625
-71.4111328125
-73.2421875
-63.17138671875
-62.255859375
-72.32666015625
-67.7490234375
-61.34033203125
-57.67822265625
-68.66455078125
-75.0732421875
-71.4111328125
-67.7490234375
-64.0869140625
-71.4111328125
-62.255859375
-65.00244140625
-66.83349609375
-60.4248046875
-61.34033203125
-66.83349609375
-67.7490234375
-75.0732421875
-77.81982421875
-76.904296875
-65.91796875
-66.83349609375
-71.4111328125
-67.7490234375
-63.17138671875
-70.49560546875
-70.49560546875
-69.580078125
-75.0732421875
-74.15771484375
-74.15771484375
-69.580078125
-67.7490234375
-69.580078125
-67.7490234375
-72.32666015625
-74.15771484375
-69.580078125
-69.580078125
-70.49560546875
-73.2421875
-65.91796875
-57.67822265625
-65.00244140625
-80.56640625
-72.32666015625
-65.91796875
-70.49560546875
-60.4248046875
-58.59375
-65.00244140625
-65.00244140625
-66.83349609375
-65.91796875
-61.34033203125
-63.17138671875
-68.66455078125
-65.91796875
-58.59375
-54.931640625
-68.66455078125
-69.580078125
-70.49560546875
-71.4111328125
-67.7490234375
-63.17138671875
-67.7490234375
-65.91796875
-66.83349609375
-66.83349609375
-62.255859375
-58.59375
-61.34033203125
-59.50927734375
-65.91796875
-70.49560546875
-65.00244140625
-69.580078125
-72.32666015625
-70.49560546875
-79.65087890625
-86.97509765625
-71.4111328125
-65.91796875
-65.91796875
-61.34033203125
-49.4384765625
-43.9453125
-59.50927734375
-69.580078125
-74.15771484375
-81.48193359375
-74.15771484375
-76.904296875
-68.66455078125
-66.83349609375
-68.66455078125
-62.255859375
-54.01611328125
-49.4384765625
-36.62109375
-31.1279296875
-22.88818359375
-21.05712890625
-30.21240234375
-35.70556640625
-34.7900390625
-25.634765625
-27.4658203125
-33.87451171875
-38.4521484375
-41.19873046875
-43.9453125
-36.62109375
-53.1005859375
-54.931640625
-57.67822265625
-62.255859375
-61.34033203125
-61.34033203125
-59.50927734375
-66.83349609375
-57.67822265625
-62.255859375
-65.91796875
-72.32666015625
-76.904296875
-69.580078125
-65.00244140625
-75.0732421875
-76.904296875
-81.48193359375
-80.56640625
-88.80615234375
-86.0595703125
-74.15771484375
-64.0869140625
-62.255859375
-66.83349609375
-78.7353515625
-76.904296875
-75.98876953125
-80.56640625
-87.890625
-87.890625
-80.56640625
-80.56640625
-86.97509765625
-85.14404296875
-75.0732421875
-65.00244140625
-79.65087890625
-104.3701171875
-128.173828125
-155.6396484375
-181.2744140625
-175.78125
-158.38623046875
-111.6943359375
-81.48193359375
-54.01611328125
21.05712890625
125.42724609375
242.61474609375
365.29541015625
495.30029296875
654.60205078125
859.68017578125
1032.71484375
1129.7607421875
1179.19921875
1181.0302734375
1113.28125
986.9384765625
786.43798828125
476.98974609375
204.16259765625
-58.59375
-350.64697265625
-480.65185546875
-499.8779296875
-472.412109375
-426.6357421875
-411.9873046875
-375.3662109375
-318.603515625
-274.658203125
-232.5439453125
-183.10546875
-145.56884765625
-110.77880859375
-76.904296875
-60.4248046875
-49.4384765625
-39.36767578125
-32.04345703125
-33.87451171875
-35.70556640625
-39.36767578125
-38.4521484375
-29.296875
-32.04345703125
-35.70556640625
-32.04345703125
-22.88818359375
-20.1416015625
-17.39501953125
-9.1552734375
-16.4794921875
-17.39501953125
-7.32421875
-6.40869140625
1.8310546875
9.1552734375
0
0
6.40869140625
9.1552734375
4.57763671875
10.07080078125
21.05712890625
26.55029296875
21.05712890625
26.55029296875
31.1279296875
29.296875
30.21240234375
31.1279296875
34.7900390625
45.7763671875
43.9453125
49.4384765625
62.255859375
43.9453125
34.7900390625
51.26953125
59.50927734375
53.1005859375
62.255859375
64.0869140625
64.0869140625
73.2421875
74.15771484375
84.228515625
87.890625
86.97509765625
87.890625
91.552734375
88.80615234375
98.876953125
112.60986328125
114.44091796875
100.7080078125
104.3701171875
118.10302734375
122.6806640625
132.75146484375
134.58251953125
130.92041015625
144.6533203125
149.23095703125
150.146484375
166.6259765625
170.2880859375
174.86572265625
183.10546875
183.10546875
180.35888671875
189.51416015625
205.078125
214.2333984375
223.388671875
234.375
233.45947265625
237.12158203125
243.5302734375
255.43212890625
269.1650390625
281.982421875
287.4755859375
303.03955078125
303.03955078125
314.94140625
317.68798828125
319.51904296875
330.50537109375
337.82958984375
342.4072265625
350.64697265625
353.3935546875
356.14013671875
361.63330078125
364.3798828125
368.95751953125
370.78857421875
375.3662109375
373.53515625
367.12646484375
372.61962890625
379.94384765625
373.53515625
367.12646484375
368.95751953125
368.95751953125
362.548828125
357.0556640625
351.5625
346.0693359375
343.32275390625
330.50537109375
322.265625
313.1103515625
298.4619140625
282.89794921875
271.91162109375
266.41845703125
249.0234375
225.2197265625
208.740234375
197.75390625
196.83837890625
183.10546875
156.55517578125
142.822265625
131.8359375
119.93408203125
112.60986328125
106.201171875
94.29931640625
81.48193359375
72.32666015625
67.7490234375
64.0869140625
50.35400390625
34.7900390625
29.296875
23.8037109375
18.310546875
11.90185546875
-0.91552734375
0.91552734375
-4.57763671875
-10.07080078125
-5.4931640625
-8.23974609375
-11.90185546875
-12.8173828125
-15.56396484375
-21.97265625
-21.05712890625
-21.05712890625
-27.4658203125
-31.1279296875
-28.38134765625
-22.88818359375
-25.634765625
-32.958984375
-37.53662109375
-32.958984375
-28.38134765625
-22.88818359375
-18.310546875
-19.22607421875
-35.70556640625
-30.21240234375
-20.1416015625
-24.71923828125
-15.56396484375
-17.39501953125
-23.8037109375
-21.97265625
-18.310546875
-15.56396484375
-16.4794921875
-16.4794921875
-11.90185546875
-12.8173828125
-12.8173828125
1.8310546875
1.8310546875
-18.310546875
-25.634765625
-16.4794921875
-8.23974609375
-10.07080078125
-8.23974609375
-12.8173828125
-11.90185546875
-9.1552734375
-4.57763671875
-5.4931640625
0.91552734375
-3.662109375
1.8310546875
4.57763671875
-0.91552734375
-9.1552734375
-7.32421875
0
2.74658203125
-7.32421875
-10.07080078125
-5.4931640625
-10.07080078125
-9.1552734375
0
-2.74658203125
-6.40869140625
-5.4931640625
-9.1552734375
-10.986328125
-13.73291015625
-2.74658203125
0.91552734375
-3.662109375
-9.1552734375
-21.97265625
-19.22607421875
-21.97265625
-15.56396484375
-14.6484375
-21.97265625
-13.73291015625
-10.986328125
-17.39501953125
-14.6484375
-10.986328125
-15.56396484375
-8.23974609375
-18.310546875
-24.71923828125
-17.39501953125
-20.1416015625
-32.04345703125
-31.1279296875
-23.8037109375
-18.310546875
-7.32421875
-21.97265625
-21.97265625
-19.22607421875
-20.1416015625
-25.634765625
-29.296875
-32.04345703125
-26.55029296875
-21.97265625
-16.4794921875
-22.88818359375
-22.88818359375
-20.1416015625
-29.296875
-28.38134765625
-27.4658203125
-34.7900390625
-32.04345703125
-32.04345703125
-29.296875
-40.283203125
-42.1142578125
-41.19873046875
-38.4521484375
-42.1142578125
-47.607421875
-47.607421875
-33.87451171875
-25.634765625
-38.4521484375
-44.86083984375
-42.1142578125
-29.296875
-27.4658203125
-44.86083984375
-46.69189453125
-44.86083984375
-39.36767578125
-42.1142578125
-39.36767578125
-42.1142578125
-49.4384765625
-47.607421875
-40.283203125
-43.9453125
-45.7763671875
-34.7900390625
-38.4521484375
-36.62109375
-43.02978515625
-39.36767578125
-48.52294921875
-48.52294921875
-43.02978515625
-37.53662109375
-36.62109375
-40.283203125
-40.283203125
-30.21240234375
-40.283203125
-45.7763671875
-45.7763671875
-46.69189453125
-48.52294921875
-43.9453125
-45.7763671875
-43.02978515625
-45.7763671875
-41.19873046875
-32.958984375
-42.1142578125
-44.86083984375
-47.607421875
-47.607421875
-50.35400390625
-46.69189453125
-41.19873046875
-46.69189453125
-43.9453125
-49.4384765625
-51.26953125
-47.607421875
-58.59375
-56.7626953125
-56.7626953125
-55.84716796875
-54.01611328125
-52.18505859375
-49.4384765625
-41.19873046875
-38.4521484375
-47.607421875
-60.4248046875
-51.26953125
-48.52294921875
-54.01611328125
-65.91796875
-54.931640625
-52.18505859375
-56.7626953125
-54.931640625
-51.26953125
-53.1005859375
-45.7763671875
-42.1142578125
-23.8037109375
-44.86083984375
-66.83349609375
-54.931640625
-50.35400390625
-51.26953125
-52.18505859375
-47.607421875
-36.62109375
-40.283203125
-43.9453125
-54.01611328125
-56.7626953125
-39.36767578125
-43.02978515625
-48.52294921875
-49.4384765625
-43.9453125
-48.52294921875
-49.4384765625
-45.7763671875
-42.1142578125
-43.9453125
-39.36767578125
-46.69189453125
-54.01611328125
-46.69189453125
-48.52294921875
-60.4248046875
-56.7626953125
-49.4384765625
-54.01611328125
-53.1005859375
-52.18505859375
-52.18505859375
-46.69189453125
-45.7763671875
-50.35400390625
-49.4384765625
-34.7900390625
-50.35400390625
-64.0869140625
-51.26953125
-53.1005859375
-51.26953125
-50.35400390625
-47.607421875
-48.52294921875
-56.7626953125
-51.26953125
-46.69189453125
-51.26953125
-56.7626953125
-50.35400390625
-51.26953125
-57.67822265625
-54.01611328125
-59.50927734375
-54.01611328125
-40.283203125
-54.931640625
-52.18505859375
-51.26953125
-43.9453125
-46.69189453125
-54.931640625
-61.34033203125
-61.34033203125
-54.931640625
-45.7763671875
-42.1142578125
-43.02978515625
-43.9453125
-48.52294921875
-36.62109375
-46.69189453125
-37.53662109375
-43.9453125
-51.26953125
-50.35400390625
-54.931640625
-49.4384765625
-44.86083984375
-54.931640625
-56.7626953125
-54.01611328125
-54.931640625
-54.01611328125
-49.4384765625
-45.7763671875
-47.607421875
-42.1142578125
-46.69189453125
-43.9453125
-36.62109375
-37.53662109375
-53.1005859375
-55.84716796875
-52.18505859375
-48.52294921875
-54.931640625
-50.35400390625
-60.4248046875
-55.84716796875
-53.1005859375
-47.607421875
-39.36767578125
-35.70556640625
-28.38134765625
-53.1005859375
-56.7626953125
-61.34033203125
-53.1005859375
-43.9453125
-40.283203125
-43.9453125
-41.19873046875
-48.52294921875
-50.35400390625
-49.4384765625
-45.7763671875
-47.607421875
-56.7626953125
-44.86083984375
-46.69189453125
-54.931640625
-50.35400390625
-39.36767578125
-26.55029296875
-19.22607421875
-14.6484375
-11.90185546875
-10.07080078125
-18.310546875
-14.6484375
-16.4794921875
-12.8173828125
-9.1552734375
-14.6484375
-23.8037109375
-33.87451171875
-32.04345703125
-24.71923828125
-37.53662109375
-39.36767578125
-35.70556640625
-32.958984375
-36.62109375
-30.21240234375
-37.53662109375
-47.607421875
-55.84716796875
-46.69189453125
-47.607421875
-62.255859375
-65.00244140625
-55.84716796875
-55.84716796875
-63.17138671875
-71.4111328125
-69.580078125
-70.49560546875
-70.49560546875
-67.7490234375
-66.83349609375
-52.18505859375
-59.50927734375
-68.66455078125
-61.34033203125
-65.00244140625
-65.00244140625
-65.91796875
-63.17138671875
-69.580078125
-64.0869140625
-58.59375
-57.67822265625
-64.0869140625
-66.83349609375
-61.34033203125
-64.0869140625
-75.98876953125
-95.21484375
-96.13037109375
-143.73779296875
-172.119140625
-146.484375
-108.0322265625
-64.0869140625
-28.38134765625
42.1142578125
143.73779296875
261.8408203125
382.6904296875
510.8642578125
682.9833984375
891.7236328125
1046.44775390625
1133.4228515625
1198.42529296875
1202.08740234375
1121.52099609375
994.2626953125
787.353515625
485.2294921875
215.14892578125
-47.607421875
-349.7314453125
-486.14501953125
-490.72265625
-457.763671875
-423.88916015625
-406.494140625
-365.29541015625
-310.36376953125
-270.08056640625
-228.8818359375
-181.2744140625
-135.498046875
-96.13037109375
-65.91796875
-55.84716796875
-39.36767578125
-25.634765625
-22.88818359375
-37.53662109375
-35.70556640625
-29.296875
-33.87451171875
-31.1279296875
-20.1416015625
-20.1416015625
-14.6484375
-10.986328125
-11.90185546875
-10.07080078125
-3.662109375
5.4931640625
2.74658203125
10.986328125
1.8310546875
1.8310546875
6.40869140625
5.4931640625
8.23974609375
16.4794921875
17.39501953125
28.38134765625
26.55029296875
31.1279296875
32.04345703125
29.296875
21.97265625
25.634765625
40.283203125
43.02978515625
39.36767578125
45.7763671875
50.35400390625
49.4384765625
48.52294921875
44.86083984375
52.18505859375
64.0869140625
54.931640625
54.931640625
60.4248046875
60.4248046875
55.84716796875
70.49560546875
74.15771484375
75.98876953125
73.2421875
80.56640625
83.31298828125
79.65087890625
88.80615234375
93.3837890625
102.5390625
98.876953125
90.63720703125
99.79248046875
106.201171875
117.1875
124.51171875
129.08935546875
137.3291015625
137.3291015625
143.73779296875
147.39990234375
149.23095703125
160.21728515625
169.37255859375
178.52783203125
175.78125
180.35888671875
201.416015625
197.75390625
192.2607421875
207.82470703125
212.40234375
219.7265625
228.8818359375
238.037109375
242.61474609375
247.1923828125
259.09423828125
270.08056640625
281.06689453125
287.4755859375
295.71533203125
295.71533203125
307.6171875
313.1103515625
320.4345703125
335.99853515625
331.4208984375
334.16748046875
334.16748046875
338.7451171875
339.66064453125
350.64697265625
354.30908203125
360.7177734375
360.7177734375
370.78857421875
375.3662109375
377.197265625
367.12646484375
357.97119140625
366.2109375
363.46435546875
366.2109375
364.3798828125
356.14013671875
348.81591796875
348.81591796875
341.49169921875
330.50537109375
316.7724609375
310.36376953125
292.96875
276.4892578125
270.08056640625
261.8408203125
245.361328125
226.13525390625
207.82470703125
200.50048828125
194.091796875
182.18994140625
158.38623046875
131.8359375
128.173828125
124.51171875
106.201171875
85.14404296875
86.0595703125
75.98876953125
58.59375
48.52294921875
39.36767578125
29.296875
30.21240234375
17.39501953125
6.40869140625
8.23974609375
6.40869140625
-15.56396484375
-15.56396484375
-11.90185546875
-21.05712890625
-26.55029296875
-23.8037109375
-24.71923828125
-31.1279296875
-30.21240234375
-30.21240234375
-32.958984375
-33.87451171875
-39.36767578125
-43.02978515625
-36.62109375
-32.958984375
-41.19873046875
-33.87451171875
-30.21240234375
-23.8037109375
-24.71923828125
-30.21240234375
-40.283203125
-38.4521484375
-34.7900390625
-34.7900390625
-34.7900390625
-33.87451171875
-28.38134765625
-27.4658203125
-35.70556640625
-29.296875
-29.296875
-31.1279296875
-32.04345703125
-32.958984375
-36.62109375
-35.70556640625
-25.634765625
-25.634765625
-22.88818359375
-28.38134765625
-29.296875
-28.38134765625
-20.1416015625
-18.310546875
-22.88818359375
-21.97265625
-24.71923828125
-20.1416015625
-19.22607421875
-24.71923828125
-26.55029296875
-18.310546875
-17.39501953125
-10.986328125
-13.73291015625
-20.1416015625
-23.8037109375
-15.56396484375
-15.56396484375
-12.8173828125
-12.8173828125
-16.4794921875
-20.1416015625
-14.6484375
-16.4794921875
-16.4794921875
-17.39501953125
-10.07080078125
-2.74658203125
-13.73291015625
-21.05712890625
-14.6484375
-19.22607421875
-31.1279296875
-31.1279296875
-21.05712890625
-23.8037109375
-30.21240234375
-19.22607421875
-22.88818359375
-27.4658203125
-28.38134765625
-28.38134765625
-27.4658203125
-29.296875
-27.4658203125
-43.9453125
-49.4384765625
-43.9453125
-40.283203125
-43.9453125
-45.7763671875
-43.9453125
-46.69189453125
-48.52294921875
-43.9453125
-43.02978515625
-41.19873046875
-33.87451171875
-51.26953125
-54.931640625
-46.69189453125
-43.9453125
-43.9453125
-43.9453125
-49.4384765625
-48.52294921875
-55.84716796875
-53.1005859375
-46.69189453125
-53.1005859375
-46.69189453125
-44.86083984375
-48.52294921875
-50.35400390625
-40.283203125
-33.87451171875
-49.4384765625
-48.52294921875
-47.607421875
-44.86083984375
-47.607421875
-60.4248046875
-55.84716796875
-52.18505859375
-45.7763671875
-45.7763671875
-49.4384765625
-51.26953125
-57.67822265625
-65.00244140625
-58.59375
-51.26953125
-51.26953125
-64.0869140625
-59.50927734375
-48.52294921875
-61.34033203125
-62.255859375
-59.50927734375
-64.0869140625
-60.4248046875
-53.1005859375
-58.59375
-57.67822265625
-57.67822265625
-52.18505859375
-48.52294921875
-53.1005859375
-67.7490234375
-59.50927734375
-54.01611328125
-59.50927734375
-57.67822265625
-56.7626953125
-59.50927734375
-60.4248046875
-57.67822265625
-56.7626953125
-55.84716796875
-55.84716796875
-57.67822265625
-59.50927734375
-64.0869140625
-55.84716796875
-48.52294921875
-58.59375
-62.255859375
-49.4384765625
-59.50927734375
-58.59375
-56.7626953125
-58.59375
-63.17138671875
-57.67822265625
-62.255859375
-59.50927734375
-54.01611328125
-58.59375
-55.84716796875
-45.7763671875
-52.18505859375
-75.0732421875
-71.4111328125
-62.255859375
-60.4248046875
-61.34033203125
-57.67822265625
-56.7626953125
-55.84716796875
-62.255859375
-69.580078125
-65.00244140625
-65.91796875
-61.34033203125
-58.59375
-52.18505859375
-53.1005859375
-59.50927734375
-60.4248046875
-65.91796875
-63.17138671875
-62.255859375
-56.7626953125
-61.34033203125
-65.91796875
-65.00244140625
-58.59375
-60.4248046875
-55.84716796875
-54.01611328125
-59.50927734375
-52.18505859375
-58.59375
-62.255859375
-63.17138671875
-61.34033203125
-65.91796875
-58.59375
-54.931640625
-56.7626953125
-55.84716796875
-56.7626953125
-53.1005859375
-59.50927734375
-58.59375
-58.59375
-54.01611328125
-41.19873046875
-54.01611328125
-69.580078125
-64.0869140625
-55.84716796875
-58.59375
-54.931640625
-57.67822265625
-57.67822265625
-61.34033203125
-56.7626953125
-55.84716796875
-53.1005859375
-56.7626953125
-48.52294921875
-53.1005859375
-58.59375
-52.18505859375
-54.01611328125
-58.59375
-71.4111328125
-75.98876953125
-65.91796875
-67.7490234375
-62.255859375
-54.01611328125
-56.7626953125
-52.18505859375
-56.7626953125
-54.01611328125
-48.52294921875
-58.59375
-64.0869140625
-65.91796875
-63.17138671875
-65.00244140625
-69.580078125
-60.4248046875
-57.67822265625
-61.34033203125
-56.7626953125
-57.67822265625
-54.01611328125
-56.7626953125
-61.34033203125
-58.59375
-42.1142578125
-53.1005859375
-60.4248046875
-57.67822265625
-54.931640625
-48.52294921875
-44.86083984375
-50.35400390625
-58.59375
-54.01611328125
-49.4384765625
-51.26953125
-54.931640625
-43.9453125
-41.19873046875
-46.69189453125
-44.86083984375
-47.607421875
-60.4248046875
-56.7626953125
-47.607421875
-59.50927734375
-69.580078125
-61.34033203125
-45.7763671875
-54.931640625
-65.00244140625
-61.34033203125
-49.4384765625
-37.53662109375
-21.97265625
-19.22607421875
-20.1416015625
-16.4794921875
-16.4794921875
-20.1416015625
-21.05712890625
-18.310546875
-9.1552734375
-13.73291015625
-21.05712890625
-32.04345703125
-39.36767578125
-37.53662109375
-39.36767578125
-33.87451171875
-37.53662109375
-48.52294921875
-41.19873046875
-49.4384765625
-51.26953125
-50.35400390625
-49.4384765625
-51.26953125
-48.52294921875
-49.4384765625
-54.01611328125
-51.26953125
-56.7626953125
-56.7626953125
-59.50927734375
-70.49560546875
-62.255859375
-59.50927734375
-69.580078125
-74.15771484375
-71.4111328125
-68.66455078125
-69.580078125
-75.98876953125
-75.98876953125
-72.32666015625
-62.255859375
-65.00244140625
-61.34033203125
-63.17138671875
-66.83349609375
-65.00244140625
-69.580078125
-67.7490234375
-72.32666015625
-72.32666015625
-91.552734375
-107.11669921875
-138.24462890625
-171.20361328125
-188.5986328125
-169.37255859375
-127.25830078125
-81.48193359375
-23.8037109375
37.53662109375
129.08935546875
258.1787109375
400.08544921875
532.8369140625
700.37841796875
898.13232421875
1052.8564453125
1142.578125
1194.76318359375
1188.3544921875
1106.87255859375
986.9384765625
780.94482421875
444.9462890625
162.04833984375
-143.73779296875
-395.5078125
-451.35498046875
-405.57861328125
-398.25439453125
-401.91650390625
-386.3525390625
-363.46435546875
-338.7451171875
-301.20849609375
-249.93896484375
-199.5849609375
-168.45703125
-141.90673828125
-114.44091796875
-86.0595703125
-69.580078125
-54.01611328125
-35.70556640625
-20.1416015625
-25.634765625
-32.04345703125
-30.21240234375
-22.88818359375
-18.310546875
-19.22607421875
-17.39501953125
-4.57763671875
-0.91552734375
-11.90185546875
-11.90185546875
-2.74658203125
8.23974609375
8.23974609375
22.88818359375
20.1416015625
12.8173828125
12.8173828125
17.39501953125
35.70556640625
32.958984375
20.1416015625
25.634765625
25.634765625
24.71923828125
28.38134765625
32.958984375
32.958984375
34.7900390625
46.69189453125
58.59375
52.18505859375
49.4384765625
55.84716796875
49.4384765625
53.1005859375
75.0732421875
63.17138671875
61.34033203125
61.34033203125
66.83349609375
66.83349609375
62.255859375
72.32666015625
77.81982421875
77.81982421875
90.63720703125
95.21484375
94.29931640625
93.3837890625
97.96142578125
102.5390625
112.60986328125
114.44091796875
117.1875
123.59619140625
120.849609375
125.42724609375
129.08935546875
130.92041015625
142.822265625
148.3154296875
154.72412109375
169.37255859375
173.9501953125
168.45703125
175.78125
183.10546875
188.5986328125
193.17626953125
200.50048828125
216.064453125
205.99365234375
210.5712890625
223.388671875
239.8681640625
254.5166015625
265.5029296875
260.92529296875
267.333984375
277.40478515625
284.72900390625
292.96875
310.36376953125
315.85693359375
328.67431640625
328.67431640625
328.67431640625
341.49169921875
347.900390625
349.7314453125
349.7314453125
356.14013671875
364.3798828125
363.46435546875
375.3662109375
380.859375
380.859375
386.3525390625
389.09912109375
400.08544921875
401.0009765625
384.521484375
376.28173828125
380.859375
390.0146484375
379.0283203125
373.53515625
375.3662109375
371.7041015625
368.95751953125
350.64697265625
345.15380859375
331.4208984375
317.68798828125
309.4482421875
297.54638671875
281.06689453125
264.58740234375
255.43212890625
244.44580078125
218.81103515625
206.9091796875
196.83837890625
168.45703125
162.04833984375
147.39990234375
135.498046875
118.10302734375
100.7080078125
90.63720703125
84.228515625
75.0732421875
60.4248046875
58.59375
49.4384765625
32.04345703125
28.38134765625
16.4794921875
10.07080078125
13.73291015625
10.986328125
6.40869140625
2.74658203125
-10.07080078125
-17.39501953125
-17.39501953125
-12.8173828125
-15.56396484375
-11.90185546875
-11.90185546875
-18.310546875
-29.296875
-24.71923828125
-26.55029296875
-22.88818359375
-23.8037109375
-20.1416015625
-26.55029296875
-30.21240234375
-25.634765625
-28.38134765625
-24.71923828125
-24.71923828125
-25.634765625
-23.8037109375
-22.88818359375
-22.88818359375
-27.4658203125
-31.1279296875
-22.88818359375
-21.05712890625
-27.4658203125
-21.97265625
-18.310546875
-25.634765625
-31.1279296875
-22.88818359375
-10.07080078125
-25.634765625
-21.97265625
-22.88818359375
-24.71923828125
-21.97265625
-21.05712890625
-14.6484375
-13.73291015625
-17.39501953125
-18.310546875
-7.32421875
-7.32421875
-10.07080078125
-5.4931640625
-12.8173828125
-23.8037109375
-18.310546875
-10.986328125
-13.73291015625
-16.4794921875
-8.23974609375
-18.310546875
-23.8037109375
-11.90185546875
-7.32421875
-4.57763671875
-8.23974609375
-12.8173828125
-8.23974609375
-15.56396484375
-15.56396484375
-10.986328125
-15.56396484375
-19.22607421875
-21.05712890625
-25.634765625
-18.310546875
-16.4794921875
-21.05712890625
-17.39501953125
-15.56396484375
-21.97265625
-22.88818359375
-24.71923828125
-30.21240234375
-33.87451171875
-36.62109375
-35.70556640625
-38.4521484375
-34.7900390625
-34.7900390625
-34.7900390625
-33.87451171875
-34.7900390625
-35.70556640625
-37.53662109375
-35.70556640625
-40.283203125
-40.283203125
-36.62109375
-32.04345703125
-39.36767578125
-43.02978515625
-44.86083984375
-46.69189453125
-44.86083984375
-43.9453125
-43.9453125
-42.1142578125
-27.4658203125
-28.38134765625
-32.958984375
-38.4521484375
-41.19873046875
-22.88818359375
-5.4931640625
-38.4521484375
-57.67822265625
-48.52294921875
-47.607421875
-44.86083984375
-44.86083984375
-47.607421875
-42.1142578125
-43.9453125
-48.52294921875
-46.69189453125
-43.02978515625
-42.1142578125
-50.35400390625
-45.7763671875
-32.958984375
-32.958984375
-51.26953125
-53.1005859375
-57.67822265625
-54.01611328125
-55.84716796875
-54.01611328125
-50.35400390625
-51.26953125
-50.35400390625
-42.1142578125
-52.18505859375
-49.4384765625
-46.69189453125
-44.86083984375
-43.02978515625
-58.59375
-53.1005859375
-54.01611328125
-62.255859375
-56.7626953125
-51.26953125
-52.18505859375
-39.36767578125
-55.84716796875
-54.01611328125
-48.52294921875
-50.35400390625
-54.01611328125
-51.26953125
-49.4384765625
-55.84716796875
-44.86083984375
-43.9453125
-59.50927734375
-56.7626953125
-65.91796875
-60.4248046875
-54.931640625
-64.0869140625
-64.0869140625
-51.26953125
-57.67822265625
-64.0869140625
-66.83349609375
-65.91796875
-63.17138671875
-62.255859375
-66.83349609375
-64.0869140625
-73.2421875
-58.59375
-58.59375
-64.0869140625
-65.00244140625
-63.17138671875
-66.83349609375
-66.83349609375
-62.255859375
-61.34033203125
-58.59375
-55.84716796875
-60.4248046875
-61.34033203125
-60.4248046875
-65.00244140625
-65.00244140625
-62.255859375
-65.00244140625
-73.2421875
-69.580078125
-63.17138671875
-60.4248046875
-57.67822265625
-60.4248046875
-56.7626953125
-51.26953125
-75.0732421875
-75.0732421875
-64.0869140625
-58.59375
-54.931640625
-58.59375
-63.17138671875
-63.17138671875
-56.7626953125
-60.4248046875
-63.17138671875
-69.580078125
-65.00244140625
-62.255859375
-63.17138671875
-61.34033203125
-60.4248046875
-65.00244140625
-70.49560546875
-66.83349609375
-63.17138671875
-54.01611328125
-60.4248046875
-65.91796875
-69.580078125
-65.00244140625
-52.18505859375
-66.83349609375
-60.4248046875
-64.0869140625
-69.580078125
-64.0869140625
-62.255859375
-56.7626953125
-55.84716796875
-62.255859375
-62.255859375
-55.84716796875
-58.59375
-58.59375
-54.931640625
-60.4248046875
-60.4248046875
-55.84716796875
-55.84716796875
-62.255859375
-62.255859375
-60.4248046875
-63.17138671875
-59.50927734375
-56.7626953125
-50.35400390625
-49.4384765625
-69.580078125
-65.91796875
-62.255859375
-63.17138671875
-63.17138671875
-62.255859375
-63.17138671875
-65.00244140625
-62.255859375
-54.931640625
-64.0869140625
-63.17138671875
-63.17138671875
-65.91796875
-70.49560546875
-65.00244140625
-64.0869140625
-59.50927734375
-60.4248046875
-44.86083984375
-60.4248046875
-66.83349609375
-61.34033203125
-59.50927734375
-68.66455078125
-70.49560546875
-63.17138671875
-59.50927734375
-59.50927734375
-64.0869140625
-60.4248046875
-56.7626953125
-63.17138671875
-62.255859375
-55.84716796875
-47.607421875
-44.86083984375
-53.1005859375
-56.7626953125
-49.4384765625
-62.255859375
-68.66455078125
-65.00244140625
-66.83349609375
-65.91796875
-64.0869140625
-58.59375
-51.26953125
-48.52294921875
-36.62109375
-31.1279296875
-19.22607421875
-14.6484375
-18.310546875
-22.88818359375
-17.39501953125
-20.1416015625
-32.04345703125
-29.296875
-36.62109375
-45.7763671875
-48.52294921875
-37.53662109375
-40.283203125
-42.1142578125
-41.19873046875
-42.1142578125
-59.50927734375
-59.50927734375
-56.7626953125
-54.931640625
-59.50927734375
-50.35400390625
-47.607421875
-56.7626953125
-59.50927734375
-66.83349609375
-65.91796875
-57.67822265625
-75.0732421875
-79.65087890625
-75.98876953125
-85.14404296875
-89.7216796875
-83.31298828125
-75.0732421875
-66.83349609375
-69.580078125
-80.56640625
-81.48193359375
-75.98876953125
-73.2421875
-78.7353515625
-80.56640625
-77.81982421875
-70.49560546875
-67.7490234375
-71.4111328125
-81.48193359375
-71.4111328125
-76.904296875
-99.79248046875
-120.849609375
-134.58251953125
-155.6396484375
-175.78125
-175.78125
-145.56884765625
-97.96142578125
-54.931640625
5.4931640625
108.94775390625
221.5576171875
349.7314453125
483.3984375
636.29150390625
843.20068359375
1029.96826171875
1140.7470703125
1196.59423828125
1226.806640625
1180.11474609375
1083.06884765625
909.11865234375
631.7138671875
329.58984375
72.32666015625
-252.685546875
-456.84814453125
-493.46923828125
-492.5537109375
-445.86181640625
-417.48046875
-388.18359375
-341.49169921875
-292.96875
-251.77001953125
-207.82470703125
-162.04833984375
-130.0048828125
-91.552734375
-65.91796875
-49.4384765625
-42.1142578125
-39.36767578125
-40.283203125
-23.8037109375
-27.4658203125
-35.70556640625
-29.296875
-39.36767578125
-23.8037109375
-19.22607421875
-32.958984375
-19.22607421875
-14.6484375
-9.1552734375
-16.4794921875
-12.8173828125
0.91552734375
-3.662109375
-6.40869140625
-2.74658203125
0
2.74658203125
7.32421875
9.1552734375
24.71923828125
26.55029296875
10.986328125
6.40869140625
10.07080078125
14.6484375
25.634765625
28.38134765625
21.97265625
22.88818359375
18.310546875
29.296875
35.70556640625
33.87451171875
38.4521484375
37.53662109375
40.283203125
43.02978515625
41.19873046875
50.35400390625
54.931640625
45.7763671875
51.26953125
54.931640625
65.00244140625
75.0732421875
69.580078125
66.83349609375
71.4111328125
74.15771484375
77.81982421875
87.890625
86.0595703125
90.63720703125
98.876953125
101.62353515625
102.5390625
111.6943359375
118.10302734375
116.27197265625
122.6806640625
135.498046875
137.3291015625
137.3291015625
141.90673828125
146.484375
151.9775390625
167.54150390625
162.9638671875
161.1328125
182.18994140625
187.68310546875
193.17626953125
201.416015625
207.82470703125
216.97998046875
226.13525390625
240.78369140625
250.8544921875
256.34765625
272.8271484375
276.4892578125
274.658203125
285.64453125
295.71533203125
303.03955078125
309.4482421875
310.36376953125
311.279296875
320.4345703125
325.01220703125
331.4208984375
338.7451171875
339.66064453125
351.5625
360.7177734375
365.29541015625
357.0556640625
355.224609375
354.30908203125
357.0556640625
361.63330078125
357.97119140625
357.0556640625
364.3798828125
355.224609375
357.0556640625
351.5625
344.23828125
330.50537109375
328.67431640625
321.35009765625
317.68798828125
302.1240234375
278.3203125
273.74267578125
259.09423828125
243.5302734375
242.61474609375
217.8955078125
200.50048828125
183.10546875
170.2880859375
151.9775390625
132.75146484375
113.525390625
107.11669921875
97.0458984375
86.97509765625
73.2421875
69.580078125
62.255859375
51.26953125
38.4521484375
27.4658203125
23.8037109375
10.986328125
-1.8310546875
-3.662109375
-8.23974609375
-16.4794921875
-26.55029296875
-29.296875
-27.4658203125
-27.4658203125
-28.38134765625
-42.1142578125
-44.86083984375
-43.02978515625
-43.02978515625
-46.69189453125
-47.607421875
-49.4384765625
-55.84716796875
-48.52294921875
-48.52294921875
-50.35400390625
-54.931640625
-54.01611328125
-53.1005859375
-54.931640625
-54.931640625
-64.0869140625
-58.59375
-57.67822265625
-58.59375
-65.91796875
-65.91796875
-59.50927734375
-55.84716796875
-59.50927734375
-59.50927734375
-44.86083984375
-41.19873046875
-46.69189453125
-56.7626953125
-61.34033203125
-57.67822265625
-43.02978515625
-42.1142578125
-60.4248046875
-57.67822265625
-50.35400390625
-46.69189453125
-39.36767578125
-36.62109375
-25.634765625
-37.53662109375
-43.02978515625
-39.36767578125
-44.86083984375
-45.7763671875
-43.02978515625
-42.1142578125
-40.283203125
-36.62109375
-39.36767578125
-21.05712890625
-34.7900390625
-43.9453125
-33.87451171875
-35.70556640625
-39.36767578125
-26.55029296875
-23.8037109375
-32.958984375
-31.1279296875
-26.55029296875
-21.05712890625
-17.39501953125
-15.56396484375
-28.38134765625
-27.4658203125
-34.7900390625
-42.1142578125
-34.7900390625
-33.87451171875
-34.7900390625
-41.19873046875
-43.02978515625
-37.53662109375
-36.62109375
-41.19873046875
-44.86083984375
-46.69189453125
-47.607421875
-45.7763671875
-47.607421875
-46.69189453125
-44.86083984375
-43.9453125
-42.1142578125
-52.18505859375
-47.607421875
-52.18505859375
-55.84716796875
-55.84716796875
-62.255859375
-65.00244140625
-60.4248046875
-58.59375
-56.7626953125
-55.84716796875
-53.1005859375
-54.931640625
-55.84716796875
-53.1005859375
-54.931640625
-60.4248046875
-58.59375
-54.931640625
-62.255859375
-60.4248046875
-65.91796875
-66.83349609375
-68.66455078125
-69.580078125
-78.7353515625
-79.65087890625
-68.66455078125
-64.0869140625
-65.00244140625
-64.0869140625
-62.255859375
-57.67822265625
-60.4248046875
-74.15771484375
-65.91796875
-58.59375
-65.91796875
-65.91796875
-72.32666015625
-73.2421875
-71.4111328125
-74.15771484375
-73.2421875
-67.7490234375
-68.66455078125
-64.0869140625
-71.4111328125
-75.0732421875
-71.4111328125
-68.66455078125
-67.7490234375
-74.15771484375
-72.32666015625
-68.66455078125
-62.255859375
-54.931640625
-69.580078125
-72.32666015625
-80.56640625
-74.15771484375
-79.65087890625
-79.65087890625
-80.56640625
-75.98876953125
-70.49560546875
-74.15771484375
-80.56640625
-75.0732421875
-66.83349609375
-75.98876953125
-69.580078125
-63.17138671875
-66.83349609375
-65.00244140625
-52.18505859375
-60.4248046875
-82.3974609375
-83.31298828125
-79.65087890625
-80.56640625
-74.15771484375
-75.0732421875
-82.3974609375
-80.56640625
-83.31298828125
-79.65087890625
-64.0869140625
-78.7353515625
-78.7353515625
-82.3974609375
-83.31298828125
-78.7353515625
-72.32666015625
-76.904296875
-75.0732421875
-78.7353515625
-83.31298828125
-84.228515625
-80.56640625
-77.81982421875
-81.48193359375
-84.228515625
-86.97509765625
-86.0595703125
-77.81982421875
-65.91796875
-71.4111328125
-79.65087890625
-83.31298828125
-80.56640625
-77.81982421875
-76.904296875
-75.98876953125
-74.15771484375
-81.48193359375
-85.14404296875
-85.14404296875
-86.0595703125
-82.3974609375
-83.31298828125
-89.7216796875
-84.228515625
-82.3974609375
-75.0732421875
-75.0732421875
-71.4111328125
-72.32666015625
-81.48193359375
-82.3974609375
-71.4111328125
-82.3974609375
-81.48193359375
-78.7353515625
-81.48193359375
-71.4111328125
-78.7353515625
-85.14404296875
-78.7353515625
-86.97509765625
-85.14404296875
-82.3974609375
-82.3974609375
-75.0732421875
-79.65087890625
-88.80615234375
-87.890625
-87.890625
-86.97509765625
-81.48193359375
-79.65087890625
-79.65087890625
-86.0595703125
-84.228515625
-82.3974609375
-82.3974609375
-81.48193359375
-86.97509765625
-91.552734375
-83.31298828125
-82.3974609375
-77.81982421875
-79.65087890625
-70.49560546875
-72.32666015625
-79.65087890625
-75.0732421875
-75.98876953125
-79.65087890625
-73.2421875
-77.81982421875
-77.81982421875
-74.15771484375
-87.890625
-85.14404296875
-86.97509765625
-80.56640625
-76.904296875
-79.65087890625
-77.81982421875
-79.65087890625
-76.904296875
-78.7353515625
-75.0732421875
-73.2421875
-79.65087890625
-86.97509765625
-83.31298828125
-66.83349609375
-63.17138671875
-75.98876953125
-76.904296875
-78.7353515625
-72.32666015625
-69.580078125
-77.81982421875
-80.56640625
-77.81982421875
-76.904296875
-77.81982421875
-76.904296875
-74.15771484375
-78.7353515625
-77.81982421875
-74.15771484375
-75.98876953125
-64.0869140625
-78.7353515625
-80.56640625
-79.65087890625
-75.98876953125
-79.65087890625
-76.904296875
-76.904296875
-76.904296875
-75.98876953125
-70.49560546875
-67.7490234375
-59.50927734375
-64.0869140625
-65.91796875
-71.4111328125
-71.4111328125
-67.7490234375
-77.81982421875
-76.904296875
-65.91796875
-75.98876953125
-82.3974609375
-86.97509765625
-75.0732421875
-71.4111328125
-61.34033203125
-50.35400390625
-41.19873046875
-35.70556640625
-32.958984375
-30.21240234375
-30.21240234375
-27.4658203125
-24.71923828125
-32.04345703125
-49.4384765625
-64.0869140625
-55.84716796875
-53.1005859375
-54.01611328125
-58.59375
-61.34033203125
-67.7490234375
-58.59375
-51.26953125
-52.18505859375
-62.255859375
-66.83349609375
-63.17138671875
-69.580078125
-65.91796875
-73.2421875
-76.904296875
-75.98876953125
-76.904296875
-73.2421875
-81.48193359375
-80.56640625
-78.7353515625
-76.904296875
-74.15771484375
-76.904296875
-90.63720703125
-92.46826171875
-98.876953125
-88.80615234375
-86.0595703125
-85.14404296875
-83.31298828125
-86.97509765625
-83.31298828125
-83.31298828125
-78.7353515625
-79.65087890625
-81.48193359375
-80.56640625
-78.7353515625
-79.65087890625
-86.97509765625
-100.7080078125
-131.8359375
-159.3017578125
-175.78125
-183.10546875
-144.6533203125
-104.3701171875
-61.34033203125
-8.23974609375
71.4111328125
186.767578125
302.1240234375
431.21337890625
567.626953125
755.31005859375
962.21923828125
1098.6328125
1159.97314453125
1201.171875
1172.79052734375
1086.73095703125
935.6689453125
694.88525390625
397.3388671875
143.73779296875
-151.06201171875
-423.88916015625
-501.708984375
-495.30029296875
-455.01708984375
-416.56494140625
-385.43701171875
-347.900390625
-301.20849609375
-259.09423828125
-212.40234375
-157.470703125
-120.849609375
-98.876953125
-79.65087890625
-56.7626953125
-41.19873046875
-46.69189453125
-52.18505859375
-45.7763671875
-42.1142578125
-39.36767578125
-34.7900390625
-37.53662109375
-29.296875
-30.21240234375
-27.4658203125
-22.88818359375
-15.56396484375
-11.90185546875
-13.73291015625
-3.662109375
-21.97265625
-24.71923828125
-9.1552734375
-4.57763671875
-0.91552734375
4.57763671875
9.1552734375
2.74658203125
4.57763671875
5.4931640625
10.07080078125
12.8173828125
8.23974609375
16.4794921875
21.97265625
20.1416015625
15.56396484375
29.296875
33.87451171875
39.36767578125
40.283203125
47.607421875
44.86083984375
33.87451171875
34.7900390625
44.86083984375
41.19873046875
40.283203125
50.35400390625
55.84716796875
58.59375
71.4111328125
70.49560546875
68.66455078125
77.81982421875
75.98876953125
77.81982421875
90.63720703125
93.3837890625
93.3837890625
89.7216796875
86.97509765625
98.876953125
107.11669921875
106.201171875
115.3564453125
119.0185546875
115.3564453125
116.27197265625
128.173828125
133.6669921875
139.16015625
153.80859375
151.9775390625
159.3017578125
170.2880859375
178.52783203125
173.9501953125
181.2744140625
187.68310546875
196.83837890625
202.33154296875
209.65576171875
217.8955078125
226.13525390625
228.8818359375
236.2060546875
249.0234375
254.5166015625
267.333984375
277.40478515625
282.89794921875
295.71533203125
290.22216796875
309.4482421875
309.4482421875
315.85693359375
328.67431640625
331.4208984375
335.99853515625
349.7314453125
349.7314453125
351.5625
349.7314453125
353.3935546875
365.29541015625
374.45068359375
364.3798828125
357.97119140625
361.63330078125
361.63330078125
367.12646484375
370.78857421875
368.0419921875
362.548828125
357.0556640625
355.224609375
349.7314453125
339.66064453125
335.99853515625
321.35009765625
303.03955078125
300.29296875
296.630859375
277.40478515625
241.69921875
241.69921875
227.05078125
215.14892578125
203.2470703125
173.03466796875
161.1328125
163.87939453125
149.23095703125
129.08935546875
121.76513671875
98.876953125
85.14404296875
75.0732421875
53.1005859375
45.7763671875
44.86083984375
31.1279296875
29.296875
20.1416015625
15.56396484375
5.4931640625
0.91552734375
-1.8310546875
1.8310546875
-2.74658203125
-11.90185546875
-24.71923828125
-20.1416015625
-28.38134765625
-31.1279296875
-34.7900390625
-32.958984375
-30.21240234375
-27.4658203125
-25.634765625
-24.71923828125
-51.26953125
-54.01611328125
-48.52294921875
-49.4384765625
-45.7763671875
-46.69189453125
-50.35400390625
-48.52294921875
-48.52294921875
-40.283203125
-50.35400390625
-54.01611328125
-54.931640625
-44.86083984375
-32.04345703125
-48.52294921875
-44.86083984375
-50.35400390625
-49.4384765625
-45.7763671875
-45.7763671875
-45.7763671875
-43.02978515625
-38.4521484375
-42.1142578125
-42.1142578125
-49.4384765625
-46.69189453125
-37.53662109375
-41.19873046875
-40.283203125
-39.36767578125
-44.86083984375
-43.9453125
-32.958984375
-39.36767578125
-40.283203125
-35.70556640625
-36.62109375
-36.62109375
-38.4521484375
-32.04345703125
-20.1416015625
-17.39501953125
-20.1416015625
-32.04345703125
-32.958984375
-27.4658203125
-25.634765625
-21.97265625
-23.8037109375
-24.71923828125
-26.55029296875
-21.97265625
-17.39501953125
-26.55029296875
-26.55029296875
-31.1279296875
-33.87451171875
-17.39501953125
-22.88818359375
-30.21240234375
-30.21240234375
-25.634765625
-19.22607421875
-30.21240234375
-35.70556640625
-38.4521484375
-35.70556640625
-36.62109375
-38.4521484375
-41.19873046875
-37.53662109375
-36.62109375
-33.87451171875
-29.296875
-38.4521484375
-43.02978515625
-45.7763671875
-49.4384765625
-54.01611328125
-48.52294921875
-43.9453125
-45.7763671875
-33.87451171875
-48.52294921875
-58.59375
-61.34033203125
-60.4248046875
-51.26953125
-46.69189453125
-43.02978515625
-47.607421875
-53.1005859375
-57.67822265625
-55.84716796875
-49.4384765625
-53.1005859375
-50.35400390625
-37.53662109375
-53.1005859375
-64.0869140625
-62.255859375
-62.255859375
-70.49560546875
-65.91796875
-72.32666015625
-74.15771484375
-65.91796875
-55.84716796875
-55.84716796875
-72.32666015625
-82.3974609375
-65.00244140625
-69.580078125
-76.904296875
-63.17138671875
-62.255859375
-71.4111328125
-74.15771484375
-75.0732421875
-74.15771484375
-66.83349609375
-66.83349609375
-75.0732421875
-66.83349609375
-79.65087890625
-78.7353515625
-68.66455078125
-68.66455078125
-74.15771484375
-77.81982421875
-75.98876953125
-77.81982421875
-77.81982421875
-70.49560546875
-73.2421875
-80.56640625
-75.0732421875
-71.4111328125
-69.580078125
-74.15771484375
-70.49560546875
-67.7490234375
-68.66455078125
-68.66455078125
-69.580078125
-66.83349609375
-68.66455078125
-74.15771484375
-65.91796875
-81.48193359375
-90.63720703125
-75.0732421875
-77.81982421875
-80.56640625
-67.7490234375
-55.84716796875
-76.904296875
-88.80615234375
-83.31298828125
-73.2421875
-71.4111328125
-76.904296875
-70.49560546875
-71.4111328125
-76.904296875
-70.49560546875
-73.2421875
-72.32666015625
-75.0732421875
-73.2421875
-80.56640625
-86.97509765625
-80.56640625
-73.2421875
-74.15771484375
-73.2421875
-78.7353515625
-82.3974609375
-78.7353515625
-84.228515625
-84.228515625
-80.56640625
-84.228515625
-81.48193359375
-76.904296875
-68.66455078125
-71.4111328125
-72.32666015625
-75.0732421875
-81.48193359375
-83.31298828125
-78.7353515625
-82.3974609375
-86.97509765625
-92.46826171875
-86.97509765625
-74.15771484375
-64.0869140625
-76.904296875
-76.904296875
-86.0595703125
-87.890625
-75.98876953125
-75.0732421875
-73.2421875
-77.81982421875
-79.65087890625
-78.7353515625
-81.48193359375
-83.31298828125
-75.98876953125
-79.65087890625
-82.3974609375
-73.2421875
-80.56640625
-86.97509765625
-86.97509765625
-88.80615234375
-79.65087890625
-86.0595703125
-83.31298828125
-86.0595703125
-86.97509765625
-83.31298828125
-77.81982421875
-72.32666015625
-75.98876953125
-76.904296875
-86.97509765625
-81.48193359375
-75.98876953125
-78.7353515625
-80.56640625
-85.14404296875
-83.31298828125
-76.904296875
-77.81982421875
-78.7353515625
-78.7353515625
-74.15771484375
-71.4111328125
-71.4111328125
-66.83349609375
-72.32666015625
-78.7353515625
-85.14404296875
-87.890625
-83.31298828125
-79.65087890625
-85.14404296875
-87.890625
-75.98876953125
-59.50927734375
-76.904296875
-86.97509765625
-81.48193359375
-80.56640625
-86.0595703125
-82.3974609375
-74.15771484375
-76.904296875
-79.65087890625
-71.4111328125
-69.580078125
-81.48193359375
-78.7353515625
-71.4111328125
-65.91796875
-69.580078125
-81.48193359375
-81.48193359375
-84.228515625
-83.31298828125
-79.65087890625
-81.48193359375
-76.904296875
-75.98876953125
-84.228515625
-75.0732421875
-73.2421875
-83.31298828125
-82.3974609375
-76.904296875
-82.3974609375
-80.56640625
-79.65087890625
-72.32666015625
-69.580078125
-73.2421875
-69.580078125
-88.80615234375
-92.46826171875
-89.7216796875
-76.904296875
-75.0732421875
-74.15771484375
-69.580078125
-69.580078125
-82.3974609375
-88.80615234375
-83.31298828125
-79.65087890625
-88.80615234375
-88.80615234375
-84.228515625
-82.3974609375
-87.890625
-83.31298828125
-69.580078125
-66.83349609375
-54.01611328125
-43.9453125
-47.607421875
-40.283203125
-29.296875
-22.88818359375
-51.26953125
-52.18505859375
-46.69189453125
-47.607421875
-43.9453125
-52.18505859375
-61.34033203125
-58.59375
-56.7626953125
-67.7490234375
-68.66455078125
-63.17138671875
-75.98876953125
-71.4111328125
-76.904296875
-68.66455078125
-62.255859375
-71.4111328125
-71.4111328125
-68.66455078125
-71.4111328125
-72.32666015625
-73.2421875
-75.0732421875
-79.65087890625
-83.31298828125
-92.46826171875
-97.0458984375
-100.7080078125
-97.96142578125
-97.96142578125
-85.14404296875
-90.63720703125
-95.21484375
-97.0458984375
-96.13037109375
-87.890625
-86.97509765625
-92.46826171875
-84.228515625
-79.65087890625
-73.2421875
-72.32666015625
-82.3974609375
-94.29931640625
-93.3837890625
-109.86328125
-128.173828125
-145.56884765625
-168.45703125
-186.767578125
-178.52783203125
-146.484375
-102.5390625
-59.50927734375
-2.74658203125
86.97509765625
209.65576171875
337.82958984375
444.9462890625
585.9375
788.26904296875
977.783203125
1095.88623046875
1163.63525390625
1193.84765625
1150.81787109375
1042.78564453125
866.0888671875
600.5859375
313.1103515625
61.34033203125
-249.93896484375
-464.17236328125
-496.2158203125
-477.9052734375
-454.1015625
-437.6220703125
-402.83203125
-344.23828125
-292.96875
-261.8408203125
-205.99365234375
-169.37255859375
-137.3291015625
-107.11669921875
-84.228515625
-65.00244140625
-55.84716796875
-49.4384765625
-49.4384765625
-50.35400390625
-38.4521484375
-34.7900390625
-50.35400390625
-45.7763671875
-46.69189453125
-41.19873046875
-38.4521484375
-36.62109375
-34.7900390625
-32.04345703125
-32.04345703125
-26.55029296875
-26.55029296875
-23.8037109375
-14.6484375
-10.07080078125
-14.6484375
-18.310546875
-15.56396484375
-11.90185546875
-9.1552734375
-0.91552734375
3.662109375
-1.8310546875
-1.8310546875
-2.74658203125
3.662109375
15.56396484375
19.22607421875
17.39501953125
19.22607421875
30.21240234375
34.7900390625
15.56396484375
16.4794921875
21.97265625
25.634765625
29.296875
41.19873046875
38.4521484375
41.19873046875
45.7763671875
46.69189453125
47.607421875
51.26953125
55.84716796875
60.4248046875
56.7626953125
62.255859375
62.255859375
68.66455078125
75.0732421875
86.0595703125
94.29931640625
86.97509765625
86.97509765625
90.63720703125
88.80615234375
95.21484375
104.3701171875
112.60986328125
114.44091796875
119.0185546875
130.92041015625
135.498046875
140.9912109375
146.484375
159.3017578125
162.9638671875
158.38623046875
165.71044921875
177.6123046875
184.9365234375
200.50048828125
197.75390625
207.82470703125
220.64208984375
229.79736328125
227.96630859375
231.62841796875
240.78369140625
253.60107421875
261.8408203125
271.91162109375
277.40478515625
278.3203125
286.56005859375
296.630859375
308.53271484375
312.19482421875
318.603515625
331.4208984375
346.98486328125
343.32275390625
330.50537109375
335.0830078125
341.49169921875
338.7451171875
347.900390625
349.7314453125
356.14013671875
362.548828125
341.49169921875
346.0693359375
346.98486328125
342.4072265625
340.576171875
336.9140625
333.251953125
330.50537109375
315.85693359375
314.94140625
305.7861328125
291.1376953125
289.306640625
270.08056640625
257.26318359375
245.361328125
227.96630859375
213.31787109375
198.66943359375
184.02099609375
169.37255859375
156.55517578125
152.89306640625
127.25830078125
114.44091796875
94.29931640625
82.3974609375
75.98876953125
65.00244140625
52.18505859375
43.02978515625
29.296875
19.22607421875
13.73291015625
8.23974609375
-4.57763671875
-17.39501953125
-22.88818359375
-22.88818359375
-16.4794921875
-27.4658203125
-24.71923828125
-12.8173828125
-43.9453125
-54.01611328125
-46.69189453125
-52.18505859375
-51.26953125
-52.18505859375
-57.67822265625
-58.59375
-58.59375
-62.255859375
-50.35400390625
-50.35400390625
-54.01611328125
-59.50927734375
-64.0869140625
-66.83349609375
-67.7490234375
-66.83349609375
-61.34033203125
-56.7626953125
-56.7626953125
-63.17138671875
-55.84716796875
-64.0869140625
-62.255859375
-68.66455078125
-62.255859375
-61.34033203125
-54.931640625
-51.26953125
-50.35400390625
-50.35400390625
-46.69189453125
-50.35400390625
-52.18505859375
-47.607421875
-46.69189453125
-48.52294921875
-53.1005859375
-48.52294921875
-45.7763671875
-43.02978515625
-45.7763671875
-48.52294921875
-45.7763671875
-51.26953125
-50.35400390625
-53.1005859375
-41.19873046875
-38.4521484375
-43.02978515625
-38.4521484375
-34.7900390625
-49.4384765625
-47.607421875
-43.9453125
-43.9453125
-50.35400390625
-51.26953125
-46.69189453125
-43.02978515625
-50.35400390625
-52.18505859375
-44.86083984375
-45.7763671875
-29.296875
-36.62109375
-51.26953125
-48.52294921875
-47.607421875
-47.607421875
-45.7763671875
-55.84716796875
-48.52294921875
-48.52294921875
-44.86083984375
-42.1142578125
-47.607421875
-54.931640625
-50.35400390625
-45.7763671875
-42.1142578125
-45.7763671875
-53.1005859375
-57.67822265625
-57.67822265625
-54.01611328125
-59.50927734375
-58.59375
-61.34033203125
-59.50927734375
-63.17138671875
-63.17138671875
-59.50927734375
-52.18505859375
-69.580078125
-83.31298828125
-79.65087890625
-75.98876953125
-73.2421875
-67.7490234375
-71.4111328125
-72.32666015625
-65.00244140625
-57.67822265625
-70.49560546875
-70.49560546875
-70.49560546875
-68.66455078125
-70.49560546875
-77.81982421875
-79.65087890625
-69.580078125
-79.65087890625
-89.7216796875
-92.46826171875
-82.3974609375
-74.15771484375
-80.56640625
-78.7353515625
-75.0732421875
-80.56640625
-86.97509765625
-91.552734375
-81.48193359375
-76.904296875
-77.81982421875
-73.2421875
-78.7353515625
-76.904296875
-72.32666015625
-82.3974609375
-80.56640625
-81.48193359375
-79.65087890625
-80.56640625
-86.0595703125
-92.46826171875
-97.96142578125
-102.5390625
-97.96142578125
-86.0595703125
-81.48193359375
-91.552734375
-88.80615234375
-86.0595703125
-86.0595703125
-87.890625
-81.48193359375
-83.31298828125
-73.2421875
-75.0732421875
-101.62353515625
-94.29931640625
-86.0595703125
-86.0595703125
-89.7216796875
-86.97509765625
-86.0595703125
-92.46826171875
-97.96142578125
-94.29931640625
-85.14404296875
-89.7216796875
-93.3837890625
-83.31298828125
-83.31298828125
-87.890625
-81.48193359375
-86.0595703125
-88.80615234375
-84.228515625
-85.14404296875
-81.48193359375
-81.48193359375
-87.890625
-87.890625
-97.96142578125
-96.13037109375
-95.21484375
-88.80615234375
-86.97509765625
-97.96142578125
-95.21484375
-82.3974609375
-84.228515625
-97.0458984375
-96.13037109375
-92.46826171875
-92.46826171875
-86.97509765625
-83.31298828125
-90.63720703125
-91.552734375
-96.13037109375
-95.21484375
-86.0595703125
-90.63720703125
-89.7216796875
-86.0595703125
-84.228515625
-86.97509765625
-99.79248046875
-106.201171875
-99.79248046875
-89.7216796875
-88.80615234375
-89.7216796875
-83.31298828125
-89.7216796875
-91.552734375
-94.29931640625
-86.97509765625
-80.56640625
-89.7216796875
-93.3837890625
-88.80615234375
-91.552734375
-82.3974609375
-83.31298828125
-83.31298828125
-88.80615234375
-81.48193359375
-78.7353515625
-79.65087890625
-86.97509765625
-89.7216796875
-83.31298828125
-86.97509765625
-91.552734375
-94.29931640625
-92.46826171875
-91.552734375
-91.552734375
-94.29931640625
-86.0595703125
-91.552734375
-83.31298828125
-76.904296875
-86.97509765625
-89.7216796875
-90.63720703125
-76.904296875
-78.7353515625
-86.97509765625
-88.80615234375
-92.46826171875
-96.13037109375
-91.552734375
-85.14404296875
-89.7216796875
-95.21484375
-87.890625
-85.14404296875
-87.890625
-86.97509765625
-95.21484375
-82.3974609375
-77.81982421875
-86.0595703125
-86.97509765625
-81.48193359375
-70.49560546875
-81.48193359375
-78.7353515625
-85.14404296875
-90.63720703125
-90.63720703125
-84.228515625
-82.3974609375
-84.228515625
-78.7353515625
-77.81982421875
-75.98876953125
-87.890625
-67.7490234375
-66.83349609375
-97.96142578125
-94.29931640625
-88.80615234375
-86.97509765625
-85.14404296875
-81.48193359375
-82.3974609375
-93.3837890625
-94.29931640625
-91.552734375
-86.97509765625
-89.7216796875
-92.46826171875
-86.0595703125
-77.81982421875
-75.0732421875
-75.98876953125
-101.62353515625
-92.46826171875
-85.14404296875
-76.904296875
-73.2421875
-80.56640625
-84.228515625
-90.63720703125
-87.890625
-89.7216796875
-86.97509765625
-90.63720703125
-86.97509765625
-88.80615234375
-86.97509765625
-84.228515625
-73.2421875
-69.580078125
-51.26953125
-38.4521484375
-41.19873046875
-33.87451171875
-33.87451171875
-41.19873046875
-46.69189453125
-45.7763671875
-44.86083984375
-54.931640625
-57.67822265625
-65.00244140625
-62.255859375
-69.580078125
-72.32666015625
-67.7490234375
-63.17138671875
-51.26953125
-60.4248046875
-79.65087890625
-76.904296875
-74.15771484375
-76.904296875
-81.48193359375
-77.81982421875
-82.3974609375
-91.552734375
-87.890625
-87.890625
-94.29931640625
-96.13037109375
-99.79248046875
-107.11669921875
-104.3701171875
-99.79248046875
-89.7216796875
-88.80615234375
-90.63720703125
-88.80615234375
-91.552734375
-95.21484375
-95.21484375
-94.29931640625
-87.890625
-87.890625
-93.3837890625
-92.46826171875
-97.96142578125
-91.552734375
-77.81982421875
-89.7216796875
-112.60986328125
-115.3564453125
-130.92041015625
-151.9775390625
-174.86572265625
-194.091796875
-182.18994140625
-137.3291015625
-95.21484375
-54.01611328125
8.23974609375
113.525390625
231.62841796875
352.47802734375
480.65185546875
644.53125
846.86279296875
1019.8974609375
1123.35205078125
1175.537109375
1181.94580078125
1120.60546875
994.2626953125
780.029296875
479.736328125
210.5712890625
-50.35400390625
-351.5625
-493.46923828125
-505.37109375
-482.48291015625
-455.01708984375
-434.87548828125
-383.60595703125
-327.7587890625
-281.06689453125
-235.29052734375
-193.17626953125
-152.89306640625
-118.10302734375
-90.63720703125
-76.904296875
-69.580078125
-52.18505859375
-33.87451171875
-49.4384765625
-58.59375
-49.4384765625
-45.7763671875
-43.9453125
-40.283203125
-37.53662109375
-39.36767578125
-37.53662109375
-33.87451171875
-32.04345703125
-31.1279296875
-21.05712890625
-17.39501953125
-11.90185546875
-15.56396484375
-16.4794921875
-7.32421875
-9.1552734375
-10.986328125
-6.40869140625
-12.8173828125
-9.1552734375
-0.91552734375
-3.662109375
-4.57763671875
6.40869140625
6.40869140625
-3.662109375
8.23974609375
11.90185546875
10.07080078125
20.1416015625
15.56396484375
19.22607421875
21.05712890625
22.88818359375
32.958984375
32.04345703125
33.87451171875
40.283203125
42.1142578125
54.931640625
54.931640625
35.70556640625
38.4521484375
47.607421875
53.1005859375
58.59375
62.255859375
59.50927734375
64.0869140625
74.15771484375
74.15771484375
81.48193359375
86.0595703125
96.13037109375
97.0458984375
106.201171875
111.6943359375
104.3701171875
99.79248046875
115.3564453125
119.0185546875
123.59619140625
130.92041015625
135.498046875
145.56884765625
144.6533203125
151.06201171875
157.470703125
163.87939453125
172.119140625
177.6123046875
186.767578125
190.4296875
196.83837890625
202.33154296875
216.064453125
227.05078125
232.5439453125
243.5302734375
258.1787109375
267.333984375
262.75634765625
262.75634765625
272.8271484375
281.982421875
294.7998046875
305.7861328125
311.279296875
321.35009765625
329.58984375
328.67431640625
330.50537109375
335.0830078125
329.58984375
335.0830078125
331.4208984375
337.82958984375
340.576171875
352.47802734375
353.3935546875
352.47802734375
353.3935546875
357.0556640625
364.3798828125
370.78857421875
338.7451171875
328.67431640625
334.16748046875
328.67431640625
313.1103515625
299.37744140625
302.1240234375
291.1376953125
279.23583984375
267.333984375
254.5166015625
233.45947265625
222.47314453125
213.31787109375
195.00732421875
172.119140625
156.55517578125
146.484375
132.75146484375
119.0185546875
104.3701171875
88.80615234375
83.31298828125
68.66455078125
57.67822265625
46.69189453125
32.04345703125
25.634765625
20.1416015625
14.6484375
12.8173828125
3.662109375
-6.40869140625
-11.90185546875
-20.1416015625
-25.634765625
-38.4521484375
-32.04345703125
-29.296875
-33.87451171875
-28.38134765625
-38.4521484375
-52.18505859375
-54.931640625
-51.26953125
-38.4521484375
-51.26953125
-56.7626953125
-55.84716796875
-54.931640625
-59.50927734375
-62.255859375
-62.255859375
-64.0869140625
-62.255859375
-54.931640625
-54.931640625
-46.69189453125
-54.931640625
-68.66455078125
-68.66455078125
-66.83349609375
-64.0869140625
-63.17138671875
-55.84716796875
-55.84716796875
-55.84716796875
-60.4248046875
-60.4248046875
-59.50927734375
-55.84716796875
-47.607421875
-45.7763671875
-45.7763671875
-36.62109375
-42.1142578125
-46.69189453125
-44.86083984375
-51.26953125
-45.7763671875
-45.7763671875
-43.9453125
-38.4521484375
-38.4521484375
-33.87451171875
-41.19873046875
-40.283203125
-39.36767578125
-37.53662109375
-42.1142578125
-38.4521484375
-35.70556640625
-39.36767578125
-42.1142578125
-32.958984375
-31.1279296875
-30.21240234375
-32.958984375
-39.36767578125
-39.36767578125
-27.4658203125
-30.21240234375
-36.62109375
-32.958984375
-44.86083984375
-39.36767578125
-36.62109375
-43.02978515625
-40.283203125
-43.9453125
-43.9453125
-43.02978515625
-43.9453125
-45.7763671875
-50.35400390625
-52.18505859375
-51.26953125
-53.1005859375
-54.931640625
-50.35400390625
-53.1005859375
-54.01611328125
-55.84716796875
-60.4248046875
-62.255859375
-62.255859375
-59.50927734375
-55.84716796875
-56.7626953125
-59.50927734375
-65.00244140625
-58.59375
-34.7900390625
-42.1142578125
-50.35400390625
-52.18505859375
-43.9453125
-53.1005859375
-62.255859375
-65.91796875
-55.84716796875
-54.931640625
-58.59375
-62.255859375
-62.255859375
-65.00244140625
-68.66455078125
-61.34033203125
-60.4248046875
-70.49560546875
-75.0732421875
-79.65087890625
-69.580078125
-72.32666015625
-79.65087890625
-73.2421875
-80.56640625
-86.0595703125
-78.7353515625
-75.0732421875
-78.7353515625
-75.98876953125
-78.7353515625
-79.65087890625
-86.0595703125
-78.7353515625
-81.48193359375
-78.7353515625
-65.00244140625
-79.65087890625
-84.228515625
-83.31298828125
-88.80615234375
-79.65087890625
-78.7353515625
-80.56640625
-80.56640625
-79.65087890625
-74.15771484375
-75.98876953125
-77.81982421875
-70.49560546875
-68.66455078125
-78.7353515625
-85.14404296875
-77.81982421875
-81.48193359375
-94.29931640625
-86.97509765625
-75.0732421875
-78.7353515625
-76.904296875
-68.66455078125
-56.7626953125
-73.2421875
-81.48193359375
-75.98876953125
-72.32666015625
-73.2421875
-76.904296875
-75.98876953125
-73.2421875
-75.0732421875
-78.7353515625
-83.31298828125
-86.97509765625
-81.48193359375
-84.228515625
-87.890625
-87.890625
-81.48193359375
-82.3974609375
-81.48193359375
-85.14404296875
-88.80615234375
-89.7216796875
-91.552734375
-91.552734375
-88.80615234375
-90.63720703125
-91.552734375
-88.80615234375
-91.552734375
-80.56640625
-80.56640625
-86.97509765625
-87.890625
-87.890625
-85.14404296875
-85.14404296875
-83.31298828125
-78.7353515625
-75.98876953125
-80.56640625
-86.97509765625
-90.63720703125
-86.97509765625
-89.7216796875
-88.80615234375
-86.97509765625
-86.0595703125
-84.228515625
-84.228515625
-82.3974609375
-85.14404296875
-85.14404296875
-75.0732421875
-61.34033203125
-87.890625
-93.3837890625
-89.7216796875
-89.7216796875
-91.552734375
-81.48193359375
-84.228515625
-82.3974609375
-81.48193359375
-86.97509765625
-80.56640625
-78.7353515625
-82.3974609375
-86.0595703125
-84.228515625
-80.56640625
-86.97509765625
-93.3837890625
-87.890625
-84.228515625
-88.80615234375
-90.63720703125
-86.97509765625
-83.31298828125
-78.7353515625
-82.3974609375
-81.48193359375
-81.48193359375
-82.3974609375
-86.97509765625
-88.80615234375
-90.63720703125
-88.80615234375
-80.56640625
-75.98876953125
-78.7353515625
-80.56640625
-83.31298828125
-78.7353515625
-74.15771484375
-80.56640625
-86.0595703125
-86.97509765625
-79.65087890625
-79.65087890625
-86.97509765625
-90.63720703125
-80.56640625
-85.14404296875
-83.31298828125
-82.3974609375
-86.0595703125
-81.48193359375
-86.97509765625
-84.228515625
-88.80615234375
-93.3837890625
-90.63720703125
-79.65087890625
-80.56640625
-83.31298828125
-82.3974609375
-86.0595703125
-84.228515625
-89.7216796875
-88.80615234375
-88.80615234375
-79.65087890625
-79.65087890625
-75.0732421875
-77.81982421875
-92.46826171875
-86.97509765625
-86.0595703125
-87.890625
-88.80615234375
-82.3974609375
-84.228515625
-87.890625
-87.890625
-85.14404296875
-75.98876953125
-73.2421875
-66.83349609375
-69.580078125
-69.580078125
-70.49560546875
-80.56640625
-77.81982421875
-87.890625
-83.31298828125
-90.63720703125
-82.3974609375
-84.228515625
-92.46826171875
-89.7216796875
-75.0732421875
-58.59375
-46.69189453125
-36.62109375
-42.1142578125
-55.84716796875
-57.67822265625
-50.35400390625
-45.7763671875
-43.9453125
-44.86083984375
-55.84716796875
-60.4248046875
-55.84716796875
-58.59375
-54.01611328125
-58.59375
-83.31298828125
-77.81982421875
-70.49560546875
-86.0595703125
-89.7216796875
-86.0595703125
-75.98876953125
-74.15771484375
-73.2421875
-80.56640625
-85.14404296875
-82.3974609375
-74.15771484375
-79.65087890625
-84.228515625
-88.80615234375
-95.21484375
-101.62353515625
-100.7080078125
-94.29931640625
-97.96142578125
-100.7080078125
-96.13037109375
-91.552734375
-92.46826171875
-102.5390625
-109.86328125
-101.62353515625
-91.552734375
-90.63720703125
-96.13037109375
-100.7080078125
-98.876953125
-95.21484375
-94.29931640625
-97.0458984375
-100.7080078125
-111.6943359375
-132.75146484375
-155.6396484375
-183.10546875
-188.5986328125
-171.20361328125
-130.0048828125
-94.29931640625
-56.7626953125
23.8037109375
122.6806640625
219.7265625
347.900390625
486.14501953125
640.869140625
833.1298828125
1007.080078125
1109.619140625
1168.212890625
1169.12841796875
1098.6328125
976.86767578125
774.5361328125
467.83447265625
203.2470703125
-64.0869140625
-359.80224609375
-493.46923828125
-500.79345703125
-464.17236328125
-430.2978515625
-415.6494140625
-367.12646484375
-325.01220703125
-299.37744140625
-261.8408203125
-212.40234375
-165.71044921875
-130.92041015625
-107.11669921875
-91.552734375
-79.65087890625
-59.50927734375
-54.01611328125
-55.84716796875
-61.34033203125
-55.84716796875
-51.26953125
-48.52294921875
-46.69189453125
-43.9453125
-43.02978515625
-43.02978515625
-37.53662109375
-29.296875
-36.62109375
-22.88818359375
-21.05712890625
-26.55029296875
-30.21240234375
-27.4658203125
-24.71923828125
-17.39501953125
-14.6484375
-10.07080078125
0.91552734375
6.40869140625
-3.662109375
0.91552734375
-3.662109375
0
-0.91552734375
-2.74658203125
2.74658203125
0.91552734375
7.32421875
5.4931640625
9.1552734375
9.1552734375
15.56396484375
14.6484375
20.1416015625
28.38134765625
32.958984375
37.53662109375
35.70556640625
39.36767578125
46.69189453125
48.52294921875
49.4384765625
48.52294921875
46.69189453125
55.84716796875
62.255859375
57.67822265625
63.17138671875
66.83349609375
75.98876953125
73.2421875
66.83349609375
79.65087890625
86.97509765625
89.7216796875
90.63720703125
92.46826171875
96.13037109375
99.79248046875
107.11669921875
111.6943359375
122.6806640625
129.08935546875
133.6669921875
140.9912109375
152.89306640625
154.72412109375
156.55517578125
161.1328125
173.03466796875
180.35888671875
189.51416015625
194.091796875
200.50048828125
209.65576171875
222.47314453125
236.2060546875
241.69921875
250.8544921875
250.8544921875
256.34765625
266.41845703125
272.8271484375
282.89794921875
292.96875
301.20849609375
303.955078125
307.6171875
314.94140625
324.0966796875
328.67431640625
327.7587890625
329.58984375
334.16748046875
347.900390625
338.7451171875
346.0693359375
346.0693359375
341.49169921875
337.82958984375
342.4072265625
347.900390625
351.5625
351.5625
346.98486328125
336.9140625
324.0966796875
317.68798828125
312.19482421875
303.03955078125
292.05322265625
281.982421875
269.1650390625
263.671875
245.361328125
231.62841796875
216.064453125
203.2470703125
188.5986328125
177.6123046875
165.71044921875
132.75146484375
121.76513671875
120.849609375
109.86328125
85.14404296875
72.32666015625
69.580078125
53.1005859375
45.7763671875
43.02978515625
31.1279296875
19.22607421875
15.56396484375
8.23974609375
-1.8310546875
-21.05712890625
-19.22607421875
-25.634765625
-32.04345703125
-35.70556640625
-38.4521484375
-41.19873046875
-44.86083984375
-43.9453125
-41.19873046875
-43.9453125
-43.9453125
-54.931640625
-63.17138671875
-65.91796875
-65.00244140625
-64.0869140625
-70.49560546875
-65.00244140625
-56.7626953125
-60.4248046875
-68.66455078125
-58.59375
-60.4248046875
-66.83349609375
-67.7490234375
-71.4111328125
-59.50927734375
-65.00244140625
-72.32666015625
-74.15771484375
-70.49560546875
-67.7490234375
-65.00244140625
-63.17138671875
-58.59375
-64.0869140625
-65.00244140625
-64.0869140625
-56.7626953125
-59.50927734375
-63.17138671875
-65.91796875
-65.00244140625
-62.255859375
-52.18505859375
-56.7626953125
-56.7626953125
-57.67822265625
-53.1005859375
-54.01611328125
-54.931640625
-54.931640625
-51.26953125
-52.18505859375
-49.4384765625
-53.1005859375
-54.01611328125
-47.607421875
-40.283203125
-44.86083984375
-37.53662109375
-48.52294921875
-43.9453125
-45.7763671875
-43.9453125
-43.9453125
-44.86083984375
-48.52294921875
-48.52294921875
-47.607421875
-41.19873046875
-40.283203125
-43.9453125
-46.69189453125
-52.18505859375
-48.52294921875
-41.19873046875
-44.86083984375
-57.67822265625
-54.01611328125
-51.26953125
-57.67822265625
-54.931640625
-44.86083984375
-52.18505859375
-54.931640625
-59.50927734375
-54.01611328125
-60.4248046875
-57.67822265625
-54.931640625
-57.67822265625
-59.50927734375
-62.255859375
-65.00244140625
-67.7490234375
-72.32666015625
-74.15771484375
-69.580078125
-70.49560546875
-65.00244140625
-65.91796875
-60.4248046875
-58.59375
-54.931640625
-70.49560546875
-77.81982421875
-77.81982421875
-76.904296875
-75.0732421875
-69.580078125
-68.66455078125
-59.50927734375
-68.66455078125
-68.66455078125
-70.49560546875
-72.32666015625
-72.32666015625
-78.7353515625
-75.98876953125
-75.0732421875
-82.3974609375
-75.0732421875
-78.7353515625
-76.904296875
-75.98876953125
-75.0732421875
-78.7353515625
-74.15771484375
-80.56640625
-82.3974609375
-86.0595703125
-86.97509765625
-82.3974609375
-80.56640625
-76.904296875
-84.228515625
-80.56640625
-76.904296875
-92.46826171875
-92.46826171875
-86.0595703125
-79.65087890625
-78.7353515625
-81.48193359375
-88.80615234375
-86.97509765625
-95.21484375
-94.29931640625
-88.80615234375
-87.890625
-86.97509765625
-90.63720703125
-86.97509765625
-74.15771484375
-86.97509765625
-99.79248046875
-107.11669921875
-88.80615234375
-92.46826171875
-91.552734375
-83.31298828125
-88.80615234375
-88.80615234375
-78.7353515625
-80.56640625
-83.31298828125
-86.97509765625
-84.228515625
-78.7353515625
-86.0595703125
-82.3974609375
-83.31298828125
-94.29931640625
-92.46826171875
-99.79248046875
-95.21484375
-91.552734375
-93.3837890625
-87.890625
-85.14404296875
-74.15771484375
-90.63720703125
-86.97509765625
-86.0595703125
-89.7216796875
-97.0458984375
-96.13037109375
-91.552734375
-92.46826171875
-100.7080078125
-98.876953125
-87.890625
-86.97509765625
-86.0595703125
-87.890625
-91.552734375
-96.13037109375
-100.7080078125
-98.876953125
-94.29931640625
-93.3837890625
-97.0458984375
-98.876953125
-91.552734375
-95.21484375
-95.21484375
-92.46826171875
-98.876953125
-99.79248046875
-103.45458984375
-97.96142578125
-96.13037109375
-88.80615234375
-91.552734375
-97.0458984375
-97.0458984375
-91.552734375
-97.96142578125
-99.79248046875
-90.63720703125
-92.46826171875
-97.96142578125
-87.890625
-82.3974609375
-86.97509765625
-89.7216796875
-91.552734375
-95.21484375
-88.80615234375
-97.0458984375
-103.45458984375
-100.7080078125
-99.79248046875
-97.0458984375
-97.96142578125
-95.21484375
-99.79248046875
-93.3837890625
-97.0458984375
-97.0458984375
-90.63720703125
-95.21484375
-98.876953125
-97.96142578125
-94.29931640625
-91.552734375
-88.80615234375
-92.46826171875
-78.7353515625
-90.63720703125
-109.86328125
-108.94775390625
-92.46826171875
-95.21484375
-96.13037109375
-95.21484375
-91.552734375
-92.46826171875
-86.97509765625
-90.63720703125
-95.21484375
-90.63720703125
-88.80615234375
-91.552734375
-96.13037109375
-87.890625
-76.904296875
-90.63720703125
-89.7216796875
-82.3974609375
-89.7216796875
-97.0458984375
-91.552734375
-90.63720703125
-89.7216796875
-97.96142578125
-99.79248046875
-92.46826171875
-85.14404296875
-91.552734375
-97.96142578125
-86.97509765625
-71.4111328125
-58.59375
-52.18505859375
-49.4384765625
-49.4384765625
-47.607421875
-42.1142578125
-47.607421875
-47.607421875
-41.19873046875
-53.1005859375
