ECG
-79.65087890625
-68.66455078125
-51.26953125
-55.84716796875
-52.18505859375
-37.53662109375
-39.36767578125
-27.4658203125
-22.88818359375
-13.73291015625
-7.32421875
-4.57763671875
7.32421875
15.56396484375
17.39501953125
34.7900390625
62.255859375
55.84716796875
56.7626953125
67.7490234375
86.0595703125
91.552734375
106.201171875
109.86328125
109.86328125
125.42724609375
132.75146484375
129.08935546875
135.498046875
144.6533203125
149.23095703125
155.6396484375
166.6259765625
170.2880859375
171.20361328125
169.37255859375
172.119140625
173.9501953125
166.6259765625
173.03466796875
169.37255859375
175.78125
163.87939453125
155.6396484375
153.80859375
151.9775390625
151.06201171875
155.6396484375
139.16015625
138.24462890625
118.10302734375
106.201171875
95.21484375
85.14404296875
63.17138671875
54.01611328125
45.7763671875
25.634765625
14.6484375
-3.662109375
-10.07080078125
-16.4794921875
-29.296875
-77.81982421875
-87.890625
-83.31298828125
-106.201171875
-123.59619140625
-140.07568359375
-152.89306640625
-151.9775390625
-147.39990234375
-169.37255859375
-176.69677734375
-185.85205078125
-176.69677734375
-186.767578125
-195.9228515625
-205.99365234375
-209.65576171875
-217.8955078125
-224.30419921875
-236.2060546875
-240.78369140625
-227.05078125
-238.037109375
-238.037109375
-236.2060546875
-244.44580078125
-247.1923828125
-243.5302734375
-241.69921875
-246.27685546875
-254.5166015625
-250.8544921875
-243.5302734375
-239.8681640625
-236.2060546875
-242.61474609375
-258.1787109375
-253.60107421875
-251.77001953125
-248.10791015625
-244.44580078125
-243.5302734375
-246.27685546875
-249.93896484375
-246.27685546875
-250.8544921875
-247.1923828125
-241.69921875
-237.12158203125
-243.5302734375
-246.27685546875
-232.5439453125
-216.064453125
-238.95263671875
-270.99609375
-237.12158203125
-237.12158203125
-234.375
-234.375
-234.375
-229.79736328125
-226.13525390625
-229.79736328125
-229.79736328125
-236.2060546875
-237.12158203125
-230.712890625
-223.388671875
-216.97998046875
-225.2197265625
-223.388671875
-214.2333984375
-217.8955078125
-222.47314453125
-224.30419921875
-220.64208984375
-224.30419921875
-211.48681640625
-231.62841796875
-235.29052734375
-224.30419921875
-209.65576171875
-218.81103515625
-222.47314453125
-230.712890625
-227.05078125
-227.96630859375
-220.64208984375
-221.5576171875
-230.712890625
-229.79736328125
-227.05078125
-231.62841796875
-227.96630859375
-210.5712890625
-226.13525390625
-249.0234375
-238.95263671875
-237.12158203125
-243.5302734375
-241.69921875
-241.69921875
-243.5302734375
-244.44580078125
-244.44580078125
-239.8681640625
-235.29052734375
-244.44580078125
-247.1923828125
-244.44580078125
-245.361328125
-236.2060546875
-251.77001953125
-249.93896484375
-250.8544921875
-247.1923828125
-247.1923828125
-228.8818359375
-238.95263671875
-235.29052734375
-240.78369140625
-254.5166015625
-258.1787109375
-256.34765625
-250.8544921875
-249.93896484375
-249.93896484375
-254.5166015625
-252.685546875
-249.93896484375
-244.44580078125
-248.10791015625
-248.10791015625
-250.8544921875
-258.1787109375
-258.1787109375
-260.92529296875
-251.77001953125
-260.009765625
-261.8408203125
-260.92529296875
-254.5166015625
-259.09423828125
-258.1787109375
-253.60107421875
-244.44580078125
-260.92529296875
-256.34765625
-261.8408203125
-263.671875
-258.1787109375
-266.41845703125
-260.92529296875
-262.75634765625
-273.74267578125
-278.3203125
-266.41845703125
-261.8408203125
-257.26318359375
-247.1923828125
-251.77001953125
-256.34765625
-257.26318359375
-256.34765625
-253.60107421875
-253.60107421875
-258.1787109375
-268.24951171875
-260.009765625
-256.34765625
-260.92529296875
-254.5166015625
-261.8408203125
-254.5166015625
-249.0234375
-242.61474609375
-260.92529296875
-275.57373046875
-260.009765625
-253.60107421875
-268.24951171875
-254.5166015625
-247.1923828125
-255.43212890625
-256.34765625
-256.34765625
-248.10791015625
-253.60107421875
-260.92529296875
-261.8408203125
-257.26318359375
-263.671875
-267.333984375
-253.60107421875
-251.77001953125
-259.09423828125
-259.09423828125
-255.43212890625
-255.43212890625
-262.75634765625
-268.24951171875
-267.333984375
-264.58740234375
-270.08056640625
-268.24951171875
-267.333984375
-264.58740234375
-260.009765625
-262.75634765625
-260.92529296875
-264.58740234375
-271.91162109375
-268.24951171875
-259.09423828125
-255.43212890625
-262.75634765625
-248.10791015625
-265.5029296875
-263.671875
-254.5166015625
-257.26318359375
-263.671875
-262.75634765625
-263.671875
-263.671875
-270.08056640625
-264.58740234375
-260.92529296875
-261.8408203125
-263.671875
-262.75634765625
-263.671875
-245.361328125
-247.1923828125
-275.57373046875
-277.40478515625
-274.658203125
-270.08056640625
-259.09423828125
-261.8408203125
-269.1650390625
-266.41845703125
-273.74267578125
-261.8408203125
-264.58740234375
-269.1650390625
-271.91162109375
-264.58740234375
-253.60107421875
-266.41845703125
-260.92529296875
-255.43212890625
-255.43212890625
-256.34765625
-255.43212890625
-250.8544921875
-260.009765625
-256.34765625
-244.44580078125
-252.685546875
-269.1650390625
-260.009765625
-254.5166015625
-257.26318359375
-255.43212890625
-254.5166015625
-260.009765625
-261.8408203125
-266.41845703125
-261.8408203125
-261.8408203125
-251.77001953125
-239.8681640625
-259.09423828125
-266.41845703125
-259.09423828125
-270.99609375
-263.671875
-259.09423828125
-262.75634765625
-264.58740234375
-262.75634765625
-260.009765625
-261.8408203125
-262.75634765625
-260.92529296875
-252.685546875
-243.5302734375
-262.75634765625
-265.5029296875
-264.58740234375
-265.5029296875
-262.75634765625
-262.75634765625
-260.92529296875
-263.671875
-266.41845703125
-269.1650390625
-263.671875
-258.1787109375
-241.69921875
-240.78369140625
-244.44580078125
-249.93896484375
-251.77001953125
-247.1923828125
-243.5302734375
-249.0234375
-259.09423828125
-258.1787109375
-252.685546875
-252.685546875
-256.34765625
-257.26318359375
-244.44580078125
-231.62841796875
-200.50048828125
-222.47314453125
-232.5439453125
-218.81103515625
-223.388671875
-218.81103515625
-218.81103515625
-217.8955078125
-217.8955078125
-220.64208984375
-215.14892578125
-228.8818359375
-237.12158203125
-229.79736328125
-237.12158203125
-246.27685546875
-242.61474609375
-232.5439453125
-240.78369140625
-262.75634765625
-276.4892578125
-252.685546875
-241.69921875
-249.93896484375
-251.77001953125
-255.43212890625
-261.8408203125
-258.1787109375
-255.43212890625
-257.26318359375
-262.75634765625
-264.58740234375
-260.92529296875
-249.0234375
-267.333984375
-280.1513671875
-280.1513671875
-272.8271484375
-261.8408203125
-261.8408203125
-265.5029296875
-258.1787109375
-282.89794921875
-252.685546875
-238.037109375
-260.92529296875
-270.08056640625
-272.8271484375
-270.99609375
-274.658203125
-260.92529296875
-273.74267578125
-297.54638671875
-318.603515625
-343.32275390625
-352.47802734375
-355.224609375
-326.84326171875
-285.64453125
-251.77001953125
-198.66943359375
-102.5390625
12.8173828125
139.16015625
270.08056640625
404.6630859375
602.4169921875
791.93115234375
899.0478515625
976.86767578125
1025.390625
1003.41796875
926.513671875
804.74853515625
563.04931640625
247.1923828125
-17.39501953125
-346.98486328125
-623.47412109375
-661.92626953125
-649.10888671875
-626.220703125
-597.83935546875
-573.1201171875
-537.41455078125
-487.97607421875
-455.9326171875
-408.3251953125
-354.30908203125
-338.7451171875
-308.53271484375
-270.08056640625
-244.44580078125
-234.375
-227.05078125
-224.30419921875
-225.2197265625
-225.2197265625
-223.388671875
-216.97998046875
-218.81103515625
-212.40234375
-206.9091796875
-203.2470703125
-199.5849609375
-197.75390625
-199.5849609375
-203.2470703125
-196.83837890625
-199.5849609375
-190.4296875
-195.9228515625
-200.50048828125
-186.767578125
-184.02099609375
-198.66943359375
-194.091796875
-185.85205078125
-178.52783203125
-177.6123046875
-170.2880859375
-173.03466796875
-173.9501953125
-162.04833984375
-167.54150390625
-158.38623046875
-149.23095703125
-157.470703125
-164.794921875
-154.72412109375
-140.9912109375
-139.16015625
-136.41357421875
-134.58251953125
-139.16015625
-130.0048828125
-122.6806640625
-119.0185546875
-119.0185546875
-116.27197265625
-115.3564453125
-116.27197265625
-109.86328125
-109.86328125
-111.6943359375
-103.45458984375
-94.29931640625
-93.3837890625
-96.13037109375
-97.0458984375
-87.890625
-78.7353515625
-77.81982421875
-74.15771484375
-65.91796875
-64.0869140625
-63.17138671875
-60.4248046875
-57.67822265625
-41.19873046875
-33.87451171875
-37.53662109375
-41.19873046875
-30.21240234375
-26.55029296875
-19.22607421875
-18.310546875
-5.4931640625
2.74658203125
7.32421875
17.39501953125
27.4658203125
27.4658203125
34.7900390625
41.19873046875
62.255859375
73.2421875
81.48193359375
86.0595703125
96.13037109375
101.62353515625
111.6943359375
119.93408203125
129.08935546875
135.498046875
147.39990234375
153.80859375
159.3017578125
163.87939453125
169.37255859375
170.2880859375
172.119140625
178.52783203125
190.4296875
194.091796875
195.00732421875
195.9228515625
195.9228515625
194.091796875
202.33154296875
204.16259765625
194.091796875
193.17626953125
197.75390625
206.9091796875
190.4296875
178.52783203125
169.37255859375
159.3017578125
150.146484375
138.24462890625
127.25830078125
115.3564453125
104.3701171875
89.7216796875
71.4111328125
54.01611328125
34.7900390625
27.4658203125
4.57763671875
-1.8310546875
-18.310546875
-25.634765625
-32.958984375
-45.7763671875
-79.65087890625
-97.96142578125
-100.7080078125
-113.525390625
-124.51171875
-124.51171875
-139.16015625
-154.72412109375
-159.3017578125
-166.6259765625
-165.71044921875
-170.2880859375
-171.20361328125
-183.10546875
-195.00732421875
-199.5849609375
-195.9228515625
-201.416015625
-207.82470703125
-206.9091796875
-209.65576171875
-211.48681640625
-216.97998046875
-220.64208984375
-229.79736328125
-236.2060546875
-231.62841796875
-227.96630859375
-225.2197265625
-214.2333984375
-226.13525390625
-224.30419921875
-230.712890625
-224.30419921875
-227.05078125
-231.62841796875
-227.96630859375
-227.05078125
-225.2197265625
-223.388671875
-226.13525390625
-224.30419921875
-226.13525390625
-226.13525390625
-220.64208984375
-221.5576171875
-224.30419921875
-222.47314453125
-219.7265625
-216.97998046875
-218.81103515625
-235.29052734375
-222.47314453125
-214.2333984375
-215.14892578125
-211.48681640625
-217.8955078125
-218.81103515625
-218.81103515625
-207.82470703125
-201.416015625
-201.416015625
-209.65576171875
-200.50048828125
-195.00732421875
-215.14892578125
-214.2333984375
-217.8955078125
-214.2333984375
-205.078125
-205.078125
-199.5849609375
-200.50048828125
-204.16259765625
-199.5849609375
-200.50048828125
-201.416015625
-207.82470703125
-206.9091796875
-190.4296875
-205.078125
-234.375
-206.9091796875
-199.5849609375
-205.078125
-196.83837890625
-200.50048828125
-193.17626953125
-200.50048828125
-207.82470703125
-206.9091796875
-207.82470703125
-202.33154296875
-206.9091796875
-207.82470703125
-209.65576171875
-211.48681640625
-215.14892578125
-219.7265625
-216.064453125
-215.14892578125
-219.7265625
-227.96630859375
-221.5576171875
-212.40234375
-216.97998046875
-216.97998046875
-219.7265625
-217.8955078125
-213.31787109375
-219.7265625
-220.64208984375
-215.14892578125
-218.81103515625
-207.82470703125
-208.740234375
-220.64208984375
-225.2197265625
-227.05078125
-224.30419921875
-221.5576171875
-223.388671875
-229.79736328125
-232.5439453125
-227.96630859375
-225.2197265625
-229.79736328125
-229.79736328125
-225.2197265625
-229.79736328125
-226.13525390625
-235.29052734375
-232.5439453125
-228.8818359375
-231.62841796875
-230.712890625
-227.05078125
-224.30419921875
-236.2060546875
-236.2060546875
-236.2060546875
-228.8818359375
-234.375
-231.62841796875
-234.375
-238.037109375
-241.69921875
-240.78369140625
-235.29052734375
-233.45947265625
-231.62841796875
-235.29052734375
-248.10791015625
-243.5302734375
-239.8681640625
-235.29052734375
-232.5439453125
-233.45947265625
-236.2060546875
-231.62841796875
-236.2060546875
-240.78369140625
-239.8681640625
-233.45947265625
-216.97998046875
-224.30419921875
-239.8681640625
-235.29052734375
-234.375
-251.77001953125
-253.60107421875
-244.44580078125
-240.78369140625
-237.12158203125
-236.2060546875
-237.12158203125
-240.78369140625
-245.361328125
-243.5302734375
-229.79736328125
-231.62841796875
-234.375
-237.12158203125
-235.29052734375
-244.44580078125
-242.61474609375
-241.69921875
-248.10791015625
-241.69921875
-245.361328125
-245.361328125
-234.375
-241.69921875
-254.5166015625
-247.1923828125
-244.44580078125
-240.78369140625
-242.61474609375
-248.10791015625
-250.8544921875
-246.27685546875
-244.44580078125
-243.5302734375
-238.037109375
-246.27685546875
-241.69921875
-233.45947265625
-231.62841796875
-249.93896484375
-248.10791015625
-241.69921875
-240.78369140625
-249.0234375
-242.61474609375
-238.037109375
-251.77001953125
-260.009765625
-263.671875
-247.1923828125
-240.78369140625
-243.5302734375
-237.12158203125
-240.78369140625
-244.44580078125
-237.12158203125
-227.05078125
-236.2060546875
-249.93896484375
-247.1923828125
-250.8544921875
-249.0234375
-246.27685546875
-238.95263671875
-243.5302734375
-246.27685546875
-243.5302734375
-248.10791015625
-256.34765625
-251.77001953125
-252.685546875
-254.5166015625
-246.27685546875
-244.44580078125
-246.27685546875
-249.0234375
-252.685546875
-253.60107421875
-252.685546875
-254.5166015625
-244.44580078125
-238.95263671875
-246.27685546875
-235.29052734375
-251.77001953125
-241.69921875
-247.1923828125
-250.8544921875
-243.5302734375
-247.1923828125
-243.5302734375
-248.10791015625
-252.685546875
-254.5166015625
-247.1923828125
-255.43212890625
-239.8681640625
-232.5439453125
-251.77001953125
-249.93896484375
-248.10791015625
-241.69921875
-258.1787109375
-254.5166015625
-256.34765625
-253.60107421875
-249.0234375
-239.8681640625
-243.5302734375
-245.361328125
-244.44580078125
-245.361328125
-249.0234375
-244.44580078125
-242.61474609375
-248.10791015625
-249.93896484375
-255.43212890625
-246.27685546875
-236.2060546875
-256.34765625
-251.77001953125
-249.93896484375
-243.5302734375
-241.69921875
-245.361328125
-242.61474609375
-244.44580078125
-250.8544921875
-245.361328125
-242.61474609375
-248.10791015625
-249.0234375
-255.43212890625
-244.44580078125
-235.29052734375
-246.27685546875
-253.60107421875
-243.5302734375
-236.2060546875
-248.10791015625
-254.5166015625
-239.8681640625
-238.037109375
-242.61474609375
-233.45947265625
-244.44580078125
-249.0234375
-246.27685546875
-246.27685546875
-236.2060546875
-239.8681640625
-233.45947265625
-230.712890625
-226.13525390625
-234.375
-253.60107421875
-243.5302734375
-241.69921875
-238.037109375
-244.44580078125
-249.93896484375
-244.44580078125
-238.95263671875
-247.1923828125
-238.95263671875
-236.2060546875
-222.47314453125
-208.740234375
-198.66943359375
-199.5849609375
-197.75390625
-192.2607421875
-191.34521484375
-220.64208984375
-218.81103515625
-212.40234375
-213.31787109375
-213.31787109375
-216.064453125
-222.47314453125
-225.2197265625
-229.79736328125
-234.375
-231.62841796875
-221.5576171875
-223.388671875
-227.96630859375
-234.375
-225.2197265625
-226.13525390625
-236.2060546875
-240.78369140625
-247.1923828125
-244.44580078125
-249.0234375
-244.44580078125
-244.44580078125
-250.8544921875
-254.5166015625
-256.34765625
-250.8544921875
-259.09423828125
-260.92529296875
-260.009765625
-253.60107421875
-247.1923828125
-247.1923828125
-252.685546875
-269.1650390625
-260.009765625
-250.8544921875
-255.43212890625
-254.5166015625
-259.09423828125
-260.92529296875
-259.09423828125
-254.5166015625
-265.5029296875
-278.3203125
-293.88427734375
-311.279296875
-321.35009765625
-326.84326171875
-317.68798828125
-278.3203125
-227.96630859375
-205.078125
-157.470703125
-55.84716796875
57.67822265625
168.45703125
308.53271484375
454.1015625
645.44677734375
823.05908203125
920.10498046875
997.00927734375
1019.8974609375
980.52978515625
895.3857421875
705.87158203125
444.9462890625
160.21728515625
-83.31298828125
-399.169921875
-613.4033203125
-660.09521484375
-638.12255859375
-606.0791015625
-581.35986328125
-540.1611328125
-493.46923828125
-449.52392578125
-403.74755859375
-379.94384765625
-333.251953125
-291.1376953125
-264.58740234375
-252.685546875
-233.45947265625
-222.47314453125
-209.65576171875
-201.416015625
-219.7265625
-212.40234375
-209.65576171875
-210.5712890625
-202.33154296875
-198.66943359375
-204.16259765625
-204.16259765625
-192.2607421875
-194.091796875
-192.2607421875
-189.51416015625
-185.85205078125
-186.767578125
-171.20361328125
-166.6259765625
-168.45703125
-174.86572265625
-159.3017578125
-163.87939453125
-157.470703125
-157.470703125
-168.45703125
-173.03466796875
-173.9501953125
-165.71044921875
-157.470703125
-147.39990234375
-146.484375
-149.23095703125
-143.73779296875
-146.484375
-143.73779296875
-136.41357421875
-132.75146484375
-134.58251953125
-132.75146484375
-130.92041015625
-120.849609375
-118.10302734375
-113.525390625
-113.525390625
-119.0185546875
-134.58251953125
-124.51171875
-109.86328125
-112.60986328125
-105.28564453125
-99.79248046875
-97.96142578125
-93.3837890625
-86.97509765625
-90.63720703125
-97.0458984375
-93.3837890625
-75.0732421875
-65.91796875
-57.67822265625
-64.0869140625
-62.255859375
-60.4248046875
-57.67822265625
-52.18505859375
-44.86083984375
-45.7763671875
-31.1279296875
-19.22607421875
-17.39501953125
-17.39501953125
-10.986328125
2.74658203125
4.57763671875
18.310546875
25.634765625
27.4658203125
41.19873046875
43.02978515625
49.4384765625
62.255859375
67.7490234375
88.80615234375
85.14404296875
86.0595703125
99.79248046875
107.11669921875
108.94775390625
133.6669921875
137.3291015625
140.07568359375
146.484375
153.80859375
162.04833984375
167.54150390625
172.119140625
174.86572265625
180.35888671875
168.45703125
172.119140625
189.51416015625
196.83837890625
186.767578125
184.9365234375
197.75390625
192.2607421875
187.68310546875
182.18994140625
190.4296875
190.4296875
193.17626953125
193.17626953125
180.35888671875
173.03466796875
167.54150390625
155.6396484375
139.16015625
129.08935546875
125.42724609375
111.6943359375
96.13037109375
88.80615234375
71.4111328125
55.84716796875
32.958984375
20.1416015625
0.91552734375
-13.73291015625
-21.97265625
-33.87451171875
-37.53662109375
-45.7763671875
-81.48193359375
-88.80615234375
-95.21484375
-102.5390625
-112.60986328125
-128.173828125
-135.498046875
-148.3154296875
-151.9775390625
-156.55517578125
-152.89306640625
-162.04833984375
-174.86572265625
-173.9501953125
-176.69677734375
-185.85205078125
-193.17626953125
-189.51416015625
-191.34521484375
-203.2470703125
-203.2470703125
-190.4296875
-200.50048828125
-204.16259765625
-200.50048828125
-191.34521484375
-205.078125
-227.05078125
-216.064453125
-216.97998046875
-218.81103515625
-211.48681640625
-205.99365234375
-215.14892578125
-201.416015625
-202.33154296875
-209.65576171875
-201.416015625
-202.33154296875
-209.65576171875
-209.65576171875
-201.416015625
-202.33154296875
-205.078125
-205.99365234375
-205.99365234375
-204.16259765625
-197.75390625
-204.16259765625
-199.5849609375
-195.00732421875
-200.50048828125
-197.75390625
-194.091796875
-188.5986328125
-182.18994140625
-186.767578125
-193.17626953125
-191.34521484375
-191.34521484375
-192.2607421875
-205.078125
-184.02099609375
-178.52783203125
-192.2607421875
-191.34521484375
-194.091796875
-195.9228515625
-187.68310546875
-183.10546875
-191.34521484375
-199.5849609375
-194.091796875
-186.767578125
-183.10546875
-184.9365234375
-185.85205078125
-186.767578125
-184.02099609375
-180.35888671875
-187.68310546875
-190.4296875
-190.4296875
-195.9228515625
-195.9228515625
-184.02099609375
-185.85205078125
-194.091796875
-194.091796875
-183.10546875
-185.85205078125
-189.51416015625
-195.00732421875
-192.2607421875
-179.443359375
-174.86572265625
-184.02099609375
-189.51416015625
-190.4296875
-188.5986328125
-189.51416015625
-186.767578125
-190.4296875
-198.66943359375
-198.66943359375
-193.17626953125
-196.83837890625
-199.5849609375
-200.50048828125
-204.16259765625
-204.16259765625
-207.82470703125
-198.66943359375
-205.99365234375
-198.66943359375
-184.9365234375
-206.9091796875
-216.97998046875
-215.14892578125
-211.48681640625
-207.82470703125
-214.2333984375
-221.5576171875
-211.48681640625
-211.48681640625
-216.97998046875
-216.064453125
-215.14892578125
-220.64208984375
-227.05078125
-213.31787109375
-210.5712890625
-214.2333984375
-215.14892578125
-211.48681640625
-205.99365234375
-211.48681640625
-216.064453125
-213.31787109375
-208.740234375
-200.50048828125
-213.31787109375
-218.81103515625
-216.97998046875
-219.7265625
-227.96630859375
-225.2197265625
-218.81103515625
-222.47314453125
-219.7265625
-216.064453125
-221.5576171875
-229.79736328125
-226.13525390625
-209.65576171875
-211.48681640625
-217.8955078125
-217.8955078125
-218.81103515625
-223.388671875
-219.7265625
-219.7265625
-222.47314453125
-218.81103515625
-225.2197265625
-226.13525390625
-216.064453125
-220.64208984375
-223.388671875
-229.79736328125
-226.13525390625
-222.47314453125
-223.388671875
-224.30419921875
-229.79736328125
-227.96630859375
-227.05078125
-216.064453125
-225.2197265625
-223.388671875
-216.97998046875
-210.5712890625
-218.81103515625
-230.712890625
-232.5439453125
-228.8818359375
-225.2197265625
-217.8955078125
-215.14892578125
-222.47314453125
-222.47314453125
-220.64208984375
-218.81103515625
-224.30419921875
-216.97998046875
-218.81103515625
-216.064453125
-221.5576171875
-226.13525390625
-226.13525390625
-231.62841796875
-224.30419921875
-221.5576171875
-216.064453125
-225.2197265625
-227.96630859375
-215.14892578125
-201.416015625
-211.48681640625
-220.64208984375
-227.05078125
-219.7265625
-219.7265625
-223.388671875
-226.13525390625
-223.388671875
-225.2197265625
-226.13525390625
-226.13525390625
-225.2197265625
-223.388671875
-229.79736328125
-227.05078125
-224.30419921875
-226.13525390625
-220.64208984375
-222.47314453125
-216.97998046875
-216.064453125
-206.9091796875
-205.99365234375
-218.81103515625
-229.79736328125
-230.712890625
-226.13525390625
-215.14892578125
-222.47314453125
-223.388671875
-225.2197265625
-212.40234375
-214.2333984375
-216.064453125
-215.14892578125
-216.064453125
-216.064453125
-222.47314453125
-223.388671875
-213.31787109375
-222.47314453125
-218.81103515625
-214.2333984375
-220.64208984375
-229.79736328125
-230.712890625
-223.388671875
-219.7265625
-222.47314453125
-222.47314453125
-223.388671875
-212.40234375
-221.5576171875
-222.47314453125
-213.31787109375
-223.388671875
-234.375
-229.79736328125
-228.8818359375
-221.5576171875
-217.8955078125
-216.97998046875
-221.5576171875
-222.47314453125
-216.064453125
-220.64208984375
-218.81103515625
-220.64208984375
-218.81103515625
-213.31787109375
-224.30419921875
-227.96630859375
-220.64208984375
-212.40234375
-216.064453125
-218.81103515625
-212.40234375
-217.8955078125
-220.64208984375
-227.05078125
-217.8955078125
-216.97998046875
-211.48681640625
-214.2333984375
-215.14892578125
-218.81103515625
-216.064453125
-211.48681640625
-216.064453125
-201.416015625
-206.9091796875
-224.30419921875
-217.8955078125
-221.5576171875
-221.5576171875
-223.388671875
-230.712890625
-221.5576171875
-218.81103515625
-232.5439453125
-228.8818359375
-211.48681640625
-222.47314453125
-228.8818359375
-228.8818359375
-224.30419921875
-228.8818359375
-225.2197265625
-214.2333984375
-219.7265625
-216.064453125
-211.48681640625
-203.2470703125
-218.81103515625
-223.388671875
-217.8955078125
-220.64208984375
-217.8955078125
-210.5712890625
-197.75390625
-205.99365234375
-207.82470703125
-207.82470703125
-215.14892578125
-222.47314453125
-222.47314453125
-220.64208984375
-213.31787109375
-209.65576171875
-205.99365234375
-206.9091796875
-209.65576171875
-201.416015625
-184.9365234375
-183.10546875
-178.52783203125
-181.2744140625
-178.52783203125
-181.2744140625
-184.9365234375
-185.85205078125
-187.68310546875
-191.34521484375
-187.68310546875
-188.5986328125
-202.33154296875
-197.75390625
-203.2470703125
-204.16259765625
-210.5712890625
-214.2333984375
-205.078125
-205.99365234375
-216.97998046875
-213.31787109375
-205.99365234375
-206.9091796875
-209.65576171875
-214.2333984375
-213.31787109375
-209.65576171875
-214.2333984375
-220.64208984375
-225.2197265625
-229.79736328125
-230.712890625
-228.8818359375
-225.2197265625
-227.05078125
-232.5439453125
-233.45947265625
-225.2197265625
-238.037109375
-239.8681640625
-238.95263671875
-230.712890625
-221.5576171875
-219.7265625
-218.81103515625
-216.97998046875
-218.81103515625
-221.5576171875
-223.388671875
-224.30419921875
-235.29052734375
-254.5166015625
-264.58740234375
-283.8134765625
-304.87060546875
-306.70166015625
-288.39111328125
-249.93896484375
-230.712890625
-189.51416015625
-119.93408203125
-19.22607421875
86.0595703125
203.2470703125
328.67431640625
468.75
670.166015625
847.7783203125
954.89501953125
1012.5732421875
1036.376953125
995.17822265625
899.0478515625
706.787109375
436.70654296875
158.38623046875
-82.3974609375
-376.28173828125
-587.7685546875
-634.46044921875
-607.91015625
-563.04931640625
-552.978515625
-525.5126953125
-467.83447265625
-429.38232421875
-399.169921875
-356.14013671875
-309.4482421875
-271.91162109375
-238.037109375
-215.14892578125
-211.48681640625
-195.00732421875
-187.68310546875
-185.85205078125
-181.2744140625
-173.9501953125
-176.69677734375
-170.2880859375
-173.9501953125
-182.18994140625
-189.51416015625
-177.6123046875
-177.6123046875
-169.37255859375
-166.6259765625
-161.1328125
-165.71044921875
-156.55517578125
-151.9775390625
-151.06201171875
-148.3154296875
-145.56884765625
-158.38623046875
-154.72412109375
-149.23095703125
-151.06201171875
-148.3154296875
-142.822265625
-142.822265625
-138.24462890625
-143.73779296875
-122.6806640625
-128.173828125
-136.41357421875
-134.58251953125
-123.59619140625
-119.93408203125
-117.1875
-117.1875
-110.77880859375
-109.86328125
-107.11669921875
-104.3701171875
-100.7080078125
-107.11669921875
-100.7080078125
-91.552734375
-93.3837890625
-91.552734375
-79.65087890625
-86.97509765625
-93.3837890625
-86.97509765625
-74.15771484375
-63.17138671875
-69.580078125
-70.49560546875
-59.50927734375
-57.67822265625
-57.67822265625
-52.18505859375
-43.9453125
-38.4521484375
-35.70556640625
-35.70556640625
-30.21240234375
-20.1416015625
-13.73291015625
-15.56396484375
-3.662109375
-0.91552734375
3.662109375
2.74658203125
0.91552734375
10.07080078125
21.97265625
27.4658203125
45.7763671875
50.35400390625
54.01611328125
62.255859375
79.65087890625
86.0595703125
95.21484375
102.5390625
111.6943359375
117.1875
114.44091796875
127.25830078125
147.39990234375
154.72412109375
151.06201171875
158.38623046875
170.2880859375
173.9501953125
189.51416015625
198.66943359375
189.51416015625
199.5849609375
204.16259765625
209.65576171875
216.97998046875
205.99365234375
216.97998046875
223.388671875
217.8955078125
227.96630859375
232.5439453125
231.62841796875
222.47314453125
215.14892578125
220.64208984375
228.8818359375
203.2470703125
203.2470703125
202.33154296875
195.00732421875
181.2744140625
173.03466796875
166.6259765625
152.89306640625
134.58251953125
117.1875
98.876953125
86.0595703125
75.0732421875
64.0869140625
50.35400390625
41.19873046875
22.88818359375
-6.40869140625
-11.90185546875
-22.88818359375
-31.1279296875
-44.86083984375
-62.255859375
-68.66455078125
-68.66455078125
-75.98876953125
-102.5390625
-109.86328125
-115.3564453125
-118.10302734375
-129.08935546875
-136.41357421875
-147.39990234375
-148.3154296875
-145.56884765625
-148.3154296875
-157.470703125
-155.6396484375
-158.38623046875
-170.2880859375
-184.02099609375
-178.52783203125
-169.37255859375
-173.9501953125
-175.78125
-180.35888671875
-191.34521484375
-184.9365234375
-181.2744140625
-184.02099609375
-181.2744140625
-180.35888671875
-182.18994140625
-187.68310546875
-192.2607421875
-188.5986328125
-190.4296875
-188.5986328125
-184.9365234375
-189.51416015625
-190.4296875
-188.5986328125
-190.4296875
-189.51416015625
-189.51416015625
-187.68310546875
-176.69677734375
-173.9501953125
-178.52783203125
-182.18994140625
-181.2744140625
-187.68310546875
-193.17626953125
-186.767578125
-176.69677734375
-171.20361328125
-168.45703125
-168.45703125
-164.794921875
-167.54150390625
-165.71044921875
-168.45703125
-170.2880859375
-167.54150390625
-171.20361328125
-168.45703125
-171.20361328125
-166.6259765625
-167.54150390625
-177.6123046875
-177.6123046875
-165.71044921875
-162.04833984375
-164.794921875
-160.21728515625
-154.72412109375
-149.23095703125
-151.06201171875
-169.37255859375
-162.9638671875
-157.470703125
-151.9775390625
-151.06201171875
-161.1328125
-161.1328125
-156.55517578125
-151.9775390625
-163.87939453125
-173.03466796875
-166.6259765625
-159.3017578125
-162.9638671875
-163.87939453125
-162.9638671875
-169.37255859375
-174.86572265625
-174.86572265625
-167.54150390625
-161.1328125
-170.2880859375
-166.6259765625
-169.37255859375
-170.2880859375
-172.119140625
-173.03466796875
-169.37255859375
-168.45703125
-167.54150390625
-173.03466796875
-181.2744140625
-176.69677734375
-176.69677734375
-183.10546875
-182.18994140625
-187.68310546875
-182.18994140625
-174.86572265625
-175.78125
-161.1328125
-179.443359375
-189.51416015625
-185.85205078125
-185.85205078125
-184.02099609375
-171.20361328125
-184.9365234375
-180.35888671875
-185.85205078125
-192.2607421875
-183.10546875
-183.10546875
-184.9365234375
-183.10546875
-185.85205078125
-188.5986328125
-181.2744140625
-179.443359375
-193.17626953125
-201.416015625
-202.33154296875
-195.00732421875
-195.00732421875
-198.66943359375
-202.33154296875
-193.17626953125
-188.5986328125
-187.68310546875
-192.2607421875
-195.9228515625
-190.4296875
-192.2607421875
-194.091796875
-195.9228515625
-200.50048828125
-192.2607421875
-187.68310546875
-185.85205078125
-185.85205078125
-193.17626953125
-203.2470703125
-200.50048828125
-198.66943359375
-187.68310546875
-190.4296875
-201.416015625
-196.83837890625
-195.00732421875
-205.078125
-202.33154296875
-184.9365234375
-185.85205078125
-197.75390625
-192.2607421875
-181.2744140625
-187.68310546875
-188.5986328125
-191.34521484375
-193.17626953125
-192.2607421875
-195.00732421875
-194.091796875
-195.9228515625
-207.82470703125
-198.66943359375
-195.00732421875
-195.9228515625
-188.5986328125
-198.66943359375
-196.83837890625
-191.34521484375
-191.34521484375
-184.02099609375
-197.75390625
-202.33154296875
-189.51416015625
-193.17626953125
-201.416015625
-203.2470703125
-199.5849609375
-195.9228515625
-196.83837890625
-195.00732421875
-194.091796875
-193.17626953125
-189.51416015625
-184.9365234375
-192.2607421875
-192.2607421875
-194.091796875
-195.9228515625
-206.9091796875
-200.50048828125
-187.68310546875
-183.10546875
-184.9365234375
-181.2744140625
-193.17626953125
-195.00732421875
-203.2470703125
-203.2470703125
-196.83837890625
-195.00732421875
-197.75390625
-196.83837890625
-195.9228515625
-211.48681640625
-206.9091796875
-199.5849609375
-188.5986328125
-194.091796875
-197.75390625
-197.75390625
-201.416015625
-198.66943359375
-195.00732421875
-189.51416015625
-184.02099609375
-192.2607421875
-194.091796875
-195.00732421875
-202.33154296875
-207.82470703125
-194.091796875
-195.00732421875
-204.16259765625
-199.5849609375
-189.51416015625
-190.4296875
-194.091796875
-198.66943359375
-193.17626953125
-187.68310546875
-186.767578125
-183.10546875
-204.16259765625
-196.83837890625
-183.10546875
-193.17626953125
-197.75390625
-184.9365234375
-186.767578125
-187.68310546875
-193.17626953125
-190.4296875
-197.75390625
-199.5849609375
-192.2607421875
-184.02099609375
-194.091796875
-202.33154296875
-189.51416015625
-187.68310546875
-195.00732421875
-189.51416015625
-193.17626953125
-201.416015625
-204.16259765625
-190.4296875
-183.10546875
-186.767578125
-189.51416015625
-178.52783203125
-165.71044921875
-181.2744140625
-192.2607421875
-194.091796875
-195.00732421875
-197.75390625
-200.50048828125
-206.9091796875
-201.416015625
-197.75390625
-191.34521484375
-192.2607421875
-186.767578125
-187.68310546875
-183.10546875
-185.85205078125
-186.767578125
-185.85205078125
-195.00732421875
-200.50048828125
-189.51416015625
-180.35888671875
-174.86572265625
-177.6123046875
-177.6123046875
-170.2880859375
-173.9501953125
-181.2744140625
-188.5986328125
-187.68310546875
-186.767578125
-192.2607421875
-197.75390625
-190.4296875
-184.02099609375
-192.2607421875
-185.85205078125
-179.443359375
-173.9501953125
-151.9775390625
-147.39990234375
-153.80859375
-142.822265625
-137.3291015625
-140.07568359375
-142.822265625
-149.23095703125
-148.3154296875
-150.146484375
-154.72412109375
-173.03466796875
-162.9638671875
-163.87939453125
-163.87939453125
-171.20361328125
-172.119140625
-177.6123046875
-181.2744140625
-182.18994140625
-179.443359375
-178.52783203125
-178.52783203125
-185.85205078125
-190.4296875
-180.35888671875
-186.767578125
-192.2607421875
-186.767578125
-194.091796875
-193.17626953125
-198.66943359375
-193.17626953125
-195.9228515625
-196.83837890625
-198.66943359375
-196.83837890625
-195.9228515625
-193.17626953125
-184.9365234375
-176.69677734375
-188.5986328125
-192.2607421875
-194.091796875
-192.2607421875
-189.51416015625
-202.33154296875
-202.33154296875
-179.443359375
-189.51416015625
-202.33154296875
-220.64208984375
-236.2060546875
-265.5029296875
-287.4755859375
-314.94140625
-303.03955078125
-251.77001953125
-218.81103515625
-173.9501953125
-106.201171875
1.8310546875
118.10302734375
257.26318359375
393.6767578125
552.978515625
745.2392578125
909.11865234375
1010.7421875
1064.75830078125
1094.05517578125
1045.5322265625
941.162109375
769.04296875
467.83447265625
146.484375
-153.80859375
-466.00341796875
-567.626953125
-557.55615234375
-536.4990234375
-515.44189453125
-510.8642578125
-497.13134765625
-470.5810546875
-432.12890625
-382.6904296875
-339.66064453125
-301.20849609375
-283.8134765625
-258.1787109375
-223.388671875
-197.75390625
-183.10546875
-160.21728515625
-147.39990234375
-136.41357421875
-133.6669921875
-136.41357421875
-143.73779296875
-140.9912109375
-142.822265625
-140.9912109375
-133.6669921875
-130.92041015625
-127.25830078125
-130.0048828125
-128.173828125
-118.10302734375
-121.76513671875
-125.42724609375
-122.6806640625
-108.0322265625
-107.11669921875
-98.876953125
-108.94775390625
-116.27197265625
-114.44091796875
-105.28564453125
-97.96142578125
-105.28564453125
-96.13037109375
-86.97509765625
-75.0732421875
-74.15771484375
-95.21484375
-95.21484375
-89.7216796875
-85.14404296875
-80.56640625
-72.32666015625
-66.83349609375
-65.91796875
-60.4248046875
-56.7626953125
-47.607421875
-48.52294921875
-48.52294921875
-52.18505859375
-43.02978515625
-37.53662109375
-36.62109375
-40.283203125
-31.1279296875
-15.56396484375
-4.57763671875
-23.8037109375
-31.1279296875
-26.55029296875
-29.296875
-26.55029296875
-20.1416015625
-10.986328125
1.8310546875
-0.91552734375
5.4931640625
8.23974609375
8.23974609375
24.71923828125
32.958984375
41.19873046875
41.19873046875
45.7763671875
49.4384765625
54.931640625
66.83349609375
79.65087890625
86.0595703125
89.7216796875
96.13037109375
110.77880859375
120.849609375
126.3427734375
132.75146484375
139.16015625
153.80859375
158.38623046875
176.69677734375
184.02099609375
187.68310546875
195.9228515625
205.99365234375
215.14892578125
221.5576171875
236.2060546875
244.44580078125
252.685546875
262.75634765625
254.5166015625
262.75634765625
269.1650390625
270.08056640625
283.8134765625
290.22216796875
286.56005859375
282.89794921875
293.88427734375
285.64453125
288.39111328125
279.23583984375
281.982421875
283.8134765625
275.57373046875
274.658203125
281.06689453125
273.74267578125
265.5029296875
259.09423828125
246.27685546875
234.375
227.96630859375
217.8955078125
204.16259765625
187.68310546875
172.119140625
147.39990234375
125.42724609375
98.876953125
99.79248046875
89.7216796875
75.98876953125
65.91796875
46.69189453125
31.1279296875
22.88818359375
11.90185546875
-1.8310546875
-18.310546875
-27.4658203125
-42.1142578125
-51.26953125
-59.50927734375
-78.7353515625
-87.890625
-100.7080078125
-103.45458984375
-108.94775390625
-113.525390625
-108.0322265625
-118.10302734375
-118.10302734375
-118.10302734375
-127.25830078125
-136.41357421875
-130.92041015625
-136.41357421875
-149.23095703125
-150.146484375
-149.23095703125
-146.484375
-154.72412109375
-151.06201171875
-146.484375
-147.39990234375
-150.146484375
-161.1328125
-153.80859375
-151.9775390625
-162.9638671875
-152.89306640625
-150.146484375
-153.80859375
-149.23095703125
-148.3154296875
-138.24462890625
-149.23095703125
-152.89306640625
-151.06201171875
-151.9775390625
-150.146484375
-151.9775390625
-145.56884765625
-146.484375
-145.56884765625
-134.58251953125
-132.75146484375
-134.58251953125
-140.07568359375
-134.58251953125
-132.75146484375
-131.8359375
-130.0048828125
-129.08935546875
-138.24462890625
-135.498046875
-131.8359375
-134.58251953125
-128.173828125
-130.92041015625
-141.90673828125
-144.6533203125
-137.3291015625
-120.849609375
-114.44091796875
-122.6806640625
-130.92041015625
-138.24462890625
-130.92041015625
-128.173828125
-130.92041015625
-126.3427734375
-124.51171875
-133.6669921875
-132.75146484375
-136.41357421875
-131.8359375
-141.90673828125
-140.07568359375
-144.6533203125
-144.6533203125
-138.24462890625
-139.16015625
-136.41357421875
-136.41357421875
-139.16015625
-141.90673828125
-144.6533203125
-138.24462890625
-136.41357421875
-131.8359375
-151.9775390625
-145.56884765625
-141.90673828125
-133.6669921875
-143.73779296875
-150.146484375
-156.55517578125
-154.72412109375
-136.41357421875
-153.80859375
-150.146484375
-139.16015625
-134.58251953125
-141.90673828125
-151.9775390625
-146.484375
-136.41357421875
-143.73779296875
-151.9775390625
-152.89306640625
-157.470703125
-153.80859375
-155.6396484375
-163.87939453125
-163.87939453125
-160.21728515625
-154.72412109375
-155.6396484375
-168.45703125
-162.9638671875
-160.21728515625
-162.04833984375
-155.6396484375
-158.38623046875
-173.9501953125
-179.443359375
-163.87939453125
-172.119140625
-174.86572265625
-169.37255859375
-164.794921875
-149.23095703125
-152.89306640625
-164.794921875
-176.69677734375
-178.52783203125
-174.86572265625
-184.9365234375
-188.5986328125
-191.34521484375
-180.35888671875
-169.37255859375
-171.20361328125
-188.5986328125
-171.20361328125
-162.9638671875
-160.21728515625
-164.794921875
-174.86572265625
-172.119140625
-178.52783203125
-177.6123046875
-173.03466796875
-172.119140625
-176.69677734375
-176.69677734375
-171.20361328125
-175.78125
-180.35888671875
-180.35888671875
-173.9501953125
-162.04833984375
-158.38623046875
-179.443359375
-177.6123046875
-182.18994140625
-177.6123046875
-175.78125
-178.52783203125
-171.20361328125
-165.71044921875
-171.20361328125
-169.37255859375
-173.9501953125
-172.119140625
-178.52783203125
-179.443359375
-182.18994140625
-184.02099609375
-172.119140625
-161.1328125
-168.45703125
-178.52783203125
-182.18994140625
-179.443359375
-177.6123046875
-184.02099609375
-184.9365234375
-179.443359375
-168.45703125
-177.6123046875
-182.18994140625
-172.119140625
-166.6259765625
-169.37255859375
-180.35888671875
-183.10546875
-173.9501953125
-180.35888671875
-176.69677734375
-165.71044921875
-166.6259765625
-167.54150390625
-164.794921875
-175.78125
-184.9365234375
-173.9501953125
-168.45703125
-166.6259765625
-179.443359375
-179.443359375
-174.86572265625
-173.03466796875
-178.52783203125
-183.10546875
-183.10546875
-183.10546875
-171.20361328125
-173.9501953125
-175.78125
-176.69677734375
-174.86572265625
-170.2880859375
-173.03466796875
-177.6123046875
-182.18994140625
-179.443359375
-181.2744140625
-185.85205078125
-191.34521484375
-184.02099609375
-163.87939453125
-178.52783203125
-177.6123046875
-177.6123046875
-185.85205078125
-185.85205078125
-184.02099609375
-185.85205078125
-180.35888671875
-178.52783203125
-185.85205078125
-189.51416015625
-189.51416015625
-190.4296875
-170.2880859375
-174.86572265625
-184.02099609375
-180.35888671875
-179.443359375
-177.6123046875
-170.2880859375
-171.20361328125
-176.69677734375
-173.9501953125
-176.69677734375
-178.52783203125
-181.2744140625
-186.767578125
-184.9365234375
-176.69677734375
-177.6123046875
-180.35888671875
-178.52783203125
-175.78125
-170.2880859375
-181.2744140625
-196.83837890625
-186.767578125
-169.37255859375
-165.71044921875
-170.2880859375
-173.9501953125
-181.2744140625
-178.52783203125
-183.10546875
-187.68310546875
-186.767578125
-181.2744140625
-182.18994140625
-174.86572265625
-179.443359375
-185.85205078125
-174.86572265625
-156.55517578125
-145.56884765625
-136.41357421875
-141.90673828125
-143.73779296875
-130.0048828125
-137.3291015625
-145.56884765625
-140.07568359375
-131.8359375
-141.90673828125
-155.6396484375
-152.89306640625
-160.21728515625
-157.470703125
-149.23095703125
-158.38623046875
-167.54150390625
-171.20361328125
-169.37255859375
-170.2880859375
-183.10546875
-173.9501953125
-164.794921875
-164.794921875
-173.03466796875
-176.69677734375
-182.18994140625
-171.20361328125
-169.37255859375
-174.86572265625
-174.86572265625
-198.66943359375
-208.740234375
-198.66943359375
-191.34521484375
-203.2470703125
-197.75390625
-188.5986328125
-184.02099609375
-186.767578125
-192.2607421875
-193.17626953125
-192.2607421875
-192.2607421875
-190.4296875
-184.9365234375
-193.17626953125
-197.75390625
-190.4296875
-187.68310546875
-201.416015625
-203.2470703125
-217.8955078125
-241.69921875
-288.39111328125
-304.87060546875
-283.8134765625
-227.05078125
-173.03466796875
-133.6669921875
-54.01611328125
68.66455078125
187.68310546875
327.7587890625
455.9326171875
619.81201171875
818.4814453125
965.88134765625
1064.75830078125
1118.7744140625
1124.267578125
1053.77197265625
942.9931640625
749.81689453125
415.6494140625
140.9912109375
-152.89306640625
-496.2158203125
-606.0791015625
-595.0927734375
-566.71142578125
-538.330078125
-520.93505859375
-490.72265625
-448.6083984375
-407.40966796875
-371.7041015625
-323.18115234375
-281.982421875
-249.0234375
-217.8955078125
-185.85205078125
-181.2744140625
-174.86572265625
-159.3017578125
-156.55517578125
-148.3154296875
-149.23095703125
-140.9912109375
-142.822265625
-141.90673828125
-140.9912109375
-138.24462890625
-132.75146484375
-122.6806640625
-126.3427734375
-133.6669921875
-118.10302734375
-111.6943359375
-119.93408203125
-112.60986328125
-122.6806640625
-114.44091796875
-109.86328125
-97.96142578125
-87.890625
-112.60986328125
-118.10302734375
-109.86328125
-99.79248046875
-95.21484375
-91.552734375
-86.97509765625
-85.14404296875
-87.890625
-86.0595703125
-81.48193359375
-81.48193359375
-71.4111328125
-72.32666015625
-79.65087890625
-75.98876953125
-71.4111328125
-69.580078125
-68.66455078125
-64.0869140625
-61.34033203125
-57.67822265625
-41.19873046875
-37.53662109375
-35.70556640625
-51.26953125
-43.9453125
-34.7900390625
-24.71923828125
-25.634765625
-21.97265625
-20.1416015625
-14.6484375
-8.23974609375
-10.986328125
-10.07080078125
-5.4931640625
-4.57763671875
6.40869140625
15.56396484375
24.71923828125
26.55029296875
31.1279296875
37.53662109375
43.9453125
46.69189453125
55.84716796875
62.255859375
70.49560546875
75.0732421875
70.49560546875
75.0732421875
84.228515625
93.3837890625
108.94775390625
118.10302734375
127.25830078125
139.16015625
153.80859375
157.470703125
161.1328125
175.78125
180.35888671875
184.9365234375
196.83837890625
207.82470703125
216.064453125
220.64208984375
230.712890625
245.361328125
248.10791015625
249.0234375
254.5166015625
257.26318359375
266.41845703125
286.56005859375
288.39111328125
291.1376953125
281.06689453125
286.56005859375
293.88427734375
289.306640625
283.8134765625
289.306640625
288.39111328125
276.4892578125
286.56005859375
274.658203125
269.1650390625
259.09423828125
246.27685546875
246.27685546875
229.79736328125
222.47314453125
201.416015625
190.4296875
178.52783203125
162.04833984375
154.72412109375
146.484375
122.6806640625
101.62353515625
86.0595703125
64.0869140625
58.59375
48.52294921875
23.8037109375
1.8310546875
-7.32421875
-9.1552734375
-23.8037109375
-41.19873046875
-54.931640625
-61.34033203125
-70.49560546875
-77.81982421875
-86.0595703125
-82.3974609375
-79.65087890625
-101.62353515625
-118.10302734375
-118.10302734375
-127.25830078125
-125.42724609375
-131.8359375
-138.24462890625
-139.16015625
-144.6533203125
-144.6533203125
-147.39990234375
-148.3154296875
-147.39990234375
-141.90673828125
-141.90673828125
-151.06201171875
-164.794921875
-165.71044921875
-176.69677734375
-174.86572265625
-164.794921875
-161.1328125
-156.55517578125
-154.72412109375
-167.54150390625
-166.6259765625
-162.04833984375
-162.9638671875
-154.72412109375
-151.9775390625
-168.45703125
-169.37255859375
-162.04833984375
-160.21728515625
-159.3017578125
-159.3017578125
-156.55517578125
-151.06201171875
-153.80859375
-149.23095703125
-151.06201171875
-151.9775390625
-144.6533203125
-139.16015625
-144.6533203125
-150.146484375
-144.6533203125
-133.6669921875
-133.6669921875
-138.24462890625
-144.6533203125
-142.822265625
-140.9912109375
-138.24462890625
-124.51171875
-130.92041015625
-142.822265625
-138.24462890625
-139.16015625
-144.6533203125
-140.07568359375
-140.9912109375
-139.16015625
-132.75146484375
-131.8359375
-132.75146484375
-129.08935546875
-137.3291015625
-135.498046875
-115.3564453125
-122.6806640625
-138.24462890625
-142.822265625
-142.822265625
-140.07568359375
-141.90673828125
-135.498046875
-136.41357421875
-136.41357421875
-130.0048828125
-138.24462890625
-140.9912109375
-145.56884765625
-147.39990234375
-142.822265625
-147.39990234375
-151.06201171875
-146.484375
-138.24462890625
-142.822265625
-145.56884765625
-151.9775390625
-145.56884765625
-149.23095703125
-153.80859375
-156.55517578125
-149.23095703125
-147.39990234375
-152.89306640625
-154.72412109375
-158.38623046875
-160.21728515625
-157.470703125
-159.3017578125
-160.21728515625
-152.89306640625
-156.55517578125
-161.1328125
-167.54150390625
-161.1328125
-159.3017578125
-165.71044921875
-167.54150390625
-165.71044921875
-173.9501953125
-169.37255859375
-162.9638671875
-161.1328125
-173.03466796875
-168.45703125
-159.3017578125
-161.1328125
-177.6123046875
-186.767578125
-195.00732421875
-181.2744140625
-173.03466796875
-161.1328125
-164.794921875
-176.69677734375
-173.9501953125
-165.71044921875
-176.69677734375
-174.86572265625
-167.54150390625
-164.794921875
-164.794921875
-162.04833984375
-181.2744140625
-173.9501953125
-173.03466796875
-173.03466796875
-173.03466796875
-178.52783203125
-181.2744140625
-179.443359375
-177.6123046875
-177.6123046875
-180.35888671875
-183.10546875
-169.37255859375
-175.78125
-169.37255859375
-173.03466796875
-179.443359375
-174.86572265625
-169.37255859375
-166.6259765625
-170.2880859375
-179.443359375
-173.9501953125
-170.2880859375
-175.78125
-177.6123046875
-179.443359375
-173.9501953125
-184.9365234375
-192.2607421875
-184.02099609375
-184.02099609375
-176.69677734375
-181.2744140625
-177.6123046875
-170.2880859375
-171.20361328125
-178.52783203125
-187.68310546875
-181.2744140625
-184.9365234375
-177.6123046875
-170.2880859375
-162.9638671875
-177.6123046875
-181.2744140625
-181.2744140625
-181.2744140625
-173.9501953125
-178.52783203125
-179.443359375
-174.86572265625
-176.69677734375
-177.6123046875
-175.78125
-170.2880859375
-173.03466796875
-173.9501953125
-177.6123046875
-171.20361328125
-175.78125
-173.03466796875
-187.68310546875
-174.86572265625
-166.6259765625
-179.443359375
-180.35888671875
-179.443359375
-182.18994140625
-182.18994140625
-168.45703125
-167.54150390625
-165.71044921875
-173.9501953125
-186.767578125
-173.9501953125
-165.71044921875
-175.78125
-188.5986328125
-184.9365234375
-180.35888671875
-183.10546875
-185.85205078125
-190.4296875
-189.51416015625
-177.6123046875
-183.10546875
-175.78125
-164.794921875
-176.69677734375
-184.02099609375
-179.443359375
-181.2744140625
-178.52783203125
-179.443359375
-182.18994140625
-191.34521484375
-182.18994140625
-179.443359375
-175.78125
-179.443359375
-187.68310546875
-180.35888671875
-171.20361328125
-174.86572265625
-175.78125
-173.9501953125
-173.9501953125
-175.78125
-174.86572265625
-168.45703125
-168.45703125
-164.794921875
-169.37255859375
-176.69677734375
-179.443359375
-171.20361328125
-170.2880859375
-167.54150390625
-180.35888671875
-192.2607421875
-188.5986328125
-170.2880859375
-167.54150390625
-173.9501953125
-179.443359375
-176.69677734375
-179.443359375
-173.9501953125
-172.119140625
-177.6123046875
-191.34521484375
-180.35888671875
-183.10546875
-176.69677734375
-182.18994140625
-180.35888671875
-177.6123046875
-180.35888671875
-181.2744140625
-179.443359375
-176.69677734375
-186.767578125
-184.02099609375
-177.6123046875
-175.78125
-176.69677734375
-166.6259765625
-173.9501953125
-173.03466796875
-174.86572265625
-178.52783203125
-182.18994140625
-173.9501953125
-168.45703125
-177.6123046875
-176.69677734375
-177.6123046875
-172.119140625
-179.443359375
-178.52783203125
-176.69677734375
-171.20361328125
-178.52783203125
-172.119140625
-168.45703125
-157.470703125
-158.38623046875
-163.87939453125
-171.20361328125
-162.04833984375
-157.470703125
-184.02099609375
-177.6123046875
-167.54150390625
-160.21728515625
-166.6259765625
-171.20361328125
-174.86572265625
-167.54150390625
-162.04833984375
-143.73779296875
-136.41357421875
-130.92041015625
-135.498046875
-134.58251953125
-128.173828125
-129.08935546875
-140.9912109375
-142.822265625
-137.3291015625
-137.3291015625
-149.23095703125
-149.23095703125
-141.90673828125
-148.3154296875
-154.72412109375
-154.72412109375
-148.3154296875
-150.146484375
-161.1328125
-160.21728515625
-163.87939453125
-162.9638671875
-155.6396484375
-161.1328125
-162.04833984375
-164.794921875
-169.37255859375
-168.45703125
-170.2880859375
-173.9501953125
-173.9501953125
-178.52783203125
-181.2744140625
-176.69677734375
-180.35888671875
-184.9365234375
-182.18994140625
-182.18994140625
-185.85205078125
-178.52783203125
-174.86572265625
-188.5986328125
-198.66943359375
-186.767578125
-185.85205078125
-168.45703125
-169.37255859375
-178.52783203125
-184.9365234375
-173.9501953125
-181.2744140625
-196.83837890625
-219.7265625
-249.0234375
-264.58740234375
-267.333984375
-250.8544921875
-208.740234375
-173.03466796875
-119.93408203125
-54.931640625
42.1142578125
153.80859375
270.99609375
418.39599609375
567.626953125
752.5634765625
928.3447265625
1022.64404296875
1086.73095703125
1121.52099609375
1099.54833984375
1023.5595703125
846.86279296875
574.03564453125
285.64453125
20.1416015625
-320.4345703125
-563.96484375
-590.51513671875
-574.03564453125
-537.41455078125
-510.8642578125
-475.15869140625
-422.9736328125
-388.18359375
-347.900390625
-300.29296875
-262.75634765625
-222.47314453125
-198.66943359375
-175.78125
-153.80859375
-151.9775390625
-157.470703125
-140.9912109375
-134.58251953125
-136.41357421875
-137.3291015625
-131.8359375
-125.42724609375
-122.6806640625
-117.1875
-118.10302734375
-110.77880859375
-114.44091796875
-114.44091796875
-110.77880859375
-105.28564453125
-104.3701171875
-102.5390625
-100.7080078125
-100.7080078125
-102.5390625
-96.13037109375
-90.63720703125
-94.29931640625
-78.7353515625
-81.48193359375
-84.228515625
-84.228515625
-84.228515625
-86.97509765625
-78.7353515625
-75.98876953125
-75.0732421875
-75.0732421875
-56.7626953125
-53.1005859375
-59.50927734375
-64.0869140625
-69.580078125
-61.34033203125
-57.67822265625
-57.67822265625
-53.1005859375
-53.1005859375
-48.52294921875
-43.02978515625
-41.19873046875
-35.70556640625
-32.958984375
-32.958984375
-25.634765625
-19.22607421875
-24.71923828125
-21.97265625
-8.23974609375
-2.74658203125
-10.07080078125
-10.07080078125
-5.4931640625
-1.8310546875
7.32421875
10.07080078125
26.55029296875
31.1279296875
22.88818359375
27.4658203125
32.04345703125
43.02978515625
51.26953125
57.67822265625
61.34033203125
75.0732421875
69.580078125
77.81982421875
87.890625
90.63720703125
105.28564453125
119.93408203125
113.525390625
123.59619140625
137.3291015625
141.90673828125
153.80859375
157.470703125
168.45703125
184.02099609375
201.416015625
202.33154296875
205.99365234375
219.7265625
237.12158203125
239.8681640625
238.95263671875
242.61474609375
252.685546875
269.1650390625
271.91162109375
263.671875
275.57373046875
282.89794921875
281.06689453125
291.1376953125
299.37744140625
296.630859375
294.7998046875
292.96875
289.306640625
290.22216796875
296.630859375
297.54638671875
293.88427734375
283.8134765625
270.99609375
279.23583984375
273.74267578125
265.5029296875
261.8408203125
244.44580078125
232.5439453125
211.48681640625
197.75390625
185.85205078125
169.37255859375
145.56884765625
134.58251953125
112.60986328125
93.3837890625
82.3974609375
68.66455078125
60.4248046875
40.283203125
29.296875
15.56396484375
7.32421875
1.8310546875
-19.22607421875
-42.1142578125
-43.9453125
-51.26953125
-60.4248046875
-65.00244140625
-75.98876953125
-85.14404296875
-86.0595703125
-97.96142578125
-101.62353515625
-99.79248046875
-99.79248046875
-108.0322265625
-124.51171875
-131.8359375
-132.75146484375
-130.92041015625
-127.25830078125
-126.3427734375
-128.173828125
-127.25830078125
-117.1875
-119.93408203125
-134.58251953125
-134.58251953125
-140.07568359375
-139.16015625
-141.90673828125
-140.07568359375
-139.16015625
-136.41357421875
-146.484375
-139.16015625
-143.73779296875
-138.24462890625
-128.173828125
-130.92041015625
-135.498046875
-125.42724609375
-130.0048828125
-138.24462890625
-131.8359375
-131.8359375
-137.3291015625
-136.41357421875
-137.3291015625
-133.6669921875
-136.41357421875
-133.6669921875
-128.173828125
-119.93408203125
-126.3427734375
-126.3427734375
-130.92041015625
-127.25830078125
-136.41357421875
-120.849609375
-113.525390625
-114.44091796875
-119.0185546875
-117.1875
-126.3427734375
-117.1875
-114.44091796875
-118.10302734375
-118.10302734375
-112.60986328125
-116.27197265625
-116.27197265625
-113.525390625
-121.76513671875
-108.94775390625
-101.62353515625
-117.1875
-119.0185546875
-114.44091796875
-108.0322265625
-97.96142578125
-99.79248046875
-107.11669921875
-121.76513671875
-109.86328125
-111.6943359375
-110.77880859375
-122.6806640625
-119.93408203125
-113.525390625
-113.525390625
-117.1875
-118.10302734375
-125.42724609375
-127.25830078125
-114.44091796875
-120.849609375
-119.93408203125
-122.6806640625
-115.3564453125
-119.93408203125
-119.93408203125
-118.10302734375
-117.1875
-118.10302734375
-116.27197265625
-117.1875
-130.92041015625
-140.07568359375
-127.25830078125
-134.58251953125
-133.6669921875
-135.498046875
-138.24462890625
-140.9912109375
-136.41357421875
-135.498046875
-140.9912109375
-126.3427734375
-127.25830078125
-133.6669921875
-137.3291015625
-141.90673828125
-156.55517578125
-150.146484375
-140.9912109375
-140.9912109375
-147.39990234375
-152.89306640625
-146.484375
-144.6533203125
-155.6396484375
-157.470703125
-143.73779296875
-139.16015625
-142.822265625
-151.9775390625
-155.6396484375
-145.56884765625
-140.9912109375
-145.56884765625
-146.484375
-147.39990234375
-151.9775390625
-161.1328125
-160.21728515625
-155.6396484375
-153.80859375
-152.89306640625
-149.23095703125
-141.90673828125
-147.39990234375
-152.89306640625
-145.56884765625
-131.8359375
-138.24462890625
-145.56884765625
-149.23095703125
-149.23095703125
-148.3154296875
-154.72412109375
-156.55517578125
-151.06201171875
-151.06201171875
-153.80859375
-148.3154296875
-150.146484375
-158.38623046875
-155.6396484375
-148.3154296875
-152.89306640625
-159.3017578125
-163.87939453125
-156.55517578125
-144.6533203125
-151.06201171875
-159.3017578125
-150.146484375
-144.6533203125
-155.6396484375
-159.3017578125
-155.6396484375
-157.470703125
-161.1328125
-156.55517578125
-160.21728515625
-159.3017578125
-156.55517578125
-149.23095703125
-154.72412109375
-157.470703125
-157.470703125
-155.6396484375
-148.3154296875
-157.470703125
-168.45703125
-153.80859375
-159.3017578125
-155.6396484375
-156.55517578125
-150.146484375
-151.06201171875
-156.55517578125
-164.794921875
-162.9638671875
-152.89306640625
-160.21728515625
-156.55517578125
-148.3154296875
-156.55517578125
-157.470703125
-162.04833984375
-160.21728515625
-162.9638671875
-161.1328125
-160.21728515625
-158.38623046875
-158.38623046875
-164.794921875
-158.38623046875
-155.6396484375
-164.794921875
-165.71044921875
-162.9638671875
-155.6396484375
-146.484375
-142.822265625
-162.9638671875
-166.6259765625
-163.87939453125
-159.3017578125
-158.38623046875
-156.55517578125
-148.3154296875
-147.39990234375
-162.9638671875
-167.54150390625
-166.6259765625
-156.55517578125
-153.80859375
-157.470703125
-162.9638671875
-156.55517578125
-161.1328125
-158.38623046875
-154.72412109375
-154.72412109375
-162.9638671875
-168.45703125
-165.71044921875
-156.55517578125
-153.80859375
-158.38623046875
-163.87939453125
-158.38623046875
-156.55517578125
-153.80859375
-155.6396484375
-151.06201171875
-151.9775390625
-162.9638671875
-165.71044921875
-160.21728515625
-163.87939453125
-168.45703125
-164.794921875
-166.6259765625
-158.38623046875
-158.38623046875
-159.3017578125
-167.54150390625
-162.9638671875
-159.3017578125
-162.9638671875
-162.9638671875
-162.9638671875
-161.1328125
-162.04833984375
-160.21728515625
-154.72412109375
-166.6259765625
-167.54150390625
-164.794921875
-160.21728515625
-155.6396484375
-158.38623046875
-160.21728515625
-158.38623046875
-157.470703125
-159.3017578125
-162.9638671875
-156.55517578125
-162.04833984375
-168.45703125
-166.6259765625
-162.9638671875
-146.484375
-138.24462890625
-157.470703125
-166.6259765625
-171.20361328125
-162.04833984375
-161.1328125
-164.794921875
-166.6259765625
-168.45703125
-161.1328125
-156.55517578125
-158.38623046875
-166.6259765625
-163.87939453125
-158.38623046875
-170.2880859375
-155.6396484375
-150.146484375
-159.3017578125
-155.6396484375
-158.38623046875
-165.71044921875
-159.3017578125
-149.23095703125
-164.794921875
-163.87939453125
-153.80859375
-153.80859375
-153.80859375
-150.146484375
-157.470703125
-164.794921875
-161.1328125
-161.1328125
-171.20361328125
-162.04833984375
-157.470703125
-161.1328125
-152.89306640625
-149.23095703125
-148.3154296875
-156.55517578125
-162.04833984375
-165.71044921875
-165.71044921875
-162.04833984375
-154.72412109375
-155.6396484375
-163.87939453125
-151.06201171875
-149.23095703125
-151.9775390625
-153.80859375
-152.89306640625
-157.470703125
-155.6396484375
-151.06201171875
-148.3154296875
-151.06201171875
-158.38623046875
-154.72412109375
-148.3154296875
-157.470703125
-155.6396484375
-149.23095703125
-141.90673828125
-130.92041015625
-127.25830078125
-116.27197265625
-108.0322265625
-112.60986328125
-110.77880859375
-124.51171875
-120.849609375
-129.08935546875
-130.92041015625
-132.75146484375
-138.24462890625
-148.3154296875
-133.6669921875
-141.90673828125
-145.56884765625
-148.3154296875
-151.9775390625
-143.73779296875
-146.484375
-150.146484375
-145.56884765625
-152.89306640625
-151.06201171875
-149.23095703125
-163.87939453125
-160.21728515625
-154.72412109375
-157.470703125
-160.21728515625
-148.3154296875
-158.38623046875
-170.2880859375
-164.794921875
-173.03466796875
-176.69677734375
-171.20361328125
-167.54150390625
-169.37255859375
-168.45703125
-168.45703125
-165.71044921875
-158.38623046875
-162.04833984375
-160.21728515625
-170.2880859375
-168.45703125
-162.9638671875
-157.470703125
-159.3017578125
-162.04833984375
-173.03466796875
-185.85205078125
-196.83837890625
-218.81103515625
-237.12158203125
-244.44580078125
-258.1787109375
-233.45947265625
-187.68310546875
-145.56884765625
-94.29931640625
-14.6484375
95.21484375
206.9091796875
334.16748046875
468.75
658.26416015625
845.03173828125
993.34716796875
1066.58935546875
1122.4365234375
1127.01416015625
1071.1669921875
948.486328125
730.5908203125
430.2978515625
173.9501953125
-118.10302734375
-459.5947265625
-574.03564453125
-574.03564453125
-531.92138671875
-500.79345703125
-478.82080078125
-433.9599609375
-380.859375
-362.548828125
-324.0966796875
-272.8271484375
-226.13525390625
-189.51416015625
-160.21728515625
-145.56884765625
-140.9912109375
-134.58251953125
-116.27197265625
-122.6806640625
-131.8359375
-125.42724609375
-118.10302734375
-127.25830078125
-119.93408203125
-112.60986328125
-116.27197265625
-114.44091796875
-113.525390625
-107.11669921875
-93.3837890625
-102.5390625
-106.201171875
-109.86328125
-111.6943359375
-99.79248046875
-86.0595703125
-86.97509765625
-82.3974609375
-83.31298828125
-79.65087890625
-79.65087890625
-75.98876953125
-73.2421875
-74.15771484375
-77.81982421875
-70.49560546875
-63.17138671875
-65.00244140625
-70.49560546875
-67.7490234375
-67.7490234375
-69.580078125
-52.18505859375
-37.53662109375
-57.67822265625
-57.67822265625
-44.86083984375
-37.53662109375
-32.04345703125
-27.4658203125
-31.1279296875
-36.62109375
-38.4521484375
-32.04345703125
-32.04345703125
-25.634765625
-17.39501953125
1.8310546875
-10.07080078125
-5.4931640625
-0.91552734375
-4.57763671875
2.74658203125
15.56396484375
19.22607421875
-0.91552734375
10.07080078125
25.634765625
24.71923828125
31.1279296875
38.4521484375
43.9453125
46.69189453125
53.1005859375
56.7626953125
64.0869140625
58.59375
66.83349609375
99.79248046875
101.62353515625
101.62353515625
104.3701171875
108.94775390625
117.1875
129.08935546875
133.6669921875
144.6533203125
150.146484375
157.470703125
169.37255859375
180.35888671875
186.767578125
194.091796875
196.83837890625
210.5712890625
225.2197265625
229.79736328125
236.2060546875
248.10791015625
259.09423828125
260.92529296875
264.58740234375
281.06689453125
283.8134765625
288.39111328125
285.64453125
279.23583984375
295.71533203125
294.7998046875
300.29296875
299.37744140625
297.54638671875
309.4482421875
303.955078125
285.64453125
290.22216796875
291.1376953125
287.4755859375
282.89794921875
269.1650390625
262.75634765625
267.333984375
249.0234375
248.10791015625
239.8681640625
227.05078125
214.2333984375
194.091796875
185.85205078125
162.04833984375
139.16015625
131.8359375
116.27197265625
104.3701171875
83.31298828125
61.34033203125
55.84716796875
37.53662109375
32.04345703125
18.310546875
6.40869140625
-1.8310546875
-9.1552734375
-24.71923828125
-32.04345703125
-37.53662109375
-52.18505859375
-61.34033203125
-74.15771484375
-70.49560546875
-67.7490234375
-78.7353515625
-92.46826171875
-87.890625
-95.21484375
-105.28564453125
-109.86328125
-117.1875
-118.10302734375
-119.93408203125
-117.1875
-116.27197265625
-112.60986328125
-117.1875
-124.51171875
-129.08935546875
-124.51171875
-123.59619140625
-123.59619140625
-126.3427734375
-131.8359375
-122.6806640625
-118.10302734375
-127.25830078125
-122.6806640625
-122.6806640625
-134.58251953125
-129.08935546875
-128.173828125
-129.08935546875
-128.173828125
-123.59619140625
-111.6943359375
-109.86328125
-119.0185546875
-116.27197265625
-104.3701171875
-108.0322265625
-111.6943359375
-117.1875
-114.44091796875
-113.525390625
-104.3701171875
-94.29931640625
-104.3701171875
-106.201171875
-104.3701171875
-107.11669921875
-106.201171875
-97.0458984375
-101.62353515625
-107.11669921875
-102.5390625
-96.13037109375
-100.7080078125
-99.79248046875
-95.21484375
-90.63720703125
-93.3837890625
-96.13037109375
-96.13037109375
-96.13037109375
-108.0322265625
-101.62353515625
-94.29931640625
-97.96142578125
-101.62353515625
-97.0458984375
-83.31298828125
-82.3974609375
-94.29931640625
-107.11669921875
-99.79248046875
-86.0595703125
-89.7216796875
-95.21484375
-97.0458984375
-89.7216796875
-91.552734375
-94.29931640625
-100.7080078125
-105.28564453125
-106.201171875
-95.21484375
-101.62353515625
-109.86328125
-108.0322265625
-101.62353515625
-87.890625
-107.11669921875
-122.6806640625
-111.6943359375
-105.28564453125
-106.201171875
-103.45458984375
-104.3701171875
-106.201171875
-110.77880859375
-113.525390625
-109.86328125
-108.94775390625
-117.1875
-118.10302734375
-119.0185546875
-112.60986328125
-119.0185546875
-119.93408203125
-119.93408203125
-113.525390625
-133.6669921875
-136.41357421875
-120.849609375
-119.93408203125
-113.525390625
-120.849609375
-123.59619140625
-120.849609375
-119.93408203125
-130.0048828125
-128.173828125
-120.849609375
-129.08935546875
-140.9912109375
-117.1875
-111.6943359375
-116.27197265625
-120.849609375
-127.25830078125
-128.173828125
-128.173828125
-124.51171875
-127.25830078125
-113.525390625
-106.201171875
-125.42724609375
-127.25830078125
-132.75146484375
-123.59619140625
-117.1875
-127.25830078125
-140.07568359375
-137.3291015625
-132.75146484375
-137.3291015625
-141.90673828125
-131.8359375
-130.0048828125
-131.8359375
-128.173828125
-124.51171875
-132.75146484375
-134.58251953125
-130.0048828125
-129.08935546875
-127.25830078125
-125.42724609375
-118.10302734375
-119.93408203125
-139.16015625
-137.3291015625
-132.75146484375
-134.58251953125
-141.90673828125
-137.3291015625
-126.3427734375
-129.08935546875
-133.6669921875
-128.173828125
-124.51171875
-135.498046875
-142.822265625
-135.498046875
-137.3291015625
-131.8359375
-131.8359375
-137.3291015625
-135.498046875
-135.498046875
-134.58251953125
-124.51171875
-126.3427734375
-131.8359375
-125.42724609375
-125.42724609375
-130.92041015625
-132.75146484375
-135.498046875
-130.92041015625
-126.3427734375
-127.25830078125
-138.24462890625
-136.41357421875
-142.822265625
-138.24462890625
-137.3291015625
-131.8359375
-130.0048828125
-133.6669921875
-132.75146484375
-135.498046875
-137.3291015625
-139.16015625
-145.56884765625
-141.90673828125
-130.92041015625
-123.59619140625
-130.92041015625
-128.173828125
-111.6943359375
-131.8359375
-138.24462890625
-141.90673828125
-149.23095703125
-151.06201171875
-147.39990234375
-145.56884765625
-142.822265625
-135.498046875
-132.75146484375
-142.822265625
-141.90673828125
-139.16015625
-131.8359375
-134.58251953125
-131.8359375
-137.3291015625
-135.498046875
-129.08935546875
-127.25830078125
-138.24462890625
-133.6669921875
-135.498046875
-139.16015625
-140.07568359375
-139.16015625
-139.16015625
-132.75146484375
-120.849609375
-126.3427734375
-140.07568359375
-139.16015625
-137.3291015625
-135.498046875
-139.16015625
-136.41357421875
-140.07568359375
-140.07568359375
-145.56884765625
-137.3291015625
-140.9912109375
-134.58251953125
-125.42724609375
-130.0048828125
-143.73779296875
-138.24462890625
-134.58251953125
-125.42724609375
-134.58251953125
-137.3291015625
-138.24462890625
-149.23095703125
-141.90673828125
-139.16015625
-137.3291015625
-135.498046875
-140.9912109375
-136.41357421875
-135.498046875
-137.3291015625
-143.73779296875
-146.484375
-133.6669921875
-133.6669921875
-136.41357421875
-135.498046875
-135.498046875
-145.56884765625
-145.56884765625
-131.8359375
-134.58251953125
-122.6806640625
-135.498046875
-130.0048828125
-130.0048828125
-138.24462890625
-142.822265625
-134.58251953125
-117.1875
-124.51171875
-143.73779296875
-130.92041015625
-135.498046875
-130.92041015625
-141.90673828125
-140.07568359375
-135.498046875
-138.24462890625
-134.58251953125
-135.498046875
-138.24462890625
-141.90673828125
-138.24462890625
-142.822265625
-152.89306640625
-143.73779296875
-138.24462890625
-134.58251953125
-142.822265625
-140.07568359375
-137.3291015625
-140.9912109375
-146.484375
-150.146484375
-143.73779296875
-143.73779296875
-139.16015625
-140.07568359375
-140.07568359375
-124.51171875
-121.76513671875
-125.42724609375
-135.498046875
-129.08935546875
-126.3427734375
-130.0048828125
-125.42724609375
-132.75146484375
-136.41357421875
-130.92041015625
-140.9912109375
-133.6669921875
-131.8359375
-141.90673828125
-137.3291015625
-133.6669921875
-141.90673828125
-144.6533203125
-140.9912109375
-131.8359375
-130.0048828125
-128.173828125
-121.76513671875
-115.3564453125
-113.525390625
-152.89306640625
-147.39990234375
-130.92041015625
-134.58251953125
-131.8359375
-140.9912109375
-152.89306640625
-130.92041015625
-119.93408203125
-111.6943359375
-97.0458984375
-83.31298828125
-90.63720703125
-98.876953125
-97.0458984375
-100.7080078125
-104.3701171875
-100.7080078125
-98.876953125
-97.96142578125
-106.201171875
-106.201171875
-97.96142578125
-113.525390625
-131.8359375
-133.6669921875
-131.8359375
-129.08935546875
-121.76513671875
-122.6806640625
-129.08935546875
-127.25830078125
-134.58251953125
-129.08935546875
-125.42724609375
-135.498046875
-144.6533203125
-125.42724609375
-128.173828125
-144.6533203125
-142.822265625
-146.484375
-151.9775390625
-147.39990234375
-145.56884765625
-142.822265625
-149.23095703125
-148.3154296875
-134.58251953125
-133.6669921875
-140.07568359375
-141.90673828125
-154.72412109375
-148.3154296875
-149.23095703125
-145.56884765625
-140.9912109375
-141.90673828125
-141.90673828125
-139.16015625
-139.16015625
-151.9775390625
-172.119140625
-185.85205078125
-209.65576171875
-227.96630859375
-236.2060546875
-205.078125
-168.45703125
-138.24462890625
-82.3974609375
4.57763671875
118.10302734375
235.29052734375
373.53515625
498.046875
675.6591796875
876.15966796875
1012.5732421875
1094.970703125
1145.32470703125
1138.00048828125
1083.06884765625
969.54345703125
734.2529296875
414.73388671875
154.72412109375
-147.39990234375
-455.01708984375
-543.8232421875
-539.24560546875
-503.5400390625
-483.3984375
-470.5810546875
-421.142578125
-383.60595703125
-343.32275390625
-304.87060546875
-260.92529296875
-237.12158203125
-206.9091796875
-184.02099609375
-161.1328125
-130.92041015625
-119.0185546875
-109.86328125
-101.62353515625
-94.29931640625
-100.7080078125
-102.5390625
-96.13037109375
-90.63720703125
-89.7216796875
-90.63720703125
-86.0595703125
-83.31298828125
-83.31298828125
-83.31298828125
-80.56640625
-78.7353515625
-76.904296875
-65.00244140625
-65.00244140625
-66.83349609375
-64.0869140625
-63.17138671875
-58.59375
-56.7626953125
-54.931640625
-46.69189453125
-41.19873046875
-45.7763671875
-51.26953125
-54.931640625
-54.931640625
-49.4384765625
-37.53662109375
-41.19873046875
-39.36767578125
-41.19873046875
-37.53662109375
-33.87451171875
-34.7900390625
-29.296875
-24.71923828125
-12.8173828125
-23.8037109375
-33.87451171875
-23.8037109375
-24.71923828125
-16.4794921875
-20.1416015625
-12.8173828125
-6.40869140625
-0.91552734375
6.40869140625
8.23974609375
10.986328125
10.07080078125
27.4658203125
26.55029296875
29.296875
35.70556640625
39.36767578125
38.4521484375
44.86083984375
48.52294921875
47.607421875
59.50927734375
66.83349609375
65.91796875
77.81982421875
81.48193359375
93.3837890625
92.46826171875
102.5390625
111.6943359375
119.93408203125
132.75146484375
130.92041015625
130.92041015625
141.90673828125
152.89306640625
161.1328125
177.6123046875
185.85205078125
181.2744140625
187.68310546875
195.9228515625
206.9091796875
207.82470703125
223.388671875
240.78369140625
249.93896484375
261.8408203125
264.58740234375
278.3203125
283.8134765625
292.05322265625
298.4619140625
298.4619140625
303.955078125
301.20849609375
309.4482421875
314.94140625
312.19482421875
316.7724609375
326.84326171875
334.16748046875
321.35009765625
329.58984375
327.7587890625
319.51904296875
316.7724609375
315.85693359375
317.68798828125
314.02587890625
309.4482421875
298.4619140625
300.29296875
282.89794921875
275.57373046875
269.1650390625
253.60107421875
241.69921875
228.8818359375
217.8955078125
194.091796875
174.86572265625
151.9775390625
139.16015625
132.75146484375
122.6806640625
106.201171875
88.80615234375
71.4111328125
64.0869140625
48.52294921875
36.62109375
25.634765625
8.23974609375
-4.57763671875
-17.39501953125
-28.38134765625
-25.634765625
-43.9453125
-50.35400390625
-54.931640625
-62.255859375
-69.580078125
-83.31298828125
-82.3974609375
-83.31298828125
-87.890625
-88.80615234375
-91.552734375
-98.876953125
-99.79248046875
-98.876953125
-97.0458984375
-99.79248046875
-98.876953125
-101.62353515625
-99.79248046875
-94.29931640625
-89.7216796875
-83.31298828125
-106.201171875
-125.42724609375
-117.1875
-98.876953125
-104.3701171875
-107.11669921875
-109.86328125
-114.44091796875
-111.6943359375
-113.525390625
-108.0322265625
-113.525390625
-107.11669921875
-106.201171875
-109.86328125
-110.77880859375
-108.0322265625
-108.0322265625
-112.60986328125
-100.7080078125
-100.7080078125
-104.3701171875
-101.62353515625
-103.45458984375
-99.79248046875
-100.7080078125
-108.0322265625
-99.79248046875
-89.7216796875
-99.79248046875
-97.96142578125
-97.0458984375
-102.5390625
-91.552734375
-84.228515625
-87.890625
-86.97509765625
-94.29931640625
-93.3837890625
-90.63720703125
-88.80615234375
-91.552734375
-93.3837890625
-89.7216796875
-92.46826171875
-92.46826171875
-86.97509765625
-87.890625
-90.63720703125
-91.552734375
-94.29931640625
-97.0458984375
-97.0458984375
-99.79248046875
-97.96142578125
-93.3837890625
-88.80615234375
-89.7216796875
-89.7216796875
-86.97509765625
-90.63720703125
-91.552734375
-99.79248046875
-100.7080078125
-94.29931640625
-97.96142578125
-102.5390625
-106.201171875
-98.876953125
-95.21484375
-105.28564453125
-106.201171875
-108.94775390625
-111.6943359375
-117.1875
-110.77880859375
-112.60986328125
-105.28564453125
-103.45458984375
-103.45458984375
-104.3701171875
-109.86328125
-110.77880859375
-107.11669921875
-103.45458984375
-106.201171875
-111.6943359375
-110.77880859375
-98.876953125
-111.6943359375
-121.76513671875
-123.59619140625
-129.08935546875
-119.0185546875
-118.10302734375
-120.849609375
-117.1875
-107.11669921875
-104.3701171875
-109.86328125
-120.849609375
-124.51171875
-121.76513671875
-118.10302734375
-126.3427734375
-115.3564453125
-115.3564453125
-113.525390625
-115.3564453125
-126.3427734375
-128.173828125
-127.25830078125
-122.6806640625
-126.3427734375
-126.3427734375
-122.6806640625
-125.42724609375
-127.25830078125
-123.59619140625
-122.6806640625
-126.3427734375
-129.08935546875
-124.51171875
-130.92041015625
-132.75146484375
-130.92041015625
-130.0048828125
-124.51171875
-134.58251953125
-140.9912109375
-136.41357421875
-134.58251953125
-131.8359375
-139.16015625
-136.41357421875
-130.92041015625
-131.8359375
-135.498046875
-131.8359375
-132.75146484375
-122.6806640625
-118.10302734375
-120.849609375
-118.10302734375
-121.76513671875
-131.8359375
-132.75146484375
-137.3291015625
-138.24462890625
-145.56884765625
-133.6669921875
-126.3427734375
-117.1875
-128.173828125
-131.8359375
-130.0048828125
-125.42724609375
-125.42724609375
-130.92041015625
-132.75146484375
-129.08935546875
-128.173828125
-126.3427734375
-125.42724609375
-128.173828125
-128.173828125
-129.08935546875
-130.0048828125
-132.75146484375
-127.25830078125
-144.6533203125
-135.498046875
-129.08935546875
-129.08935546875
-137.3291015625
-139.16015625
-134.58251953125
-132.75146484375
-115.3564453125
-126.3427734375
-145.56884765625
-126.3427734375
-123.59619140625
-127.25830078125
-130.92041015625
-130.0048828125
-130.92041015625
-133.6669921875
-138.24462890625
-138.24462890625
-132.75146484375
-125.42724609375
-130.0048828125
-137.3291015625
-133.6669921875
-131.8359375
-132.75146484375
-133.6669921875
-137.3291015625
-142.822265625
-143.73779296875
-137.3291015625
-125.42724609375
-123.59619140625
-135.498046875
-137.3291015625
-130.92041015625
-130.0048828125
-124.51171875
-130.0048828125
-130.92041015625
-131.8359375
-128.173828125
-130.0048828125
-127.25830078125
-129.08935546875
-139.16015625
-128.173828125
-122.6806640625
-126.3427734375
-130.92041015625
-137.3291015625
-136.41357421875
-134.58251953125
-143.73779296875
-133.6669921875
-133.6669921875
-139.16015625
-143.73779296875
-140.9912109375
-141.90673828125
-140.07568359375
-129.08935546875
-135.498046875
-134.58251953125
-126.3427734375
-140.07568359375
-136.41357421875
-137.3291015625
-136.41357421875
-121.76513671875
-121.76513671875
-125.42724609375
-140.07568359375
-139.16015625
-139.16015625
-139.16015625
-133.6669921875
-137.3291015625
-131.8359375
-132.75146484375
-134.58251953125
-125.42724609375
-127.25830078125
-124.51171875
-133.6669921875
-140.9912109375
-130.0048828125
-127.25830078125
-130.92041015625
-135.498046875
-130.92041015625
-132.75146484375
-134.58251953125
-130.92041015625
-124.51171875
-128.173828125
-132.75146484375
-135.498046875
-130.0048828125
-131.8359375
-138.24462890625
-137.3291015625
-131.8359375
-127.25830078125
-130.0048828125
-136.41357421875
-143.73779296875
-147.39990234375
-140.07568359375
-133.6669921875
-139.16015625
-129.08935546875
-129.08935546875
-143.73779296875
-134.58251953125
-126.3427734375
-131.8359375
-125.42724609375
-138.24462890625
-146.484375
-130.0048828125
-129.08935546875
-125.42724609375
-130.92041015625
-130.0048828125
-122.6806640625
-123.59619140625
-125.42724609375
-133.6669921875
-141.90673828125
-135.498046875
-126.3427734375
-108.0322265625
-126.3427734375
-133.6669921875
-125.42724609375
-115.3564453125
-98.876953125
-86.97509765625
-91.552734375
-95.21484375
-89.7216796875
-93.3837890625
-91.552734375
-92.46826171875
-95.21484375
-97.0458984375
-102.5390625
-99.79248046875
-102.5390625
-109.86328125
-107.11669921875
-109.86328125
-118.10302734375
-121.76513671875
-122.6806640625
-122.6806640625
-125.42724609375
-125.42724609375
-130.0048828125
-126.3427734375
-129.08935546875
-124.51171875
-131.8359375
-130.0048828125
-130.92041015625
-143.73779296875
-139.16015625
-140.07568359375
-147.39990234375
-147.39990234375
-147.39990234375
-141.90673828125
-142.822265625
-143.73779296875
-143.73779296875
-130.0048828125
-117.1875
-132.75146484375
-154.72412109375
-140.9912109375
-142.822265625
-136.41357421875
-132.75146484375
-126.3427734375
-137.3291015625
-135.498046875
-131.8359375
-148.3154296875
-166.6259765625
-193.17626953125
-213.31787109375
-229.79736328125
-238.037109375
-211.48681640625
-170.2880859375
-130.0048828125
-85.14404296875
-8.23974609375
117.1875
240.78369140625
368.95751953125
503.5400390625
681.15234375
879.82177734375
1021.728515625
1094.05517578125
1137.0849609375
1149.90234375
1099.54833984375
992.431640625
776.3671875
451.35498046875
176.69677734375
-123.59619140625
-455.01708984375
-551.1474609375
-538.330078125
-499.8779296875
-475.15869140625
-464.17236328125
-433.9599609375
-380.859375
-354.30908203125
-319.51904296875
-261.8408203125
-231.62841796875
-202.33154296875
-164.794921875
-152.89306640625
-130.0048828125
-112.60986328125
-108.94775390625
-100.7080078125
-98.876953125
-99.79248046875
-101.62353515625
-103.45458984375
-89.7216796875
-89.7216796875
-90.63720703125
-80.56640625
-79.65087890625
-77.81982421875
-76.904296875
-75.0732421875
-71.4111328125
-67.7490234375
-53.1005859375
-43.9453125
-65.00244140625
-74.15771484375
-67.7490234375
-56.7626953125
-59.50927734375
-56.7626953125
-56.7626953125
-57.67822265625
-53.1005859375
-47.607421875
-44.86083984375
-40.283203125
-39.36767578125
-35.70556640625
-38.4521484375
-32.04345703125
-22.88818359375
-22.88818359375
-32.04345703125
-29.296875
-19.22607421875
-19.22607421875
-10.986328125
-3.662109375
-6.40869140625
-10.986328125
-7.32421875
-7.32421875
-6.40869140625
-9.1552734375
-3.662109375
9.1552734375
8.23974609375
21.05712890625
30.21240234375
23.8037109375
24.71923828125
28.38134765625
32.958984375
37.53662109375
43.9453125
48.52294921875
55.84716796875
64.0869140625
63.17138671875
73.2421875
76.904296875
87.890625
99.79248046875
88.80615234375
92.46826171875
96.13037109375
94.29931640625
108.0322265625
130.0048828125
137.3291015625
138.24462890625
144.6533203125
155.6396484375
166.6259765625
169.37255859375
174.86572265625
188.5986328125
195.9228515625
209.65576171875
221.5576171875
227.96630859375
233.45947265625
247.1923828125
244.44580078125
260.009765625
267.333984375
269.1650390625
281.982421875
292.96875
306.70166015625
310.36376953125
310.36376953125
309.4482421875
310.36376953125
315.85693359375
322.265625
330.50537109375
331.4208984375
328.67431640625
333.251953125
335.99853515625
336.9140625
340.576171875
333.251953125
339.66064453125
331.4208984375
314.94140625
311.279296875
311.279296875
304.87060546875
299.37744140625
286.56005859375
274.658203125
257.26318359375
246.27685546875
239.8681640625
231.62841796875
215.14892578125
188.5986328125
175.78125
175.78125
166.6259765625
146.484375
118.10302734375
101.62353515625
86.97509765625
70.49560546875
58.59375
47.607421875
42.1142578125
22.88818359375
11.90185546875
-6.40869140625
-6.40869140625
-10.986328125
-20.1416015625
-25.634765625
-40.283203125
-42.1142578125
-54.01611328125
-66.83349609375
-55.84716796875
-52.18505859375
-67.7490234375
-72.32666015625
-79.65087890625
-81.48193359375
-85.14404296875
-87.890625
-85.14404296875
-88.80615234375
-88.80615234375
-89.7216796875
-81.48193359375
-84.228515625
-95.21484375
-94.29931640625
-90.63720703125
-97.96142578125
-97.96142578125
-101.62353515625
-101.62353515625
-97.0458984375
-97.0458984375
-90.63720703125
-92.46826171875
-94.29931640625
-88.80615234375
-84.228515625
-101.62353515625
-103.45458984375
-91.552734375
-89.7216796875
-85.14404296875
-76.904296875
-80.56640625
-97.96142578125
-92.46826171875
-84.228515625
-87.890625
-86.97509765625
-75.98876953125
-72.32666015625
-85.14404296875
-83.31298828125
-86.0595703125
-92.46826171875
-95.21484375
-81.48193359375
-70.49560546875
-54.01611328125
-62.255859375
-68.66455078125
-62.255859375
-67.7490234375
-73.2421875
-74.15771484375
-65.00244140625
-70.49560546875
-74.15771484375
-67.7490234375
-67.7490234375
-70.49560546875
-73.2421875
-69.580078125
-61.34033203125
-46.69189453125
-59.50927734375
-80.56640625
-76.904296875
-76.904296875
-72.32666015625
-71.4111328125
-74.15771484375
-70.49560546875
-74.15771484375
-75.0732421875
-73.2421875
-73.2421875
-73.2421875
-74.15771484375
-75.0732421875
-78.7353515625
-83.31298828125
-86.0595703125
-95.21484375
-93.3837890625
-88.80615234375
-86.0595703125
-70.49560546875
-72.32666015625
-80.56640625
-89.7216796875
-80.56640625
-85.14404296875
-97.96142578125
-95.21484375
-86.0595703125
-91.552734375
-92.46826171875
-94.29931640625
-91.552734375
-86.97509765625
-83.31298828125
-94.29931640625
-96.13037109375
-93.3837890625
-94.29931640625
-98.876953125
-97.96142578125
-102.5390625
-104.3701171875
-95.21484375
-88.80615234375
-93.3837890625
-100.7080078125
-105.28564453125
-108.94775390625
-100.7080078125
-93.3837890625
-93.3837890625
-103.45458984375
-112.60986328125
-111.6943359375
-108.0322265625
-106.201171875
-97.0458984375
-98.876953125
-102.5390625
-101.62353515625
-100.7080078125
-104.3701171875
-113.525390625
-95.21484375
-97.96142578125
-114.44091796875
-111.6943359375
-108.94775390625
-114.44091796875
-115.3564453125
-112.60986328125
-108.0322265625
-113.525390625
-111.6943359375
-110.77880859375
-114.44091796875
-120.849609375
-106.201171875
-106.201171875
-108.0322265625
-108.94775390625
-110.77880859375
-106.201171875
-91.552734375
-102.5390625
-108.0322265625
-116.27197265625
-120.849609375
-115.3564453125
-108.0322265625
-104.3701171875
-109.86328125
-112.60986328125
-119.93408203125
-111.6943359375
-114.44091796875
-104.3701171875
-105.28564453125
-120.849609375
-121.76513671875
-108.94775390625
-113.525390625
-119.0185546875
-118.10302734375
-117.1875
-117.1875
-113.525390625
-111.6943359375
-119.93408203125
-115.3564453125
-112.60986328125
-116.27197265625
-115.3564453125
-117.1875
-113.525390625
-117.1875
-115.3564453125
-110.77880859375
-111.6943359375
-119.0185546875
-117.1875
-119.93408203125
-110.77880859375
-104.3701171875
-114.44091796875
-119.0185546875
-117.1875
-117.1875
-121.76513671875
-118.10302734375
-111.6943359375
-115.3564453125
-121.76513671875
-123.59619140625
-126.3427734375
-121.76513671875
-119.93408203125
-119.0185546875
-101.62353515625
-98.876953125
-114.44091796875
-109.86328125
-112.60986328125
-120.849609375
-119.0185546875
-117.1875
-115.3564453125
-113.525390625
-117.1875
-113.525390625
-118.10302734375
-117.1875
-119.93408203125
-130.0048828125
-122.6806640625
-114.44091796875
-122.6806640625
-119.0185546875
-121.76513671875
-130.92041015625
-125.42724609375
-119.93408203125
-123.59619140625
-118.10302734375
-122.6806640625
-132.75146484375
-127.25830078125
-129.08935546875
-117.1875
-115.3564453125
-125.42724609375
-120.849609375
-126.3427734375
-124.51171875
-119.0185546875
-122.6806640625
-124.51171875
-125.42724609375
-121.76513671875
-131.8359375
-130.0048828125
-127.25830078125
-111.6943359375
-116.27197265625
-116.27197265625
-124.51171875
-127.25830078125
-108.94775390625
-109.86328125
-131.8359375
-134.58251953125
-124.51171875
-123.59619140625
-121.76513671875
-119.93408203125
-126.3427734375
-119.93408203125
-117.1875
-123.59619140625
-125.42724609375
-122.6806640625
-111.6943359375
-122.6806640625
-119.0185546875
-111.6943359375
-116.27197265625
-119.93408203125
-117.1875
-117.1875
-120.849609375
-118.10302734375
-115.3564453125
-120.849609375
-116.27197265625
-119.93408203125
-118.10302734375
-104.3701171875
-109.86328125
-114.44091796875
-112.60986328125
-104.3701171875
-105.28564453125
-116.27197265625
-126.3427734375
-117.1875
-115.3564453125
-112.60986328125
-115.3564453125
-113.525390625
-114.44091796875
-121.76513671875
-112.60986328125
-116.27197265625
-123.59619140625
-117.1875
-111.6943359375
-108.94775390625
-112.60986328125
-121.76513671875
-122.6806640625
-124.51171875
-119.93408203125
-122.6806640625
-128.173828125
-119.93408203125
-117.1875
-119.93408203125
-121.76513671875
-119.93408203125
-120.849609375
-122.6806640625
-129.08935546875
-119.93408203125
-119.0185546875
-113.525390625
-114.44091796875
-116.27197265625
-108.94775390625
-114.44091796875
-109.86328125
-118.10302734375
-113.525390625
-107.11669921875
-111.6943359375
-99.79248046875
-100.7080078125
-108.94775390625
-112.60986328125
-103.45458984375
-103.45458984375
-108.0322265625
-121.76513671875
-118.10302734375
-99.79248046875
-92.46826171875
-80.56640625
-83.31298828125
-84.228515625
-76.904296875
-78.7353515625
-75.98876953125
-82.3974609375
-84.228515625
-82.3974609375
-90.63720703125
-77.81982421875
-73.2421875
-82.3974609375
-93.3837890625
-100.7080078125
-103.45458984375
-103.45458984375
-104.3701171875
-107.11669921875
-106.201171875
-107.11669921875
-107.11669921875
-101.62353515625
-108.0322265625
-114.44091796875
-109.86328125
-109.86328125
-119.0185546875
-115.3564453125
-116.27197265625
-117.1875
-118.10302734375
-119.93408203125
-130.0048828125
-127.25830078125
-130.0048828125
-132.75146484375
-129.08935546875
-118.10302734375
-125.42724609375
-125.42724609375
-114.44091796875
-103.45458984375
-109.86328125
-123.59619140625
-121.76513671875
-124.51171875
-119.93408203125
-97.0458984375
-110.77880859375
-125.42724609375
-132.75146484375
-145.56884765625
-165.71044921875
-193.17626953125
-208.740234375
-216.064453125
-182.18994140625
-137.3291015625
-97.96142578125
-43.9453125
50.35400390625
156.55517578125
277.40478515625
413.818359375
542.90771484375
726.9287109375
916.44287109375
1053.77197265625
1120.60546875
1171.875
1165.46630859375
1108.70361328125
967.71240234375
738.83056640625
436.70654296875
174.86572265625
-132.75146484375
-451.35498046875
-537.41455078125
-522.76611328125
-483.3984375
-463.2568359375
-445.86181640625
-402.83203125
-339.66064453125
-309.4482421875
-268.24951171875
-223.388671875
-186.767578125
-146.484375
-126.3427734375
-112.60986328125
-95.21484375
-88.80615234375
-79.65087890625
-80.56640625
-86.0595703125
-87.890625
-79.65087890625
-81.48193359375
-76.904296875
-72.32666015625
-64.0869140625
-65.00244140625
-68.66455078125
-62.255859375
-54.931640625
-51.26953125
-59.50927734375
-52.18505859375
-45.7763671875
-52.18505859375
-46.69189453125
-49.4384765625
-53.1005859375
-38.4521484375
-34.7900390625
-32.958984375
-31.1279296875
-30.21240234375
-37.53662109375
-36.62109375
-25.634765625
-28.38134765625
-21.97265625
-9.1552734375
-11.90185546875
-18.310546875
-18.310546875
-5.4931640625
2.74658203125
1.8310546875
-2.74658203125
-5.4931640625
3.662109375
10.986328125
10.07080078125
9.1552734375
12.8173828125
15.56396484375
17.39501953125
23.8037109375
23.8037109375
27.4658203125
32.958984375
39.36767578125
32.958984375
32.04345703125
40.283203125
49.4384765625
58.59375
60.4248046875
51.26953125
62.255859375
72.32666015625
74.15771484375
69.580078125
72.32666015625
78.7353515625
92.46826171875
92.46826171875
90.63720703125
109.86328125
114.44091796875
116.27197265625
125.42724609375
132.75146484375
146.484375
138.24462890625
144.6533203125
164.794921875
179.443359375
179.443359375
182.18994140625
193.17626953125
202.33154296875
209.65576171875
226.13525390625
234.375
242.61474609375
259.09423828125
252.685546875
249.93896484375
265.5029296875
278.3203125
289.306640625
292.05322265625
297.54638671875
295.71533203125
306.70166015625
314.02587890625
323.18115234375
323.18115234375
325.01220703125
326.84326171875
329.58984375
333.251953125
335.0830078125
335.0830078125
335.0830078125
337.82958984375
327.7587890625
326.84326171875
328.67431640625
320.4345703125
305.7861328125
317.68798828125
324.0966796875
292.05322265625
281.06689453125
281.06689453125
273.74267578125
267.333984375
250.8544921875
228.8818359375
216.064453125
205.99365234375
199.5849609375
174.86572265625
153.80859375
140.07568359375
128.173828125
110.77880859375
102.5390625
92.46826171875
74.15771484375
65.00244140625
53.1005859375
50.35400390625
26.55029296875
1.8310546875
-0.91552734375
-5.4931640625
-12.8173828125
-25.634765625
-31.1279296875
-34.7900390625
-38.4521484375
-43.02978515625
-39.36767578125
-47.607421875
-54.931640625
-68.66455078125
-63.17138671875
-61.34033203125
-75.98876953125
-75.0732421875
-65.91796875
-72.32666015625
-77.81982421875
-83.31298828125
-82.3974609375
-82.3974609375
-86.97509765625
-87.890625
-88.80615234375
-86.0595703125
-92.46826171875
-85.14404296875
-87.890625
-91.552734375
-91.552734375
-86.97509765625
-83.31298828125
-87.890625
-90.63720703125
-78.7353515625
-73.2421875
-75.0732421875
-80.56640625
-83.31298828125
-84.228515625
-80.56640625
-79.65087890625
-76.904296875
-77.81982421875
-75.0732421875
-75.0732421875
-77.81982421875
-72.32666015625
-70.49560546875
-68.66455078125
-75.0732421875
-72.32666015625
-65.91796875
-72.32666015625
-71.4111328125
-69.580078125
-77.81982421875
-71.4111328125
-64.0869140625
-67.7490234375
-65.00244140625
-69.580078125
-77.81982421875
-75.0732421875
-64.0869140625
-58.59375
-68.66455078125
-69.580078125
-65.91796875
-54.01611328125
-57.67822265625
-72.32666015625
-68.66455078125
-65.00244140625
-74.15771484375
-71.4111328125
-70.49560546875
-66.83349609375
-67.7490234375
-59.50927734375
-60.4248046875
-72.32666015625
-70.49560546875
-65.00244140625
-64.0869140625
-59.50927734375
-50.35400390625
-54.931640625
-67.7490234375
-75.98876953125
-70.49560546875
-67.7490234375
-65.00244140625
-68.66455078125
-69.580078125
-86.0595703125
-82.3974609375
-71.4111328125
-65.00244140625
-69.580078125
-84.228515625
-82.3974609375
-83.31298828125
-81.48193359375
-87.890625
-82.3974609375
-80.56640625
-75.98876953125
-86.97509765625
-88.80615234375
-79.65087890625
-76.904296875
-93.3837890625
-96.13037109375
-86.97509765625
-86.97509765625
-94.29931640625
-94.29931640625
-96.13037109375
-92.46826171875
-89.7216796875
-90.63720703125
-103.45458984375
-104.3701171875
-97.0458984375
-93.3837890625
-100.7080078125
-101.62353515625
-105.28564453125
-106.201171875
-108.94775390625
-97.0458984375
-89.7216796875
-99.79248046875
-102.5390625
-99.79248046875
-92.46826171875
-87.890625
-88.80615234375
-100.7080078125
-96.13037109375
-93.3837890625
-107.11669921875
-99.79248046875
-94.29931640625
-96.13037109375
-97.0458984375
-103.45458984375
-99.79248046875
-97.0458984375
-86.0595703125
-87.890625
-93.3837890625
-97.0458984375
-102.5390625
-105.28564453125
-107.11669921875
-111.6943359375
-97.96142578125
-102.5390625
-93.3837890625
-92.46826171875
-97.96142578125
-102.5390625
-103.45458984375
-104.3701171875
-105.28564453125
-102.5390625
-98.876953125
-99.79248046875
-101.62353515625
-106.201171875
-108.94775390625
-104.3701171875
-106.201171875
-106.201171875
-108.94775390625
-105.28564453125
-93.3837890625
-92.46826171875
-98.876953125
-104.3701171875
-106.201171875
-107.11669921875
-111.6943359375
-110.77880859375
-108.0322265625
-100.7080078125
-89.7216796875
-97.0458984375
-98.876953125
-101.62353515625
-99.79248046875
-108.0322265625
-102.5390625
-89.7216796875
-98.876953125
-106.201171875
-98.876953125
-91.552734375
-103.45458984375
-106.201171875
-100.7080078125
-102.5390625
-101.62353515625
-99.79248046875
-97.0458984375
-105.28564453125
-110.77880859375
-111.6943359375
-108.0322265625
-104.3701171875
-105.28564453125
-104.3701171875
-112.60986328125
-94.29931640625
-107.11669921875
-130.0048828125
-119.93408203125
-112.60986328125
-108.94775390625
-110.77880859375
-117.1875
-110.77880859375
-109.86328125
-107.11669921875
-108.0322265625
-112.60986328125
-107.11669921875
-110.77880859375
-114.44091796875
-110.77880859375
-102.5390625
-99.79248046875
-107.11669921875
-114.44091796875
-113.525390625
-108.0322265625
-102.5390625
-86.97509765625
-108.0322265625
-119.93408203125
-112.60986328125
-108.94775390625
-94.29931640625
-97.0458984375
-106.201171875
-105.28564453125
-112.60986328125
-108.0322265625
-112.60986328125
-111.6943359375
-113.525390625
-114.44091796875
-112.60986328125
-119.0185546875
-107.11669921875
-108.0322265625
-116.27197265625
-114.44091796875
-102.5390625
-103.45458984375
-112.60986328125
-106.201171875
-106.201171875
-111.6943359375
-105.28564453125
-111.6943359375
-118.10302734375
-108.94775390625
-108.0322265625
-102.5390625
-105.28564453125
-126.3427734375
-109.86328125
-100.7080078125
-105.28564453125
-113.525390625
-107.11669921875
-107.11669921875
-106.201171875
-99.79248046875
-111.6943359375
-103.45458984375
-107.11669921875
-116.27197265625
-113.525390625
-117.1875
-113.525390625
-103.45458984375
-103.45458984375
-106.201171875
-101.62353515625
-105.28564453125
-108.94775390625
-108.94775390625
-109.86328125
-108.94775390625
-110.77880859375
-103.45458984375
-105.28564453125
-113.525390625
-111.6943359375
-104.3701171875
-101.62353515625
-104.3701171875
-114.44091796875
-117.1875
-113.525390625
-120.849609375
-119.0185546875
-104.3701171875
-109.86328125
-107.11669921875
-103.45458984375
-110.77880859375
-105.28564453125
-110.77880859375
-126.3427734375
-112.60986328125
-108.0322265625
-98.876953125
-88.80615234375
-89.7216796875
-106.201171875
-108.0322265625
-108.94775390625
-106.201171875
-102.5390625
-101.62353515625
-100.7080078125
-86.97509765625
-90.63720703125
-103.45458984375
-96.13037109375
-97.0458984375
-95.21484375
-72.32666015625
-54.01611328125
-54.01611328125
-60.4248046875
-68.66455078125
-74.15771484375
-65.00244140625
-63.17138671875
-70.49560546875
-76.904296875
-79.65087890625
-83.31298828125
-82.3974609375
-90.63720703125
-97.0458984375
-92.46826171875
-83.31298828125
-77.81982421875
-90.63720703125
-107.11669921875
-109.86328125
-117.1875
-119.93408203125
-111.6943359375
-99.79248046875
-97.96142578125
-105.28564453125
-93.3837890625
-90.63720703125
-95.21484375
-105.28564453125
-115.3564453125
-123.59619140625
-135.498046875
-128.173828125
-127.25830078125
-122.6806640625
-126.3427734375
-119.93408203125
-119.0185546875
-119.93408203125
-120.849609375
-119.0185546875
-104.3701171875
-107.11669921875
-111.6943359375
-111.6943359375
-116.27197265625
-115.3564453125
-117.1875
-111.6943359375
-122.6806640625
-142.822265625
-173.9501953125
-190.4296875
-201.416015625
-220.64208984375
-198.66943359375
-149.23095703125
-101.62353515625
-59.50927734375
10.07080078125
124.51171875
259.09423828125
390.93017578125
519.10400390625
695.80078125
878.90625
1028.13720703125
1113.28125
1162.7197265625
1167.29736328125
1119.68994140625
1006.16455078125
802.001953125
474.2431640625
201.416015625
-79.65087890625
-402.83203125
-500.79345703125
-492.5537109375
-467.83447265625
-446.77734375
-434.87548828125
-401.91650390625
-363.46435546875
-329.58984375
-292.96875
-245.361328125
-204.16259765625
-174.86572265625
-139.16015625
-131.8359375
-124.51171875
-107.11669921875
-93.3837890625
-78.7353515625
-79.65087890625
-77.81982421875
-72.32666015625
-71.4111328125
-73.2421875
-67.7490234375
-62.255859375
-54.931640625
-56.7626953125
-53.1005859375
-54.01611328125
-55.84716796875
-47.607421875
-42.1142578125
-43.02978515625
-43.02978515625
-32.04345703125
-29.296875
-22.88818359375
-31.1279296875
-33.87451171875
-38.4521484375
-23.8037109375
-19.22607421875
-21.97265625
-14.6484375
-9.1552734375
-9.1552734375
-15.56396484375
-9.1552734375
12.8173828125
-0.91552734375
-5.4931640625
-3.662109375
-3.662109375
-2.74658203125
1.8310546875
10.07080078125
11.90185546875
0.91552734375
12.8173828125
25.634765625
27.4658203125
32.958984375
34.7900390625
42.1142578125
43.02978515625
43.02978515625
38.4521484375
51.26953125
53.1005859375
47.607421875
51.26953125
56.7626953125
58.59375
68.66455078125
60.4248046875
64.0869140625
75.0732421875
79.65087890625
89.7216796875
92.46826171875
90.63720703125
98.876953125
108.0322265625
122.6806640625
130.92041015625
126.3427734375
132.75146484375
141.90673828125
151.06201171875
149.23095703125
160.21728515625
170.2880859375
184.9365234375
184.9365234375
181.2744140625
189.51416015625
211.48681640625
214.2333984375
216.064453125
225.2197265625
240.78369140625
250.8544921875
244.44580078125
261.8408203125
270.99609375
286.56005859375
300.29296875
314.02587890625
319.51904296875
324.0966796875
330.50537109375
327.7587890625
337.82958984375
338.7451171875
344.23828125
353.3935546875
359.80224609375
352.47802734375
357.0556640625
357.97119140625
357.0556640625
350.64697265625
350.64697265625
351.5625
344.23828125
352.47802734375
354.30908203125
337.82958984375
336.9140625
335.0830078125
325.927734375
320.4345703125
303.03955078125
294.7998046875
272.8271484375
272.8271484375
259.09423828125
236.2060546875
227.05078125
216.97998046875
200.50048828125
192.2607421875
167.54150390625
141.90673828125
125.42724609375
111.6943359375
97.0458984375
89.7216796875
77.81982421875
63.17138671875
54.931640625
43.02978515625
33.87451171875
26.55029296875
16.4794921875
0
-2.74658203125
-7.32421875
-5.4931640625
-15.56396484375
-43.02978515625
-45.7763671875
-40.283203125
-47.607421875
-52.18505859375
-61.34033203125
-63.17138671875
-58.59375
-61.34033203125
-65.91796875
-70.49560546875
-72.32666015625
-74.15771484375
-74.15771484375
-68.66455078125
-73.2421875
-79.65087890625
-78.7353515625
-76.904296875
-75.0732421875
-84.228515625
-88.80615234375
-80.56640625
-78.7353515625
-77.81982421875
-72.32666015625
-72.32666015625
-75.0732421875
-76.904296875
-79.65087890625
-75.0732421875
-70.49560546875
-69.580078125
-69.580078125
-63.17138671875
-63.17138671875
-58.59375
-76.904296875
-80.56640625
-71.4111328125
-61.34033203125
-54.931640625
-65.91796875
-71.4111328125
-69.580078125
-56.7626953125
-54.01611328125
-59.50927734375
-51.26953125
-59.50927734375
-59.50927734375
-55.84716796875
-58.59375
-52.18505859375
-59.50927734375
-62.255859375
-60.4248046875
-63.17138671875
-60.4248046875
-58.59375
-65.00244140625
-56.7626953125
-50.35400390625
-46.69189453125
-44.86083984375
-32.04345703125
-32.04345703125
-43.9453125
-61.34033203125
-72.32666015625
-64.0869140625
-64.0869140625
-72.32666015625
-65.91796875
-65.91796875
-64.0869140625
-61.34033203125
-60.4248046875
-56.7626953125
-61.34033203125
-57.67822265625
-55.84716796875
-56.7626953125
-53.1005859375
-62.255859375
-73.2421875
-69.580078125
-65.00244140625
-66.83349609375
-60.4248046875
-65.91796875
-71.4111328125
-67.7490234375
-74.15771484375
-79.65087890625
-80.56640625
-68.66455078125
-72.32666015625
-73.2421875
-77.81982421875
-81.48193359375
-74.15771484375
-75.0732421875
-78.7353515625
-72.32666015625
-76.904296875
-78.7353515625
-82.3974609375
-84.228515625
-85.14404296875
-88.80615234375
-86.97509765625
-79.65087890625
-78.7353515625
-79.65087890625
-91.552734375
-89.7216796875
-86.97509765625
-83.31298828125
-93.3837890625
-94.29931640625
-88.80615234375
-83.31298828125
-86.97509765625
-93.3837890625
-92.46826171875
-93.3837890625
-99.79248046875
-92.46826171875
-87.890625
-81.48193359375
-95.21484375
-102.5390625
-112.60986328125
-109.86328125
-96.13037109375
-96.13037109375
-90.63720703125
-88.80615234375
-89.7216796875
-91.552734375
-84.228515625
-83.31298828125
-88.80615234375
-88.80615234375
-98.876953125
-97.0458984375
-90.63720703125
-88.80615234375
-87.890625
-97.0458984375
-99.79248046875
-94.29931640625
-89.7216796875
-102.5390625
-104.3701171875
-97.0458984375
-98.876953125
-102.5390625
-100.7080078125
-98.876953125
-96.13037109375
-96.13037109375
-99.79248046875
-91.552734375
-95.21484375
-101.62353515625
-94.29931640625
-92.46826171875
-95.21484375
-91.552734375
-97.0458984375
-99.79248046875
-100.7080078125
-108.94775390625
-105.28564453125
-97.96142578125
-110.77880859375
-117.1875
-102.5390625
-100.7080078125
-95.21484375
-86.97509765625
-101.62353515625
-101.62353515625
-96.13037109375
-90.63720703125
-91.552734375
-85.14404296875
-80.56640625
-98.876953125
-104.3701171875
-98.876953125
-101.62353515625
-104.3701171875
-100.7080078125
-95.21484375
-97.0458984375
-97.96142578125
-94.29931640625
-97.96142578125
-100.7080078125
-97.96142578125
-103.45458984375
-92.46826171875
-92.46826171875
-97.96142578125
-94.29931640625
-98.876953125
-97.0458984375
-96.13037109375
-97.0458984375
-103.45458984375
-98.876953125
-89.7216796875
-89.7216796875
-100.7080078125
-96.13037109375
-102.5390625
-102.5390625
-101.62353515625
-100.7080078125
-102.5390625
-101.62353515625
-90.63720703125
-90.63720703125
-99.79248046875
-100.7080078125
-95.21484375
-99.79248046875
-99.79248046875
-91.552734375
-99.79248046875
-103.45458984375
-87.890625
-103.45458984375
-103.45458984375
-94.29931640625
-96.13037109375
-103.45458984375
-99.79248046875
-98.876953125
-94.29931640625
-96.13037109375
-94.29931640625
-88.80615234375
-98.876953125
-108.94775390625
-103.45458984375
-89.7216796875
-91.552734375
-100.7080078125
-101.62353515625
-97.96142578125
-93.3837890625
-93.3837890625
-95.21484375
-92.46826171875
-84.228515625
-97.0458984375
-107.11669921875
-102.5390625
-106.201171875
-103.45458984375
-100.7080078125
-101.62353515625
-99.79248046875
-91.552734375
-97.96142578125
-102.5390625
-101.62353515625
-98.876953125
-95.21484375
-93.3837890625
-94.29931640625
-89.7216796875
-91.552734375
-102.5390625
-97.96142578125
-97.96142578125
-98.876953125
-86.0595703125
-90.63720703125
-82.3974609375
-77.81982421875
-88.80615234375
-101.62353515625
-90.63720703125
-84.228515625
-92.46826171875
-92.46826171875
-86.97509765625
-88.80615234375
-86.0595703125
-91.552734375
-82.3974609375
-70.49560546875
-49.4384765625
-58.59375
-59.50927734375
-47.607421875
-65.00244140625
-67.7490234375
-59.50927734375
-52.18505859375
-67.7490234375
-59.50927734375
-64.0869140625
-75.98876953125
-84.228515625
-78.7353515625
-83.31298828125
-83.31298828125
-76.904296875
-79.65087890625
-96.13037109375
-95.21484375
-92.46826171875
-97.0458984375
-93.3837890625
-95.21484375
-89.7216796875
-86.97509765625
-100.7080078125
-108.94775390625
-102.5390625
-91.552734375
-107.11669921875
-106.201171875
-114.44091796875
-109.86328125
-108.94775390625
-109.86328125
-127.25830078125
-127.25830078125
-111.6943359375
-108.0322265625
-104.3701171875
-104.3701171875
-105.28564453125
-110.77880859375
-99.79248046875
-99.79248046875
-100.7080078125
-105.28564453125
-102.5390625
-107.11669921875
-110.77880859375
-120.849609375
-151.9775390625
-165.71044921875
-190.4296875
-209.65576171875
-212.40234375
-177.6123046875
-122.6806640625
-83.31298828125
-29.296875
65.00244140625
193.17626953125
320.4345703125
442.19970703125
585.02197265625
780.94482421875
952.1484375
1065.673828125
1143.49365234375
1196.59423828125
1170.0439453125
1094.05517578125
964.9658203125
719.6044921875
398.25439453125
127.25830078125
-195.00732421875
-480.65185546875
-513.61083984375
-492.5537109375
-457.763671875
-443.115234375
-431.21337890625
-404.6630859375
-358.88671875
-318.603515625
-275.57373046875
-222.47314453125
-185.85205078125
-162.9638671875
-130.92041015625
-110.77880859375
-86.0595703125
-80.56640625
-75.0732421875
-61.34033203125
-63.17138671875
-75.0732421875
-66.83349609375
-47.607421875
-54.01611328125
-53.1005859375
-48.52294921875
-49.4384765625
-54.931640625
-54.931640625
-26.55029296875
-33.87451171875
-39.36767578125
-29.296875
-32.04345703125
-27.4658203125
-25.634765625
-18.310546875
-23.8037109375
-20.1416015625
-18.310546875
-11.90185546875
-13.73291015625
-11.90185546875
-13.73291015625
-10.07080078125
-2.74658203125
-4.57763671875
-10.07080078125
-4.57763671875
-2.74658203125
5.4931640625
15.56396484375
18.310546875
18.310546875
21.97265625
19.22607421875
10.07080078125
12.8173828125
13.73291015625
24.71923828125
32.04345703125
32.958984375
38.4521484375
34.7900390625
41.19873046875
45.7763671875
47.607421875
53.1005859375
67.7490234375
73.2421875
59.50927734375
65.91796875
72.32666015625
71.4111328125
73.2421875
71.4111328125
77.81982421875
87.890625
92.46826171875
92.46826171875
105.28564453125
110.77880859375
113.525390625
118.10302734375
121.76513671875
131.8359375
147.39990234375
142.822265625
150.146484375
173.9501953125
180.35888671875
169.37255859375
180.35888671875
190.4296875
203.2470703125
206.9091796875
214.2333984375
227.96630859375
231.62841796875
244.44580078125
258.1787109375
278.3203125
269.1650390625
275.57373046875
283.8134765625
290.22216796875
308.53271484375
321.35009765625
325.927734375
326.84326171875
336.9140625
346.98486328125
357.0556640625
350.64697265625
368.95751953125
375.3662109375
366.2109375
370.78857421875
375.3662109375
368.0419921875
373.53515625
381.77490234375
378.11279296875
365.29541015625
368.95751953125
374.45068359375
352.47802734375
358.88671875
363.46435546875
351.5625
345.15380859375
333.251953125
324.0966796875
316.7724609375
306.70166015625
287.4755859375
262.75634765625
244.44580078125
227.05078125
221.5576171875
213.31787109375
194.091796875
170.2880859375
151.9775390625
132.75146484375
128.173828125
114.44091796875
99.79248046875
95.21484375
80.56640625
77.81982421875
57.67822265625
34.7900390625
26.55029296875
23.8037109375
13.73291015625
3.662109375
-3.662109375
-14.6484375
-21.97265625
-17.39501953125
-32.958984375
-40.283203125
-33.87451171875
-32.958984375
-38.4521484375
-49.4384765625
-54.01611328125
-48.52294921875
-49.4384765625
-45.7763671875
-43.9453125
-55.84716796875
-54.01611328125
-61.34033203125
-76.904296875
-69.580078125
-61.34033203125
-62.255859375
-62.255859375
-66.83349609375
-64.0869140625
-65.00244140625
-68.66455078125
-71.4111328125
-72.32666015625
-69.580078125
-66.83349609375
-66.83349609375
-60.4248046875
-70.49560546875
-66.83349609375
-65.00244140625
-57.67822265625
-57.67822265625
-57.67822265625
-54.01611328125
-47.607421875
-45.7763671875
-57.67822265625
-55.84716796875
-54.01611328125
-54.01611328125
-54.01611328125
-53.1005859375
-46.69189453125
-47.607421875
-46.69189453125
-51.26953125
-47.607421875
-48.52294921875
-43.02978515625
-21.97265625
-42.1142578125
-43.9453125
-42.1142578125
-35.70556640625
-36.62109375
-36.62109375
-37.53662109375
-40.283203125
-39.36767578125
-32.04345703125
-32.04345703125
-29.296875
-32.04345703125
-31.1279296875
-32.958984375
-35.70556640625
-43.02978515625
-37.53662109375
-37.53662109375
-42.1142578125
-40.283203125
-31.1279296875
-35.70556640625
-32.958984375
-34.7900390625
-39.36767578125
-34.7900390625
-40.283203125
-35.70556640625
-41.19873046875
-55.84716796875
-54.01611328125
-42.1142578125
-49.4384765625
-53.1005859375
-52.18505859375
-51.26953125
-54.01611328125
-56.7626953125
-56.7626953125
-48.52294921875
-53.1005859375
-62.255859375
-55.84716796875
-56.7626953125
-65.00244140625
-65.91796875
-63.17138671875
-62.255859375
-65.00244140625
-70.49560546875
-65.91796875
-65.00244140625
-65.00244140625
-60.4248046875
-65.91796875
-75.98876953125
-68.66455078125
-72.32666015625
-66.83349609375
-60.4248046875
-59.50927734375
-65.91796875
-75.0732421875
-70.49560546875
-65.00244140625
-63.17138671875
-70.49560546875
-63.17138671875
-55.84716796875
-65.91796875
-77.81982421875
-72.32666015625
-66.83349609375
-68.66455078125
-68.66455078125
-73.2421875
-76.904296875
-71.4111328125
-62.255859375
-70.49560546875
-75.0732421875
-56.7626953125
-68.66455078125
-83.31298828125
-79.65087890625
-79.65087890625
-83.31298828125
-77.81982421875
-67.7490234375
-61.34033203125
-71.4111328125
-74.15771484375
-72.32666015625
-68.66455078125
-71.4111328125
-65.91796875
-67.7490234375
-69.580078125
-71.4111328125
-75.0732421875
-76.904296875
-73.2421875
-72.32666015625
-72.32666015625
-68.66455078125
-72.32666015625
-75.98876953125
-74.15771484375
-69.580078125
-73.2421875
-76.904296875
-69.580078125
-73.2421875
-75.0732421875
-82.3974609375
-73.2421875
-71.4111328125
-78.7353515625
-76.904296875
-74.15771484375
-72.32666015625
-75.0732421875
-77.81982421875
-71.4111328125
-59.50927734375
-75.98876953125
-84.228515625
-80.56640625
-86.0595703125
-83.31298828125
-78.7353515625
-67.7490234375
-74.15771484375
-75.98876953125
-81.48193359375
-76.904296875
-75.0732421875
-65.91796875
-62.255859375
-63.17138671875
-70.49560546875
-74.15771484375
-63.17138671875
-57.67822265625
-68.66455078125
-70.49560546875
-73.2421875
-65.91796875
-63.17138671875
-75.98876953125
-76.904296875
-82.3974609375
-75.0732421875
-73.2421875
-69.580078125
-68.66455078125
-69.580078125
-59.50927734375
-63.17138671875
-74.15771484375
-81.48193359375
-81.48193359375
-71.4111328125
-73.2421875
-73.2421875
-67.7490234375
-72.32666015625
-75.98876953125
-76.904296875
-67.7490234375
-65.00244140625
-74.15771484375
-75.0732421875
-62.255859375
-71.4111328125
-65.91796875
-69.580078125
-70.49560546875
-62.255859375
-69.580078125
-70.49560546875
-65.91796875
-74.15771484375
-75.0732421875
-69.580078125
-65.91796875
-63.17138671875
-68.66455078125
-75.0732421875
-73.2421875
-67.7490234375
-58.59375
-74.15771484375
-68.66455078125
-65.00244140625
-65.00244140625
-66.83349609375
-65.91796875
-63.17138671875
-65.00244140625
-69.580078125
-62.255859375
-46.69189453125
-62.255859375
-72.32666015625
-74.15771484375
-65.00244140625
-54.931640625
-60.4248046875
-61.34033203125
-62.255859375
-59.50927734375
-59.50927734375
-65.00244140625
-69.580078125
-75.0732421875
-66.83349609375
-69.580078125
-80.56640625
-65.00244140625
-63.17138671875
-67.7490234375
-77.81982421875
-69.580078125
-74.15771484375
-78.7353515625
-73.2421875
-64.0869140625
-65.91796875
-63.17138671875
-61.34033203125
-58.59375
-60.4248046875
-65.91796875
-68.66455078125
-68.66455078125
-70.49560546875
-71.4111328125
-69.580078125
-67.7490234375
-68.66455078125
-69.580078125
-56.7626953125
-58.59375
-57.67822265625
-54.931640625
-59.50927734375
-60.4248046875
-57.67822265625
-55.84716796875
-53.1005859375
-59.50927734375
-61.34033203125
-48.52294921875
-49.4384765625
-54.931640625
-51.26953125
-46.69189453125
-43.02978515625
-30.21240234375
-26.55029296875
-11.90185546875
-29.296875
-31.1279296875
-25.634765625
-28.38134765625
-30.21240234375
-27.4658203125
-34.7900390625
-43.02978515625
-50.35400390625
-43.9453125
-45.7763671875
-44.86083984375
-61.34033203125
-63.17138671875
-67.7490234375
-59.50927734375
-62.255859375
-66.83349609375
-62.255859375
-62.255859375
-54.931640625
-50.35400390625
-55.84716796875
-56.7626953125
-64.0869140625
-71.4111328125
-73.2421875
-76.904296875
-83.31298828125
-82.3974609375
-72.32666015625
-82.3974609375
-85.14404296875
-81.48193359375
-82.3974609375
-80.56640625
-71.4111328125
-58.59375
-75.98876953125
-82.3974609375
-91.552734375
-93.3837890625
-82.3974609375
-73.2421875
-83.31298828125
-79.65087890625
-73.2421875
-75.98876953125
-76.904296875
-95.21484375
-123.59619140625
-140.9912109375
-160.21728515625
-165.71044921875
-137.3291015625
-78.7353515625
-38.4521484375
-10.986328125
63.17138671875
176.69677734375
288.39111328125
411.07177734375
542.90771484375
713.19580078125
914.61181640625
1073.91357421875
1155.3955078125
1213.07373046875
1225.89111328125
1170.95947265625
1068.42041015625
860.595703125
563.96484375
296.630859375
17.39501953125
-325.927734375
-487.97607421875
-489.80712890625
-459.5947265625
-433.04443359375
-405.57861328125
-364.3798828125
-305.7861328125
-262.75634765625
-223.388671875
-184.9365234375
-150.146484375
-121.76513671875
-97.0458984375
-67.7490234375
-51.26953125
-43.9453125
-42.1142578125
-43.02978515625
-44.86083984375
-33.87451171875
-42.1142578125
-43.02978515625
-39.36767578125
-24.71923828125
-4.57763671875
-14.6484375
-19.22607421875
-26.55029296875
-18.310546875
-20.1416015625
-14.6484375
-10.986328125
-10.07080078125
-13.73291015625
-4.57763671875
1.8310546875
0.91552734375
16.4794921875
10.986328125
8.23974609375
13.73291015625
8.23974609375
22.88818359375
21.05712890625
21.05712890625
17.39501953125
18.310546875
21.05712890625
30.21240234375
35.70556640625
39.36767578125
32.958984375
33.87451171875
40.283203125
45.7763671875
47.607421875
54.01611328125
45.7763671875
53.1005859375
48.52294921875
50.35400390625
54.931640625
58.59375
61.34033203125
74.15771484375
84.228515625
71.4111328125
72.32666015625
78.7353515625
83.31298828125
92.46826171875
92.46826171875
91.552734375
94.29931640625
98.876953125
98.876953125
109.86328125
114.44091796875
117.1875
122.6806640625
130.0048828125
145.56884765625
145.56884765625
145.56884765625
149.23095703125
157.470703125
162.04833984375
172.119140625
176.69677734375
170.2880859375
184.02099609375
190.4296875
202.33154296875
218.81103515625
217.8955078125
214.2333984375
229.79736328125
243.5302734375
257.26318359375
270.08056640625
272.8271484375
283.8134765625
285.64453125
292.05322265625
297.54638671875
316.7724609375
329.58984375
336.9140625
342.4072265625
347.900390625
352.47802734375
356.14013671875
353.3935546875
357.97119140625
364.3798828125
372.61962890625
381.77490234375
379.94384765625
378.11279296875
395.5078125
390.0146484375
379.94384765625
381.77490234375
380.859375
377.197265625
373.53515625
371.7041015625
364.3798828125
358.88671875
347.900390625
337.82958984375
332.33642578125
326.84326171875
320.4345703125
305.7861328125
288.39111328125
278.3203125
265.5029296875
245.361328125
226.13525390625
225.2197265625
209.65576171875
186.767578125
171.20361328125
164.794921875
150.146484375
130.0048828125
118.10302734375
106.201171875
96.13037109375
75.0732421875
65.91796875
53.1005859375
54.931640625
34.7900390625
21.05712890625
17.39501953125
10.986328125
9.1552734375
5.4931640625
1.8310546875
-8.23974609375
-7.32421875
-13.73291015625
-19.22607421875
-18.310546875
-25.634765625
-27.4658203125
-29.296875
-39.36767578125
-40.283203125
-35.70556640625
-35.70556640625
-50.35400390625
-48.52294921875
-32.958984375
-25.634765625
-33.87451171875
-40.283203125
-37.53662109375
-42.1142578125
-41.19873046875
-43.02978515625
-42.1142578125
-48.52294921875
-46.69189453125
-47.607421875
-42.1142578125
-31.1279296875
-44.86083984375
-41.19873046875
-42.1142578125
-34.7900390625
-40.283203125
-39.36767578125
-39.36767578125
-40.283203125
-39.36767578125
-34.7900390625
-26.55029296875
-42.1142578125
-37.53662109375
-39.36767578125
-30.21240234375
-24.71923828125
-40.283203125
-39.36767578125
-31.1279296875
-31.1279296875
-27.4658203125
-26.55029296875
-27.4658203125
-27.4658203125
-28.38134765625
-24.71923828125
-24.71923828125
-26.55029296875
-29.296875
-28.38134765625
-29.296875
-23.8037109375
-20.1416015625
-20.1416015625
-26.55029296875
-23.8037109375
-21.05712890625
-21.97265625
-21.97265625
-25.634765625
-26.55029296875
-26.55029296875
-21.05712890625
-26.55029296875
-11.90185546875
-10.986328125
-23.8037109375
-28.38134765625
-21.97265625
-31.1279296875
-31.1279296875
-29.296875
-24.71923828125
-23.8037109375
-25.634765625
-21.05712890625
-22.88818359375
-34.7900390625
-38.4521484375
-32.04345703125
-30.21240234375
-40.283203125
-43.02978515625
-38.4521484375
-45.7763671875
-43.9453125
-36.62109375
-35.70556640625
-38.4521484375
-38.4521484375
-44.86083984375
-45.7763671875
-42.1142578125
-40.283203125
-48.52294921875
-50.35400390625
-48.52294921875
-43.9453125
-41.19873046875
-44.86083984375
-43.02978515625
-43.02978515625
-44.86083984375
-43.9453125
-43.02978515625
-58.59375
-53.1005859375
-39.36767578125
-36.62109375
-39.36767578125
-39.36767578125
-41.19873046875
-47.607421875
-52.18505859375
-47.607421875
-46.69189453125
-45.7763671875
-51.26953125
-55.84716796875
-47.607421875
-42.1142578125
-45.7763671875
-53.1005859375
-46.69189453125
-65.00244140625
-64.0869140625
-61.34033203125
-54.01611328125
-56.7626953125
-63.17138671875
-60.4248046875
-46.69189453125
-56.7626953125
-56.7626953125
-52.18505859375
-56.7626953125
-60.4248046875
-56.7626953125
-64.0869140625
-62.255859375
-49.4384765625
-52.18505859375
-48.52294921875
-50.35400390625
-60.4248046875
-55.84716796875
-59.50927734375
-52.18505859375
-56.7626953125
-65.00244140625
-61.34033203125
-61.34033203125
-54.931640625
-55.84716796875
-51.26953125
-50.35400390625
-59.50927734375
-59.50927734375
-51.26953125
-60.4248046875
-60.4248046875
-64.0869140625
-54.931640625
-55.84716796875
-58.59375
-57.67822265625
-43.9453125
-59.50927734375
-69.580078125
-63.17138671875
-51.26953125
-51.26953125
-58.59375
-56.7626953125
-59.50927734375
-65.00244140625
-61.34033203125
-56.7626953125
-62.255859375
-50.35400390625
-55.84716796875
-61.34033203125
-59.50927734375
-56.7626953125
-65.00244140625
-58.59375
-58.59375
-60.4248046875
-67.7490234375
-63.17138671875
-54.01611328125
-51.26953125
-56.7626953125
-65.91796875
-68.66455078125
-67.7490234375
-66.83349609375
-62.255859375
-58.59375
-67.7490234375
-62.255859375
-59.50927734375
-67.7490234375
-64.0869140625
-60.4248046875
-54.01611328125
-55.84716796875
-50.35400390625
-41.19873046875
-47.607421875
-65.91796875
-59.50927734375
-56.7626953125
-65.00244140625
-66.83349609375
-61.34033203125
-61.34033203125
-58.59375
-59.50927734375
-58.59375
-57.67822265625
-57.67822265625
-56.7626953125
-56.7626953125
-55.84716796875
-57.67822265625
-59.50927734375
-60.4248046875
-56.7626953125
-48.52294921875
-52.18505859375
-55.84716796875
-54.931640625
-61.34033203125
-55.84716796875
-64.0869140625
-59.50927734375
-65.91796875
-55.84716796875
-54.931640625
-63.17138671875
-55.84716796875
-43.02978515625
-45.7763671875
-59.50927734375
-60.4248046875
-60.4248046875
-61.34033203125
-56.7626953125
-65.00244140625
-67.7490234375
-64.0869140625
-67.7490234375
-69.580078125
-63.17138671875
-58.59375
-61.34033203125
-61.34033203125
-56.7626953125
-54.01611328125
-52.18505859375
-57.67822265625
-56.7626953125
-58.59375
-54.931640625
-63.17138671875
-64.0869140625
-63.17138671875
-61.34033203125
-68.66455078125
-75.0732421875
-69.580078125
-61.34033203125
-59.50927734375
-60.4248046875
-55.84716796875
-49.4384765625
-59.50927734375
-61.34033203125
-51.26953125
-65.00244140625
-70.49560546875
-54.931640625
-56.7626953125
-60.4248046875
-54.931640625
-55.84716796875
-59.50927734375
-65.00244140625
-54.01611328125
-47.607421875
-52.18505859375
-48.52294921875
-40.283203125
-52.18505859375
-53.1005859375
-53.1005859375
-54.01611328125
-54.931640625
-63.17138671875
-56.7626953125
-46.69189453125
-53.1005859375
-65.00244140625
-57.67822265625
-50.35400390625
-44.86083984375
-26.55029296875
-24.71923828125
-21.97265625
-23.8037109375
-19.22607421875
-19.22607421875
-16.4794921875
-16.4794921875
-20.1416015625
-22.88818359375
-36.62109375
-36.62109375
-34.7900390625
-43.02978515625
-50.35400390625
-39.36767578125
-30.21240234375
-26.55029296875
-39.36767578125
-37.53662109375
-45.7763671875
-51.26953125
-53.1005859375
-46.69189453125
-51.26953125
-43.02978515625
-50.35400390625
-45.7763671875
-41.19873046875
-51.26953125
-58.59375
-56.7626953125
-61.34033203125
-65.91796875
-65.00244140625
-62.255859375
-54.01611328125
-43.02978515625
-57.67822265625
-67.7490234375
-56.7626953125
-57.67822265625
-57.67822265625
-65.00244140625
-69.580078125
-65.00244140625
-56.7626953125
-54.931640625
-59.50927734375
-63.17138671875
-63.17138671875
-77.81982421875
-101.62353515625
-119.0185546875
-147.39990234375
-155.6396484375
-163.87939453125
-127.25830078125
-77.81982421875
-43.02978515625
21.97265625
121.76513671875
249.0234375
