ECG
281.06689453125
281.982421875
285.64453125
292.05322265625
286.56005859375
283.8134765625
280.1513671875
275.57373046875
268.24951171875
267.333984375
258.1787109375
252.685546875
243.5302734375
231.62841796875
227.05078125
216.97998046875
205.078125
194.091796875
178.52783203125
163.87939453125
147.39990234375
129.08935546875
119.0185546875
107.11669921875
86.0595703125
87.890625
83.31298828125
71.4111328125
65.91796875
69.580078125
68.66455078125
61.34033203125
46.69189453125
40.283203125
32.04345703125
10.07080078125
0.91552734375
-2.74658203125
-17.39501953125
-8.23974609375
-10.986328125
-22.88818359375
-28.38134765625
-23.8037109375
-31.1279296875
-32.04345703125
-35.70556640625
-32.958984375
-24.71923828125
-32.958984375
-29.296875
-29.296875
-33.87451171875
-43.02978515625
-43.02978515625
-46.69189453125
-42.1142578125
-43.9453125
-50.35400390625
-58.59375
-49.4384765625
-52.18505859375
-54.931640625
-57.67822265625
-52.18505859375
-47.607421875
-39.36767578125
-38.4521484375
-45.7763671875
-42.1142578125
-42.1142578125
-42.1142578125
-41.19873046875
-32.04345703125
-31.1279296875
-35.70556640625
-38.4521484375
-34.7900390625
-33.87451171875
-41.19873046875
-43.9453125
-50.35400390625
-43.02978515625
-40.283203125
-38.4521484375
-35.70556640625
-32.04345703125
-39.36767578125
-54.01611328125
-63.17138671875
-53.1005859375
-51.26953125
-51.26953125
-52.18505859375
-57.67822265625
-63.17138671875
-62.255859375
-52.18505859375
-56.7626953125
-65.91796875
-62.255859375
-73.2421875
-84.228515625
-82.3974609375
-65.91796875
-69.580078125
-72.32666015625
-65.00244140625
-65.00244140625
-65.91796875
-60.4248046875
-65.00244140625
-59.50927734375
-43.9453125
-42.1142578125
-47.607421875
-49.4384765625
-57.67822265625
-61.34033203125
-61.34033203125
-63.17138671875
-73.2421875
-71.4111328125
-72.32666015625
-68.66455078125
-65.91796875
-69.580078125
-68.66455078125
-68.66455078125
-65.91796875
-62.255859375
-73.2421875
-72.32666015625
-73.2421875
-65.91796875
-70.49560546875
-65.91796875
-71.4111328125
-80.56640625
-86.97509765625
-93.3837890625
-92.46826171875
-98.876953125
-91.552734375
-72.32666015625
-65.91796875
-68.66455078125
-76.904296875
-78.7353515625
-80.56640625
-94.29931640625
-106.201171875
-90.63720703125
-75.0732421875
-75.98876953125
-85.14404296875
-81.48193359375
-78.7353515625
-64.0869140625
-65.91796875
-74.15771484375
-75.0732421875
-83.31298828125
-76.904296875
-78.7353515625
-75.0732421875
-69.580078125
-69.580078125
-72.32666015625
-77.81982421875
-74.15771484375
-74.15771484375
-76.904296875
-81.48193359375
-79.65087890625
-87.890625
-89.7216796875
-84.228515625
-80.56640625
-69.580078125
-75.98876953125
-68.66455078125
-72.32666015625
-73.2421875
-76.904296875
-81.48193359375
-80.56640625
-88.80615234375
-91.552734375
-94.29931640625
-83.31298828125
-78.7353515625
-80.56640625
-77.81982421875
-80.56640625
-79.65087890625
-70.49560546875
-63.17138671875
-75.0732421875
-75.98876953125
-86.0595703125
-92.46826171875
-102.5390625
-108.94775390625
-103.45458984375
-96.13037109375
-91.552734375
-92.46826171875
-89.7216796875
-80.56640625
-95.21484375
-90.63720703125
-82.3974609375
-72.32666015625
-70.49560546875
-75.0732421875
-80.56640625
-75.98876953125
-74.15771484375
-78.7353515625
-70.49560546875
-70.49560546875
-86.97509765625
-79.65087890625
-73.2421875
-79.65087890625
-81.48193359375
-75.0732421875
-62.255859375
-43.02978515625
-39.36767578125
-28.38134765625
-28.38134765625
-32.04345703125
-39.36767578125
-40.283203125
-34.7900390625
-30.21240234375
-28.38134765625
-32.04345703125
-38.4521484375
-32.958984375
-30.21240234375
-39.36767578125
-44.86083984375
-47.607421875
-43.02978515625
-38.4521484375
-41.19873046875
-36.62109375
-32.958984375
-22.88818359375
-14.6484375
-10.07080078125
-11.90185546875
-18.310546875
-13.73291015625
-7.32421875
-10.986328125
-0.91552734375
2.74658203125
-1.8310546875
-15.56396484375
-21.97265625
-22.88818359375
-34.7900390625
-52.18505859375
-63.17138671875
-65.91796875
-77.81982421875
-82.3974609375
-76.904296875
-71.4111328125
-84.228515625
-86.0595703125
-88.80615234375
-95.21484375
-87.890625
-79.65087890625
-84.228515625
-83.31298828125
-82.3974609375
-85.14404296875
-86.97509765625
-86.97509765625
-89.7216796875
-85.14404296875
-73.2421875
-69.580078125
-72.32666015625
-69.580078125
-75.98876953125
-85.14404296875
-86.97509765625
-89.7216796875
-94.29931640625
-101.62353515625
-107.11669921875
-119.0185546875
-127.25830078125
-124.51171875
-118.10302734375
-114.44091796875
-86.97509765625
-43.9453125
27.4658203125
140.9912109375
320.4345703125
503.5400390625
674.74365234375
847.7783203125
1032.71484375
1156.31103515625
1190.185546875
1139.83154296875
1011.65771484375
831.298828125
590.51513671875
302.1240234375
25.634765625
-197.75390625
-346.0693359375
-417.48046875
-390.0146484375
-348.81591796875
-310.36376953125
-286.56005859375
-263.671875
-246.27685546875
-226.13525390625
-200.50048828125
-172.119140625
-134.58251953125
-96.13037109375
-73.2421875
-59.50927734375
-58.59375
-59.50927734375
-59.50927734375
-62.255859375
-60.4248046875
-61.34033203125
-62.255859375
-60.4248046875
-47.607421875
-43.9453125
-32.958984375
-38.4521484375
-43.02978515625
-51.26953125
-49.4384765625
-46.69189453125
-39.36767578125
-36.62109375
-43.9453125
-43.9453125
-32.958984375
-30.21240234375
-31.1279296875
-32.958984375
-25.634765625
-23.8037109375
-24.71923828125
-20.1416015625
-15.56396484375
-15.56396484375
-19.22607421875
-14.6484375
-7.32421875
-10.07080078125
-8.23974609375
-21.05712890625
-9.1552734375
-2.74658203125
-1.8310546875
0.91552734375
2.74658203125
0
3.662109375
6.40869140625
6.40869140625
12.8173828125
9.1552734375
6.40869140625
13.73291015625
17.39501953125
20.1416015625
24.71923828125
26.55029296875
33.87451171875
35.70556640625
32.958984375
46.69189453125
44.86083984375
53.1005859375
48.52294921875
48.52294921875
47.607421875
45.7763671875
51.26953125
54.01611328125
52.18505859375
55.84716796875
65.91796875
74.15771484375
75.0732421875
80.56640625
86.97509765625
84.228515625
86.0595703125
86.0595703125
91.552734375
97.96142578125
114.44091796875
118.10302734375
119.93408203125
128.173828125
134.58251953125
148.3154296875
159.3017578125
152.89306640625
149.23095703125
151.06201171875
162.04833984375
173.03466796875
175.78125
184.02099609375
187.68310546875
199.5849609375
205.99365234375
213.31787109375
224.30419921875
224.30419921875
221.5576171875
231.62841796875
234.375
232.5439453125
227.05078125
246.27685546875
251.77001953125
254.5166015625
270.08056640625
283.8134765625
291.1376953125
285.64453125
286.56005859375
286.56005859375
291.1376953125
286.56005859375
288.39111328125
294.7998046875
291.1376953125
294.7998046875
289.306640625
281.06689453125
267.333984375
253.60107421875
247.1923828125
243.5302734375
227.05078125
215.14892578125
209.65576171875
201.416015625
189.51416015625
185.85205078125
181.2744140625
167.54150390625
165.71044921875
149.23095703125
132.75146484375
122.6806640625
105.28564453125
98.876953125
81.48193359375
64.0869140625
58.59375
55.84716796875
53.1005859375
48.52294921875
43.9453125
31.1279296875
20.1416015625
1.8310546875
0
-1.8310546875
0
0
2.74658203125
1.8310546875
0.91552734375
-4.57763671875
-11.90185546875
-18.310546875
-20.1416015625
-19.22607421875
-16.4794921875
-16.4794921875
-21.05712890625
-27.4658203125
-36.62109375
-46.69189453125
-48.52294921875
-50.35400390625
-49.4384765625
-45.7763671875
-40.283203125
-43.02978515625
-43.9453125
-51.26953125
-59.50927734375
-56.7626953125
-51.26953125
-52.18505859375
-49.4384765625
-39.36767578125
-34.7900390625
-32.04345703125
-39.36767578125
-37.53662109375
-36.62109375
-30.21240234375
-35.70556640625
-36.62109375
-40.283203125
-43.02978515625
-39.36767578125
-38.4521484375
-33.87451171875
-30.21240234375
-35.70556640625
-32.958984375
-31.1279296875
-40.283203125
-45.7763671875
-49.4384765625
-45.7763671875
-46.69189453125
-43.02978515625
-43.9453125
-54.931640625
-46.69189453125
-45.7763671875
-52.18505859375
-44.86083984375
-41.19873046875
-48.52294921875
-51.26953125
-43.9453125
-43.02978515625
-47.607421875
-55.84716796875
-57.67822265625
-50.35400390625
-50.35400390625
-46.69189453125
-58.59375
-63.17138671875
-65.91796875
-63.17138671875
-56.7626953125
-51.26953125
-48.52294921875
-51.26953125
-52.18505859375
-60.4248046875
-55.84716796875
-55.84716796875
-64.0869140625
-65.91796875
-61.34033203125
-59.50927734375
-60.4248046875
-50.35400390625
-53.1005859375
-57.67822265625
-55.84716796875
-67.7490234375
-71.4111328125
-68.66455078125
-75.0732421875
-82.3974609375
-84.228515625
-82.3974609375
-78.7353515625
-76.904296875
-83.31298828125
-85.14404296875
-73.2421875
-59.50927734375
-55.84716796875
-63.17138671875
-63.17138671875
-65.00244140625
-70.49560546875
-80.56640625
-71.4111328125
-68.66455078125
-82.3974609375
-89.7216796875
-89.7216796875
-75.98876953125
-82.3974609375
-83.31298828125
-79.65087890625
-75.98876953125
-75.0732421875
-72.32666015625
-74.15771484375
-71.4111328125
-69.580078125
-74.15771484375
-65.91796875
-65.91796875
-72.32666015625
-77.81982421875
-77.81982421875
-75.98876953125
-69.580078125
-74.15771484375
-76.904296875
-84.228515625
-83.31298828125
-71.4111328125
-68.66455078125
-66.83349609375
-51.26953125
-52.18505859375
-65.91796875
-69.580078125
-76.904296875
-86.97509765625
-77.81982421875
-72.32666015625
-77.81982421875
-79.65087890625
-77.81982421875
-70.49560546875
-73.2421875
-70.49560546875
-74.15771484375
-78.7353515625
-77.81982421875
-80.56640625
-75.0732421875
-80.56640625
-76.904296875
-75.0732421875
-76.904296875
-73.2421875
-70.49560546875
-64.0869140625
-60.4248046875
-56.7626953125
-53.1005859375
-44.86083984375
-53.1005859375
-45.7763671875
-43.9453125
-42.1142578125
-41.19873046875
-43.9453125
-32.04345703125
-18.310546875
-12.8173828125
-6.40869140625
-9.1552734375
-15.56396484375
-20.1416015625
-27.4658203125
-35.70556640625
-31.1279296875
-29.296875
-21.97265625
-23.8037109375
-16.4794921875
-12.8173828125
-3.662109375
0.91552734375
-5.4931640625
-10.07080078125
-4.57763671875
-5.4931640625
-6.40869140625
12.8173828125
18.310546875
18.310546875
13.73291015625
-9.1552734375
-11.90185546875
-12.8173828125
-22.88818359375
-27.4658203125
-38.4521484375
-49.4384765625
-53.1005859375
-54.931640625
-67.7490234375
-59.50927734375
-63.17138671875
-64.0869140625
-65.91796875
-75.0732421875
-79.65087890625
-77.81982421875
-84.228515625
-83.31298828125
-79.65087890625
-82.3974609375
-75.0732421875
-73.2421875
-75.0732421875
-79.65087890625
-74.15771484375
-85.14404296875
-82.3974609375
-79.65087890625
-80.56640625
-84.228515625
-82.3974609375
-82.3974609375
-89.7216796875
-96.13037109375
-97.0458984375
-95.21484375
-92.46826171875
-88.80615234375
-94.29931640625
-81.48193359375
-63.17138671875
-12.8173828125
90.63720703125
226.13525390625
380.859375
560.302734375
704.04052734375
858.7646484375
998.84033203125
1038.2080078125
986.9384765625
856.01806640625
671.9970703125
451.35498046875
192.2607421875
-54.931640625
-273.74267578125
-401.0009765625
-440.36865234375
-403.74755859375
-377.197265625
-329.58984375
-270.99609375
-237.12158203125
-230.712890625
-217.8955078125
-217.8955078125
-216.97998046875
-216.97998046875
-196.83837890625
-162.04833984375
-131.8359375
-107.11669921875
-80.56640625
-55.84716796875
-48.52294921875
-56.7626953125
-55.84716796875
-49.4384765625
-53.1005859375
-40.283203125
-33.87451171875
-32.958984375
-41.19873046875
-50.35400390625
-50.35400390625
-38.4521484375
-32.04345703125
-25.634765625
-16.4794921875
-13.73291015625
-19.22607421875
-6.40869140625
1.8310546875
5.4931640625
6.40869140625
3.662109375
3.662109375
-3.662109375
-8.23974609375
-7.32421875
-6.40869140625
2.74658203125
-6.40869140625
-10.986328125
-10.986328125
0
4.57763671875
7.32421875
13.73291015625
19.22607421875
20.1416015625
21.97265625
21.97265625
27.4658203125
33.87451171875
32.04345703125
30.21240234375
32.958984375
32.958984375
35.70556640625
32.958984375
42.1142578125
34.7900390625
39.36767578125
37.53662109375
38.4521484375
43.02978515625
50.35400390625
57.67822265625
65.00244140625
75.0732421875
80.56640625
85.14404296875
96.13037109375
95.21484375
106.201171875
104.3701171875
106.201171875
111.6943359375
111.6943359375
108.94775390625
111.6943359375
127.25830078125
128.173828125
112.60986328125
115.3564453125
122.6806640625
131.8359375
136.41357421875
145.56884765625
152.89306640625
159.3017578125
165.71044921875
163.87939453125
167.54150390625
172.119140625
183.10546875
191.34521484375
195.9228515625
205.078125
211.48681640625
229.79736328125
231.62841796875
239.8681640625
248.10791015625
252.685546875
262.75634765625
267.333984375
275.57373046875
279.23583984375
285.64453125
287.4755859375
293.88427734375
301.20849609375
307.6171875
310.36376953125
314.94140625
308.53271484375
309.4482421875
316.7724609375
326.84326171875
335.99853515625
339.66064453125
331.4208984375
324.0966796875
327.7587890625
326.84326171875
321.35009765625
318.603515625
310.36376953125
289.306640625
293.88427734375
295.71533203125
287.4755859375
267.333984375
250.8544921875
233.45947265625
217.8955078125
205.99365234375
195.9228515625
179.443359375
160.21728515625
154.72412109375
145.56884765625
136.41357421875
121.76513671875
108.0322265625
115.3564453125
114.44091796875
104.3701171875
90.63720703125
76.904296875
64.0869140625
60.4248046875
54.01611328125
52.18505859375
53.1005859375
38.4521484375
28.38134765625
25.634765625
27.4658203125
17.39501953125
9.1552734375
-1.8310546875
-3.662109375
0.91552734375
-6.40869140625
-13.73291015625
-12.8173828125
-12.8173828125
-15.56396484375
-20.1416015625
-26.55029296875
-30.21240234375
-30.21240234375
-19.22607421875
-28.38134765625
-30.21240234375
-26.55029296875
-25.634765625
-32.04345703125
-33.87451171875
-29.296875
-29.296875
-31.1279296875
-24.71923828125
-15.56396484375
-10.986328125
-21.05712890625
-31.1279296875
-31.1279296875
-32.04345703125
-31.1279296875
-30.21240234375
-29.296875
-29.296875
-32.04345703125
-33.87451171875
-26.55029296875
-24.71923828125
-30.21240234375
-30.21240234375
-29.296875
-31.1279296875
-30.21240234375
-33.87451171875
-27.4658203125
-35.70556640625
-36.62109375
-42.1142578125
-47.607421875
-54.01611328125
-47.607421875
-42.1142578125
-35.70556640625
-31.1279296875
-29.296875
-36.62109375
-41.19873046875
-34.7900390625
-44.86083984375
-60.4248046875
-61.34033203125
-58.59375
-65.00244140625
-65.91796875
-56.7626953125
-53.1005859375
-51.26953125
-48.52294921875
-51.26953125
-47.607421875
-50.35400390625
-51.26953125
-59.50927734375
-72.32666015625
-66.83349609375
-73.2421875
-75.98876953125
-71.4111328125
-68.66455078125
-65.91796875
-56.7626953125
-60.4248046875
-70.49560546875
-71.4111328125
-65.91796875
-54.01611328125
-53.1005859375
-59.50927734375
-48.52294921875
-57.67822265625
-65.91796875
-67.7490234375
-75.0732421875
-74.15771484375
-74.15771484375
-75.0732421875
-77.81982421875
-68.66455078125
-58.59375
-65.91796875
-68.66455078125
-57.67822265625
-43.02978515625
-50.35400390625
-64.0869140625
-54.931640625
-53.1005859375
-62.255859375
-75.98876953125
-82.3974609375
-86.97509765625
-81.48193359375
-86.97509765625
-86.0595703125
-80.56640625
-80.56640625
-74.15771484375
-74.15771484375
-69.580078125
-68.66455078125
-73.2421875
-80.56640625
-84.228515625
-82.3974609375
-80.56640625
-78.7353515625
-73.2421875
-66.83349609375
-71.4111328125
-85.14404296875
-86.97509765625
-74.15771484375
-69.580078125
-67.7490234375
-65.00244140625
-75.98876953125
-81.48193359375
-68.66455078125
-73.2421875
-75.98876953125
-76.904296875
-79.65087890625
-83.31298828125
-74.15771484375
-68.66455078125
-67.7490234375
-67.7490234375
-77.81982421875
-78.7353515625
-81.48193359375
-82.3974609375
-77.81982421875
-65.00244140625
-64.0869140625
-59.50927734375
-54.01611328125
-61.34033203125
-59.50927734375
-48.52294921875
-49.4384765625
-33.87451171875
-32.958984375
-33.87451171875
-21.05712890625
-30.21240234375
-52.18505859375
-48.52294921875
-32.04345703125
-25.634765625
-27.4658203125
-28.38134765625
-36.62109375
-33.87451171875
-11.90185546875
-13.73291015625
-4.57763671875
-5.4931640625
-7.32421875
-10.07080078125
-6.40869140625
0.91552734375
7.32421875
4.57763671875
-11.90185546875
-21.97265625
-26.55029296875
-33.87451171875
-53.1005859375
-72.32666015625
-86.97509765625
-92.46826171875
-93.3837890625
-95.21484375
-102.5390625
-106.201171875
-95.21484375
-95.21484375
-103.45458984375
-96.13037109375
-90.63720703125
-100.7080078125
-95.21484375
-92.46826171875
-91.552734375
-85.14404296875
-79.65087890625
-67.7490234375
-67.7490234375
-72.32666015625
-75.98876953125
-84.228515625
-92.46826171875
-96.13037109375
-95.21484375
-95.21484375
-95.21484375
-98.876953125
-104.3701171875
-110.77880859375
-118.10302734375
-124.51171875
-122.6806640625
-122.6806640625
-112.60986328125
-97.0458984375
-86.97509765625
-41.19873046875
51.26953125
180.35888671875
353.3935546875
522.76611328125
684.814453125
845.947265625
1023.5595703125
1116.02783203125
1106.87255859375
1016.2353515625
870.66650390625
678.40576171875
414.73388671875
138.24462890625
-92.46826171875
-285.64453125
-396.42333984375
-431.21337890625
-414.73388671875
-368.0419921875
-310.36376953125
-285.64453125
-271.91162109375
-251.77001953125
-234.375
-227.96630859375
-210.5712890625
-196.83837890625
-161.1328125
-130.92041015625
-103.45458984375
-78.7353515625
-69.580078125
-58.59375
-62.255859375
-68.66455078125
-62.255859375
-57.67822265625
-52.18505859375
-54.01611328125
-57.67822265625
-58.59375
-55.84716796875
-54.931640625
-56.7626953125
-54.01611328125
-47.607421875
-45.7763671875
-45.7763671875
-40.283203125
-39.36767578125
-39.36767578125
-36.62109375
-39.36767578125
-33.87451171875
-41.19873046875
-43.02978515625
-34.7900390625
-29.296875
-22.88818359375
-20.1416015625
-7.32421875
-9.1552734375
-6.40869140625
-2.74658203125
-5.4931640625
-4.57763671875
-7.32421875
-2.74658203125
-3.662109375
-0.91552734375
-5.4931640625
-6.40869140625
-7.32421875
-9.1552734375
6.40869140625
3.662109375
10.07080078125
21.05712890625
20.1416015625
22.88818359375
26.55029296875
23.8037109375
31.1279296875
24.71923828125
26.55029296875
35.70556640625
48.52294921875
57.67822265625
51.26953125
54.01611328125
54.01611328125
39.36767578125
32.958984375
33.87451171875
39.36767578125
54.931640625
73.2421875
76.904296875
80.56640625
84.228515625
88.80615234375
95.21484375
94.29931640625
101.62353515625
114.44091796875
113.525390625
124.51171875
130.0048828125
129.08935546875
127.25830078125
138.24462890625
140.9912109375
150.146484375
162.9638671875
164.794921875
169.37255859375
180.35888671875
189.51416015625
196.83837890625
195.9228515625
206.9091796875
207.82470703125
202.33154296875
208.740234375
217.8955078125
220.64208984375
220.64208984375
227.05078125
228.8818359375
237.12158203125
249.0234375
263.671875
277.40478515625
281.982421875
285.64453125
294.7998046875
296.630859375
289.306640625
294.7998046875
303.03955078125
292.96875
281.06689453125
286.56005859375
291.1376953125
287.4755859375
284.72900390625
279.23583984375
265.5029296875
257.26318359375
258.1787109375
251.77001953125
242.61474609375
229.79736328125
217.8955078125
200.50048828125
188.5986328125
186.767578125
179.443359375
163.87939453125
148.3154296875
139.16015625
128.173828125
116.27197265625
105.28564453125
87.890625
75.98876953125
62.255859375
54.931640625
39.36767578125
32.04345703125
27.4658203125
21.97265625
10.986328125
4.57763671875
5.4931640625
0
-5.4931640625
-9.1552734375
-12.8173828125
-15.56396484375
-32.04345703125
-32.958984375
-37.53662109375
-40.283203125
-41.19873046875
-42.1142578125
-46.69189453125
-48.52294921875
-48.52294921875
-42.1142578125
-38.4521484375
-51.26953125
-63.17138671875
-64.0869140625
-60.4248046875
-65.91796875
-69.580078125
-69.580078125
-66.83349609375
-57.67822265625
-58.59375
-57.67822265625
-57.67822265625
-57.67822265625
-64.0869140625
-68.66455078125
-73.2421875
-75.0732421875
-69.580078125
-69.580078125
-61.34033203125
-57.67822265625
-58.59375
-49.4384765625
-50.35400390625
-48.52294921875
-44.86083984375
-45.7763671875
-54.931640625
-64.0869140625
-60.4248046875
-63.17138671875
-69.580078125
-63.17138671875
-55.84716796875
-63.17138671875
-65.91796875
-61.34033203125
-54.01611328125
-53.1005859375
-52.18505859375
-60.4248046875
-61.34033203125
-65.00244140625
-66.83349609375
-65.00244140625
-72.32666015625
-70.49560546875
-71.4111328125
-69.580078125
-69.580078125
-68.66455078125
-62.255859375
-68.66455078125
-73.2421875
-78.7353515625
-84.228515625
-78.7353515625
-75.98876953125
-73.2421875
-82.3974609375
-87.890625
-84.228515625
-81.48193359375
-77.81982421875
-84.228515625
-82.3974609375
-86.0595703125
-97.0458984375
-93.3837890625
-86.0595703125
-86.0595703125
-81.48193359375
-76.904296875
-83.31298828125
-79.65087890625
-80.56640625
-86.97509765625
-86.0595703125
-90.63720703125
-97.96142578125
-97.0458984375
-90.63720703125
-89.7216796875
-100.7080078125
-105.28564453125
-101.62353515625
-93.3837890625
-86.97509765625
-86.97509765625
-82.3974609375
-82.3974609375
-82.3974609375
-79.65087890625
-76.904296875
-76.904296875
-80.56640625
-81.48193359375
-80.56640625
-85.14404296875
-86.0595703125
-92.46826171875
-95.21484375
-102.5390625
-102.5390625
-104.3701171875
-106.201171875
-106.201171875
-100.7080078125
-99.79248046875
-96.13037109375
-89.7216796875
-92.46826171875
-97.0458984375
-94.29931640625
-93.3837890625
-97.96142578125
-100.7080078125
-105.28564453125
-105.28564453125
-87.890625
-94.29931640625
-89.7216796875
-91.552734375
-97.96142578125
-96.13037109375
-94.29931640625
-102.5390625
-90.63720703125
-86.0595703125
-92.46826171875
-90.63720703125
-84.228515625
-80.56640625
-79.65087890625
-78.7353515625
-87.890625
-87.890625
-90.63720703125
-98.876953125
-105.28564453125
-109.86328125
-109.86328125
-101.62353515625
-107.11669921875
-111.6943359375
-103.45458984375
-105.28564453125
-92.46826171875
-85.14404296875
-90.63720703125
-92.46826171875
-81.48193359375
-93.3837890625
-104.3701171875
-116.27197265625
-116.27197265625
-98.876953125
-96.13037109375
-87.890625
-88.80615234375
-86.0595703125
-79.65087890625
-65.00244140625
-61.34033203125
-51.26953125
-39.36767578125
-44.86083984375
-53.1005859375
-61.34033203125
-65.00244140625
-60.4248046875
-52.18505859375
-63.17138671875
-64.0869140625
-59.50927734375
-57.67822265625
-54.931640625
-65.00244140625
-58.59375
-52.18505859375
-52.18505859375
-59.50927734375
-57.67822265625
-49.4384765625
-45.7763671875
-43.02978515625
-32.04345703125
-29.296875
-25.634765625
-21.05712890625
-13.73291015625
-18.310546875
-11.90185546875
-9.1552734375
-21.05712890625
-32.958984375
-41.19873046875
-51.26953125
-62.255859375
-65.00244140625
-76.904296875
-86.97509765625
-90.63720703125
-97.0458984375
-97.0458984375
-103.45458984375
-101.62353515625
-100.7080078125
-100.7080078125
-88.80615234375
-92.46826171875
-99.79248046875
-100.7080078125
-105.28564453125
-107.11669921875
-104.3701171875
-104.3701171875
-105.28564453125
-101.62353515625
-98.876953125
-87.890625
-90.63720703125
-100.7080078125
-100.7080078125
-101.62353515625
-102.5390625
-95.21484375
-99.79248046875
-107.11669921875
-109.86328125
-120.849609375
-119.93408203125
-125.42724609375
-130.92041015625
-130.92041015625
-104.3701171875
-75.98876953125
-40.283203125
43.9453125
158.38623046875
322.265625
506.28662109375
683.89892578125
849.609375
1027.2216796875
1158.14208984375
1201.171875
1148.98681640625
1013.48876953125
824.89013671875
574.951171875
284.72900390625
18.310546875
-188.5986328125
-342.4072265625
-411.9873046875
-398.25439453125
-374.45068359375
-335.99853515625
-301.20849609375
-269.1650390625
-251.77001953125
-234.375
-193.17626953125
-164.794921875
-142.822265625
-125.42724609375
-103.45458984375
-89.7216796875
-76.904296875
-77.81982421875
-66.83349609375
-66.83349609375
-68.66455078125
-65.00244140625
-63.17138671875
-67.7490234375
-68.66455078125
-73.2421875
-72.32666015625
-72.32666015625
-66.83349609375
-56.7626953125
-57.67822265625
-55.84716796875
-49.4384765625
-40.283203125
-42.1142578125
-32.958984375
-24.71923828125
-32.958984375
-32.958984375
-26.55029296875
-41.19873046875
-42.1142578125
-43.02978515625
-43.9453125
-44.86083984375
-43.02978515625
-41.19873046875
-42.1142578125
-32.958984375
-18.310546875
-19.22607421875
-20.1416015625
-24.71923828125
-43.02978515625
-46.69189453125
-34.7900390625
-32.04345703125
-21.97265625
-22.88818359375
-21.05712890625
-11.90185546875
-5.4931640625
3.662109375
6.40869140625
4.57763671875
0.91552734375
1.8310546875
0.91552734375
3.662109375
4.57763671875
4.57763671875
10.07080078125
12.8173828125
17.39501953125
24.71923828125
27.4658203125
32.958984375
39.36767578125
43.9453125
54.01611328125
58.59375
57.67822265625
44.86083984375
41.19873046875
55.84716796875
59.50927734375
57.67822265625
68.66455078125
69.580078125
64.0869140625
71.4111328125
80.56640625
93.3837890625
91.552734375
97.0458984375
97.0458984375
98.876953125
120.849609375
125.42724609375
140.07568359375
140.07568359375
151.06201171875
151.06201171875
149.23095703125
164.794921875
171.20361328125
171.20361328125
177.6123046875
181.2744140625
192.2607421875
203.2470703125
207.82470703125
209.65576171875
224.30419921875
228.8818359375
231.62841796875
237.12158203125
229.79736328125
228.8818359375
221.5576171875
231.62841796875
236.2060546875
246.27685546875
247.1923828125
254.5166015625
266.41845703125
257.26318359375
261.8408203125
257.26318359375
256.34765625
260.009765625
251.77001953125
244.44580078125
247.1923828125
252.685546875
241.69921875
236.2060546875
222.47314453125
217.8955078125
210.5712890625
201.416015625
191.34521484375
181.2744140625
178.52783203125
163.87939453125
146.484375
130.0048828125
109.86328125
108.94775390625
115.3564453125
115.3564453125
86.97509765625
67.7490234375
50.35400390625
40.283203125
43.02978515625
32.04345703125
32.958984375
17.39501953125
4.57763671875
-1.8310546875
-3.662109375
-6.40869140625
-15.56396484375
-19.22607421875
-27.4658203125
-31.1279296875
-37.53662109375
-31.1279296875
-30.21240234375
-33.87451171875
-38.4521484375
-46.69189453125
-32.04345703125
-36.62109375
-52.18505859375
-49.4384765625
-47.607421875
-43.9453125
-40.283203125
-38.4521484375
-40.283203125
-42.1142578125
-49.4384765625
-54.931640625
-57.67822265625
-54.931640625
-55.84716796875
-54.931640625
-69.580078125
-71.4111328125
-63.17138671875
-57.67822265625
-56.7626953125
-56.7626953125
-52.18505859375
-53.1005859375
-52.18505859375
-54.01611328125
-59.50927734375
-66.83349609375
-76.904296875
-64.0869140625
-56.7626953125
-47.607421875
-37.53662109375
-36.62109375
-43.02978515625
-57.67822265625
-68.66455078125
-62.255859375
-59.50927734375
-55.84716796875
-59.50927734375
-63.17138671875
-65.00244140625
-65.91796875
-62.255859375
-65.91796875
-69.580078125
-52.18505859375
-42.1142578125
-48.52294921875
-51.26953125
-45.7763671875
-53.1005859375
-58.59375
-65.91796875
-70.49560546875
-61.34033203125
-57.67822265625
-54.931640625
-54.01611328125
-60.4248046875
-69.580078125
-56.7626953125
-63.17138671875
-65.91796875
-65.91796875
-61.34033203125
-69.580078125
-70.49560546875
-73.2421875
-81.48193359375
-76.904296875
-90.63720703125
-90.63720703125
-83.31298828125
-83.31298828125
-85.14404296875
-79.65087890625
-81.48193359375
-76.904296875
-75.0732421875
-72.32666015625
-76.904296875
-89.7216796875
-90.63720703125
-84.228515625
-78.7353515625
-78.7353515625
-75.0732421875
-70.49560546875
-86.0595703125
-95.21484375
-95.21484375
-96.13037109375
-97.0458984375
-89.7216796875
-75.0732421875
-76.904296875
-82.3974609375
-86.97509765625
-86.0595703125
-84.228515625
-90.63720703125
-92.46826171875
-94.29931640625
-91.552734375
-97.0458984375
-97.96142578125
-90.63720703125
-87.890625
-84.228515625
-81.48193359375
-80.56640625
-75.0732421875
-76.904296875
-73.2421875
-74.15771484375
-75.0732421875
-76.904296875
-78.7353515625
-80.56640625
-89.7216796875
-86.97509765625
-79.65087890625
-89.7216796875
-94.29931640625
-92.46826171875
-79.65087890625
-85.14404296875
-90.63720703125
-91.552734375
-102.5390625
-108.94775390625
-104.3701171875
-100.7080078125
-96.13037109375
-103.45458984375
-108.94775390625
-105.28564453125
-96.13037109375
-90.63720703125
-89.7216796875
-88.80615234375
-95.21484375
-95.21484375
-86.97509765625
-85.14404296875
-75.98876953125
-78.7353515625
-85.14404296875
-75.98876953125
-75.98876953125
-76.904296875
-86.0595703125
-85.14404296875
-86.0595703125
-90.63720703125
-95.21484375
-93.3837890625
-89.7216796875
-97.96142578125
-102.5390625
-103.45458984375
-101.62353515625
-101.62353515625
-98.876953125
-99.79248046875
-86.0595703125
-85.14404296875
-77.81982421875
-81.48193359375
-83.31298828125
-80.56640625
-89.7216796875
-92.46826171875
-93.3837890625
-103.45458984375
-95.21484375
-92.46826171875
-94.29931640625
-97.0458984375
-88.80615234375
-86.0595703125
-78.7353515625
-84.228515625
-94.29931640625
-83.31298828125
-79.65087890625
-81.48193359375
-65.00244140625
-59.50927734375
-57.67822265625
-63.17138671875
-68.66455078125
-64.0869140625
-46.69189453125
-42.1142578125
-40.283203125
-39.36767578125
-32.04345703125
-37.53662109375
-44.86083984375
-54.931640625
-58.59375
-59.50927734375
-56.7626953125
-54.01611328125
-55.84716796875
-58.59375
-47.607421875
-44.86083984375
-37.53662109375
-31.1279296875
-32.04345703125
-35.70556640625
-32.958984375
-39.36767578125
-41.19873046875
-41.19873046875
-28.38134765625
-24.71923828125
-26.55029296875
-31.1279296875
-41.19873046875
-54.01611328125
-66.83349609375
-75.98876953125
-91.552734375
-108.94775390625
-120.849609375
-110.77880859375
-98.876953125
-90.63720703125
-96.13037109375
-93.3837890625
-104.3701171875
-107.11669921875
-116.27197265625
-116.27197265625
-108.94775390625
-104.3701171875
-107.11669921875
-107.11669921875
-105.28564453125
-101.62353515625
-93.3837890625
-96.13037109375
-105.28564453125
-108.94775390625
-102.5390625
-107.11669921875
-106.201171875
-109.86328125
-119.0185546875
-122.6806640625
-116.27197265625
-131.8359375
-144.6533203125
-149.23095703125
-147.39990234375
-140.9912109375
-128.173828125
-124.51171875
-97.96142578125
-39.36767578125
38.4521484375
157.470703125
315.85693359375
501.708984375
693.9697265625
869.7509765625
1040.0390625
1147.15576171875
1189.27001953125
1134.33837890625
984.19189453125
794.677734375
548.40087890625
281.06689453125
24.71923828125
-173.9501953125
-330.50537109375
-391.845703125
-381.77490234375
-362.548828125
-312.19482421875
-285.64453125
-266.41845703125
-269.1650390625
-246.27685546875
-213.31787109375
-191.34521484375
-159.3017578125
-122.6806640625
-110.77880859375
-95.21484375
-74.15771484375
-75.98876953125
-73.2421875
-70.49560546875
-80.56640625
-84.228515625
-78.7353515625
-76.904296875
-76.904296875
-75.98876953125
-77.81982421875
-85.14404296875
-83.31298828125
-71.4111328125
-57.67822265625
-65.00244140625
-63.17138671875
-66.83349609375
-65.00244140625
-53.1005859375
-58.59375
-56.7626953125
-53.1005859375
-50.35400390625
-44.86083984375
-44.86083984375
-56.7626953125
-60.4248046875
-43.9453125
-43.9453125
-34.7900390625
-32.958984375
-33.87451171875
-32.04345703125
-26.55029296875
-25.634765625
-26.55029296875
-23.8037109375
-27.4658203125
-32.04345703125
-23.8037109375
-29.296875
-24.71923828125
-23.8037109375
-21.97265625
-21.97265625
-21.05712890625
-18.310546875
-20.1416015625
-18.310546875
-11.90185546875
-1.8310546875
-8.23974609375
-13.73291015625
-2.74658203125
11.90185546875
17.39501953125
19.22607421875
14.6484375
22.88818359375
21.05712890625
24.71923828125
22.88818359375
22.88818359375
24.71923828125
34.7900390625
43.9453125
47.607421875
47.607421875
48.52294921875
48.52294921875
53.1005859375
52.18505859375
61.34033203125
64.0869140625
69.580078125
75.0732421875
83.31298828125
83.31298828125
92.46826171875
103.45458984375
101.62353515625
92.46826171875
97.96142578125
98.876953125
100.7080078125
108.94775390625
117.1875
127.25830078125
137.3291015625
148.3154296875
148.3154296875
154.72412109375
165.71044921875
171.20361328125
172.119140625
177.6123046875
176.69677734375
178.52783203125
181.2744140625
178.52783203125
173.03466796875
178.52783203125
197.75390625
195.00732421875
207.82470703125
219.7265625
228.8818359375
238.037109375
239.8681640625
246.27685546875
248.10791015625
249.0234375
242.61474609375
237.12158203125
233.45947265625
239.8681640625
237.12158203125
227.96630859375
225.2197265625
223.388671875
216.97998046875
208.740234375
203.2470703125
193.17626953125
186.767578125
176.69677734375
167.54150390625
159.3017578125
141.90673828125
126.3427734375
118.10302734375
106.201171875
93.3837890625
86.97509765625
77.81982421875
68.66455078125
56.7626953125
39.36767578125
34.7900390625
27.4658203125
20.1416015625
14.6484375
7.32421875
2.74658203125
-10.986328125
-19.22607421875
-21.97265625
-24.71923828125
-32.958984375
-32.04345703125
-32.958984375
-30.21240234375
-39.36767578125
-43.02978515625
-44.86083984375
-45.7763671875
-54.931640625
-53.1005859375
-58.59375
-61.34033203125
-59.50927734375
-62.255859375
-66.83349609375
-68.66455078125
-54.01611328125
-53.1005859375
-60.4248046875
-61.34033203125
-60.4248046875
-58.59375
-58.59375
-56.7626953125
-58.59375
-57.67822265625
-61.34033203125
-65.00244140625
-60.4248046875
-65.91796875
-63.17138671875
-70.49560546875
-67.7490234375
-56.7626953125
-55.84716796875
-56.7626953125
-57.67822265625
-49.4384765625
-51.26953125
-65.91796875
-60.4248046875
-69.580078125
-75.98876953125
-82.3974609375
-83.31298828125
-83.31298828125
-70.49560546875
-69.580078125
-77.81982421875
-75.0732421875
-65.00244140625
-62.255859375
-70.49560546875
-79.65087890625
-78.7353515625
-68.66455078125
-78.7353515625
-88.80615234375
-82.3974609375
-88.80615234375
-97.0458984375
-86.97509765625
-82.3974609375
-72.32666015625
-65.00244140625
-65.00244140625
-75.0732421875
-80.56640625
-78.7353515625
-75.98876953125
-79.65087890625
-77.81982421875
-75.98876953125
-68.66455078125
-72.32666015625
-75.98876953125
-83.31298828125
-86.0595703125
-91.552734375
-89.7216796875
-92.46826171875
-93.3837890625
-97.0458984375
-97.96142578125
-97.96142578125
-97.96142578125
-95.21484375
-86.0595703125
-86.97509765625
-95.21484375
-101.62353515625
-101.62353515625
-98.876953125
-102.5390625
-103.45458984375
-109.86328125
-111.6943359375
-105.28564453125
-110.77880859375
-110.77880859375
-107.11669921875
-112.60986328125
-103.45458984375
-97.96142578125
-101.62353515625
-92.46826171875
-85.14404296875
-84.228515625
-86.97509765625
-86.0595703125
-97.96142578125
-101.62353515625
-107.11669921875
-113.525390625
-111.6943359375
-108.0322265625
-101.62353515625
-96.13037109375
-92.46826171875
-89.7216796875
-98.876953125
-110.77880859375
-112.60986328125
-113.525390625
-93.3837890625
-99.79248046875
-103.45458984375
-103.45458984375
-106.201171875
-102.5390625
-97.0458984375
-95.21484375
-99.79248046875
-105.28564453125
-101.62353515625
-97.0458984375
-103.45458984375
-102.5390625
-97.96142578125
-100.7080078125
-97.96142578125
-96.13037109375
-100.7080078125
-107.11669921875
-105.28564453125
-108.94775390625
-99.79248046875
-108.0322265625
-111.6943359375
-108.0322265625
-117.1875
-108.94775390625
-112.60986328125
-116.27197265625
-113.525390625
-106.201171875
-104.3701171875
-104.3701171875
-92.46826171875
-89.7216796875
-86.97509765625
-93.3837890625
-97.96142578125
-100.7080078125
-101.62353515625
-110.77880859375
-112.60986328125
-112.60986328125
-106.201171875
-104.3701171875
-97.0458984375
-104.3701171875
-104.3701171875
-100.7080078125
-97.0458984375
-95.21484375
-101.62353515625
-99.79248046875
-100.7080078125
-106.201171875
-107.11669921875
-101.62353515625
-99.79248046875
-94.29931640625
-102.5390625
-97.96142578125
-103.45458984375
-88.80615234375
-85.14404296875
-90.63720703125
-95.21484375
-99.79248046875
-107.11669921875
-93.3837890625
-94.29931640625
-94.29931640625
-79.65087890625
-72.32666015625
-64.0869140625
-65.91796875
-65.91796875
-55.84716796875
-54.931640625
-60.4248046875
-64.0869140625
-57.67822265625
-54.931640625
-67.7490234375
-60.4248046875
-54.931640625
-54.931640625
-50.35400390625
-44.86083984375
-43.9453125
-36.62109375
-29.296875
-25.634765625
-16.4794921875
-10.07080078125
-25.634765625
-31.1279296875
-32.958984375
-34.7900390625
-32.958984375
-10.986328125
-10.986328125
-27.4658203125
-35.70556640625
-45.7763671875
-43.02978515625
-49.4384765625
-70.49560546875
-86.97509765625
-105.28564453125
-93.3837890625
-90.63720703125
-105.28564453125
-105.28564453125
-109.86328125
-108.94775390625
-102.5390625
-109.86328125
-106.201171875
-97.0458984375
-97.0458984375
-97.96142578125
-93.3837890625
-108.94775390625
-103.45458984375
-95.21484375
-97.0458984375
-101.62353515625
-96.13037109375
-101.62353515625
-106.201171875
-110.77880859375
-108.94775390625
-104.3701171875
-108.0322265625
-103.45458984375
-108.94775390625
-113.525390625
-121.76513671875
-121.76513671875
-123.59619140625
-120.849609375
-123.59619140625
-119.93408203125
-86.97509765625
-52.18505859375
26.55029296875
143.73779296875
313.1103515625
488.8916015625
653.6865234375
808.41064453125
981.4453125
1074.8291015625
1055.60302734375
960.38818359375
811.1572265625
628.96728515625
374.45068359375
95.21484375
-139.16015625
-334.16748046875
-434.87548828125
-443.115234375
-416.56494140625
-370.78857421875
-306.70166015625
-267.333984375
-264.58740234375
-255.43212890625
-240.78369140625
-248.10791015625
-238.95263671875
-218.81103515625
-196.83837890625
-171.20361328125
-144.6533203125
-116.27197265625
-97.96142578125
-88.80615234375
-77.81982421875
-75.98876953125
-76.904296875
-71.4111328125
-66.83349609375
-75.98876953125
-68.66455078125
-52.18505859375
-52.18505859375
-64.0869140625
-55.84716796875
-59.50927734375
-63.17138671875
-55.84716796875
-54.01611328125
-54.931640625
-46.69189453125
-41.19873046875
-36.62109375
-36.62109375
-39.36767578125
-42.1142578125
-40.283203125
-48.52294921875
-37.53662109375
-30.21240234375
-19.22607421875
-15.56396484375
-21.05712890625
-16.4794921875
-8.23974609375
-18.310546875
-11.90185546875
-16.4794921875
-18.310546875
-10.986328125
1.8310546875
-0.91552734375
2.74658203125
2.74658203125
-1.8310546875
3.662109375
0.91552734375
0
7.32421875
15.56396484375
14.6484375
16.4794921875
30.21240234375
21.97265625
21.05712890625
13.73291015625
29.296875
29.296875
31.1279296875
18.310546875
29.296875
36.62109375
45.7763671875
41.19873046875
44.86083984375
59.50927734375
60.4248046875
61.34033203125
73.2421875
92.46826171875
86.97509765625
82.3974609375
88.80615234375
98.876953125
101.62353515625
100.7080078125
105.28564453125
113.525390625
121.76513671875
136.41357421875
137.3291015625
135.498046875
144.6533203125
151.9775390625
158.38623046875
161.1328125
157.470703125
148.3154296875
158.38623046875
166.6259765625
177.6123046875
195.00732421875
195.9228515625
195.00732421875
213.31787109375
208.740234375
207.82470703125
223.388671875
236.2060546875
236.2060546875
232.5439453125
245.361328125
236.2060546875
236.2060546875
251.77001953125
265.5029296875
275.57373046875
275.57373046875
274.658203125
282.89794921875
281.982421875
286.56005859375
293.88427734375
298.4619140625
301.20849609375
298.4619140625
295.71533203125
291.1376953125
296.630859375
295.71533203125
282.89794921875
286.56005859375
270.08056640625
268.24951171875
257.26318359375
239.8681640625
239.8681640625
224.30419921875
212.40234375
190.4296875
178.52783203125
181.2744140625
162.9638671875
154.72412109375
146.484375
135.498046875
125.42724609375
119.93408203125
106.201171875
96.13037109375
73.2421875
58.59375
42.1142578125
30.21240234375
22.88818359375
16.4794921875
13.73291015625
10.07080078125
-0.91552734375
-8.23974609375
-15.56396484375
-17.39501953125
-8.23974609375
-3.662109375
-22.88818359375
-25.634765625
-19.22607421875
-14.6484375
-19.22607421875
-21.05712890625
-30.21240234375
-28.38134765625
-24.71923828125
-33.87451171875
-33.87451171875
-32.04345703125
-21.05712890625
-33.87451171875
-40.283203125
-43.02978515625
-42.1142578125
-43.9453125
-45.7763671875
-42.1142578125
-27.4658203125
-26.55029296875
-32.958984375
-32.958984375
-32.04345703125
-35.70556640625
-32.958984375
-41.19873046875
-43.9453125
-41.19873046875
-45.7763671875
-51.26953125
-52.18505859375
-49.4384765625
-53.1005859375
-45.7763671875
-33.87451171875
-41.19873046875
-36.62109375
-37.53662109375
-36.62109375
-47.607421875
-50.35400390625
-43.9453125
-40.283203125
-32.04345703125
-35.70556640625
-38.4521484375
-44.86083984375
-49.4384765625
-52.18505859375
-51.26953125
-56.7626953125
-58.59375
-55.84716796875
-55.84716796875
-62.255859375
-65.00244140625
-65.91796875
-64.0869140625
-75.0732421875
-78.7353515625
-75.98876953125
-82.3974609375
-90.63720703125
-78.7353515625
-64.0869140625
-66.83349609375
-64.0869140625
-55.84716796875
-50.35400390625
-49.4384765625
-45.7763671875
-50.35400390625
-48.52294921875
-50.35400390625
-56.7626953125
-60.4248046875
-82.3974609375
-83.31298828125
-81.48193359375
-72.32666015625
-75.0732421875
-77.81982421875
-67.7490234375
-55.84716796875
-65.91796875
-75.0732421875
-77.81982421875
-78.7353515625
-75.98876953125
-76.904296875
-86.0595703125
-75.0732421875
-68.66455078125
-66.83349609375
-68.66455078125
-65.00244140625
-63.17138671875
-63.17138671875
-73.2421875
-73.2421875
-75.98876953125
-86.0595703125
-87.890625
-87.890625
-89.7216796875
-86.0595703125
-89.7216796875
-101.62353515625
-104.3701171875
-97.0458984375
-84.228515625
-77.81982421875
-89.7216796875
-81.48193359375
-80.56640625
-78.7353515625
-79.65087890625
-79.65087890625
-75.98876953125
-76.904296875
-82.3974609375
-87.890625
-88.80615234375
-82.3974609375
-89.7216796875
-88.80615234375
-79.65087890625
-83.31298828125
-85.14404296875
-77.81982421875
-76.904296875
-75.0732421875
-77.81982421875
-75.0732421875
-73.2421875
-82.3974609375
-75.98876953125
-82.3974609375
-83.31298828125
-84.228515625
-82.3974609375
-83.31298828125
-94.29931640625
-89.7216796875
-80.56640625
-64.0869140625
-61.34033203125
-56.7626953125
-58.59375
-60.4248046875
-58.59375
-53.1005859375
-47.607421875
-43.02978515625
-37.53662109375
-26.55029296875
-26.55029296875
-19.22607421875
-20.1416015625
-30.21240234375
-36.62109375
-32.04345703125
-41.19873046875
-47.607421875
-44.86083984375
-35.70556640625
-23.8037109375
-32.958984375
-31.1279296875
-32.04345703125
-25.634765625
-16.4794921875
-10.986328125
-16.4794921875
-15.56396484375
-17.39501953125
-12.8173828125
-4.57763671875
0.91552734375
3.662109375
2.74658203125
-12.8173828125
-16.4794921875
-20.1416015625
-38.4521484375
-50.35400390625
-65.00244140625
-70.49560546875
-81.48193359375
-85.14404296875
-86.0595703125
-87.890625
-98.876953125
-97.96142578125
-103.45458984375
-105.28564453125
-103.45458984375
-96.13037109375
-97.0458984375
-97.0458984375
-91.552734375
-86.97509765625
-88.80615234375
-79.65087890625
-70.49560546875
-72.32666015625
-77.81982421875
-75.98876953125
-80.56640625
-89.7216796875
-92.46826171875
-97.96142578125
-101.62353515625
-102.5390625
-102.5390625
-104.3701171875
-111.6943359375
-114.44091796875
-124.51171875
-122.6806640625
-110.77880859375
-98.876953125
-93.3837890625
-67.7490234375
-12.8173828125
85.14404296875
223.388671875
384.521484375
570.37353515625
730.5908203125
888.0615234375
1050.10986328125
1098.6328125
1043.701171875
934.75341796875
778.1982421875
562.1337890625
299.37744140625
54.931640625
-169.37255859375
-333.251953125
-416.56494140625
-418.39599609375
-388.18359375
-328.67431640625
-276.4892578125
-250.8544921875
-243.5302734375
-231.62841796875
-216.064453125
-219.7265625
-213.31787109375
-196.83837890625
-166.6259765625
-134.58251953125
-108.0322265625
-88.80615234375
-76.904296875
-65.00244140625
-50.35400390625
-47.607421875
-48.52294921875
-47.607421875
-55.84716796875
-52.18505859375
-48.52294921875
-50.35400390625
-52.18505859375
-58.59375
-56.7626953125
-43.9453125
-39.36767578125
-38.4521484375
-39.36767578125
-32.958984375
-36.62109375
-25.634765625
-32.958984375
-29.296875
-24.71923828125
-31.1279296875
-37.53662109375
-27.4658203125
-28.38134765625
-33.87451171875
-31.1279296875
-26.55029296875
-17.39501953125
-4.57763671875
2.74658203125
4.57763671875
0.91552734375
6.40869140625
16.4794921875
10.07080078125
0.91552734375
1.8310546875
0
-0.91552734375
4.57763671875
15.56396484375
12.8173828125
11.90185546875
19.22607421875
21.97265625
32.04345703125
26.55029296875
19.22607421875
25.634765625
35.70556640625
42.1142578125
38.4521484375
42.1142578125
38.4521484375
37.53662109375
40.283203125
53.1005859375
62.255859375
57.67822265625
59.50927734375
66.83349609375
73.2421875
77.81982421875
80.56640625
75.0732421875
80.56640625
86.0595703125
88.80615234375
93.3837890625
92.46826171875
102.5390625
101.62353515625
110.77880859375
116.27197265625
133.6669921875
143.73779296875
136.41357421875
149.23095703125
151.06201171875
158.38623046875
173.03466796875
173.9501953125
171.20361328125
178.52783203125
184.02099609375
184.9365234375
199.5849609375
207.82470703125
204.16259765625
213.31787109375
206.9091796875
214.2333984375
230.712890625
234.375
238.95263671875
246.27685546875
246.27685546875
255.43212890625
262.75634765625
270.99609375
274.658203125
275.57373046875
278.3203125
276.4892578125
286.56005859375
287.4755859375
288.39111328125
286.56005859375
298.4619140625
291.1376953125
285.64453125
286.56005859375
288.39111328125
280.1513671875
281.06689453125
270.99609375
253.60107421875
246.27685546875
232.5439453125
227.05078125
212.40234375
207.82470703125
195.9228515625
184.9365234375
172.119140625
158.38623046875
145.56884765625
132.75146484375
124.51171875
108.94775390625
100.7080078125
81.48193359375
66.83349609375
62.255859375
49.4384765625
44.86083984375
35.70556640625
34.7900390625
23.8037109375
10.07080078125
-2.74658203125
-9.1552734375
-12.8173828125
-16.4794921875
-36.62109375
-31.1279296875
-30.21240234375
-30.21240234375
-28.38134765625
-31.1279296875
-26.55029296875
-38.4521484375
-40.283203125
-47.607421875
-42.1142578125
-33.87451171875
-38.4521484375
-44.86083984375
-47.607421875
-44.86083984375
-30.21240234375
-32.04345703125
-39.36767578125
-47.607421875
-46.69189453125
-47.607421875
-61.34033203125
-65.91796875
-61.34033203125
-56.7626953125
-47.607421875
-44.86083984375
-47.607421875
-55.84716796875
-52.18505859375
-43.02978515625
-51.26953125
-57.67822265625
-59.50927734375
-43.02978515625
-42.1142578125
-51.26953125
-49.4384765625
-52.18505859375
-45.7763671875
-46.69189453125
-43.9453125
-49.4384765625
-52.18505859375
-49.4384765625
-43.02978515625
-43.9453125
-45.7763671875
-48.52294921875
-52.18505859375
-53.1005859375
-52.18505859375
-52.18505859375
-54.931640625
-54.01611328125
-65.00244140625
-66.83349609375
-67.7490234375
-66.83349609375
-68.66455078125
-59.50927734375
-56.7626953125
-62.255859375
-71.4111328125
-75.0732421875
-66.83349609375
-77.81982421875
-74.15771484375
-72.32666015625
-75.0732421875
-71.4111328125
-75.0732421875
-76.904296875
-85.14404296875
-80.56640625
-76.904296875
-71.4111328125
-70.49560546875
-82.3974609375
-72.32666015625
-76.904296875
-77.81982421875
-75.98876953125
-79.65087890625
-85.14404296875
-86.0595703125
-93.3837890625
-89.7216796875
-86.0595703125
-91.552734375
-86.0595703125
-82.3974609375
-91.552734375
-85.14404296875
-92.46826171875
-87.890625
-81.48193359375
-82.3974609375
-77.81982421875
-78.7353515625
-75.98876953125
-82.3974609375
-85.14404296875
-84.228515625
-80.56640625
-88.80615234375
-91.552734375
-93.3837890625
-89.7216796875
-80.56640625
-77.81982421875
-80.56640625
-85.14404296875
-84.228515625
-80.56640625
-86.97509765625
-85.14404296875
-86.0595703125
-84.228515625
-90.63720703125
-94.29931640625
-90.63720703125
-88.80615234375
-89.7216796875
-89.7216796875
-93.3837890625
-84.228515625
-84.228515625
-84.228515625
-77.81982421875
-85.14404296875
-84.228515625
-87.890625
-86.0595703125
-79.65087890625
-82.3974609375
-88.80615234375
-96.13037109375
-88.80615234375
-90.63720703125
-93.3837890625
-97.0458984375
-98.876953125
-88.80615234375
-86.0595703125
-89.7216796875
-90.63720703125
-90.63720703125
-82.3974609375
-74.15771484375
-68.66455078125
-62.255859375
-59.50927734375
-54.931640625
-47.607421875
-51.26953125
-60.4248046875
-54.01611328125
-60.4248046875
-52.18505859375
-48.52294921875
-54.931640625
-47.607421875
-47.607421875
-42.1142578125
-43.02978515625
-54.01611328125
-51.26953125
-65.00244140625
-67.7490234375
-53.1005859375
-47.607421875
-45.7763671875
-43.9453125
-33.87451171875
-21.97265625
-20.1416015625
-32.04345703125
-33.87451171875
-32.958984375
-35.70556640625
-25.634765625
-16.4794921875
-12.8173828125
-19.22607421875
-14.6484375
-15.56396484375
-29.296875
-37.53662109375
-45.7763671875
-63.17138671875
-78.7353515625
-86.97509765625
-85.14404296875
-90.63720703125
-91.552734375
-97.0458984375
-102.5390625
-96.13037109375
-100.7080078125
-103.45458984375
-108.94775390625
-111.6943359375
-102.5390625
-102.5390625
-106.201171875
-102.5390625
-97.0458984375
-97.0458984375
-93.3837890625
-91.552734375
-93.3837890625
-90.63720703125
-91.552734375
-92.46826171875
-97.96142578125
-99.79248046875
-105.28564453125
-118.10302734375
-122.6806640625
-121.76513671875
-134.58251953125
-138.24462890625
-147.39990234375
-135.498046875
-117.1875
-114.44091796875
-83.31298828125
-35.70556640625
51.26953125
182.18994140625
349.7314453125
509.94873046875
684.814453125
854.18701171875
1045.5322265625
1148.98681640625
1163.63525390625
1097.71728515625
952.1484375
754.39453125
487.97607421875
205.99365234375
-32.958984375
-234.375
-371.7041015625
-416.56494140625
-381.77490234375
-347.900390625
-310.36376953125
-273.74267578125
-256.34765625
-252.685546875
-239.8681640625
-215.14892578125
-185.85205078125
-158.38623046875
-130.92041015625
-111.6943359375
-84.228515625
-71.4111328125
-59.50927734375
-57.67822265625
-68.66455078125
-74.15771484375
-70.49560546875
-71.4111328125
-69.580078125
-72.32666015625
-71.4111328125
-62.255859375
-67.7490234375
-67.7490234375
-62.255859375
-58.59375
-62.255859375
-54.931640625
-56.7626953125
-53.1005859375
-51.26953125
-58.59375
-59.50927734375
-53.1005859375
-51.26953125
-37.53662109375
-33.87451171875
-35.70556640625
-41.19873046875
-32.958984375
-32.04345703125
-41.19873046875
-43.9453125
-35.70556640625
-34.7900390625
-31.1279296875
-23.8037109375
-21.05712890625
-19.22607421875
-17.39501953125
-25.634765625
-22.88818359375
-25.634765625
-25.634765625
-30.21240234375
-22.88818359375
-15.56396484375
-8.23974609375
-2.74658203125
-2.74658203125
5.4931640625
10.986328125
10.07080078125
10.986328125
14.6484375
12.8173828125
3.662109375
7.32421875
7.32421875
10.986328125
28.38134765625
32.04345703125
43.02978515625
44.86083984375
37.53662109375
45.7763671875
48.52294921875
50.35400390625
59.50927734375
65.00244140625
66.83349609375
68.66455078125
73.2421875
72.32666015625
75.98876953125
76.904296875
83.31298828125
93.3837890625
92.46826171875
97.0458984375
97.96142578125
97.96142578125
111.6943359375
116.27197265625
123.59619140625
132.75146484375
130.0048828125
137.3291015625
149.23095703125
158.38623046875
164.794921875
173.9501953125
176.69677734375
185.85205078125
188.5986328125
199.5849609375
202.33154296875
202.33154296875
209.65576171875
211.48681640625
215.14892578125
224.30419921875
232.5439453125
233.45947265625
223.388671875
234.375
242.61474609375
247.1923828125
244.44580078125
238.037109375
252.685546875
256.34765625
261.8408203125
252.685546875
255.43212890625
261.8408203125
266.41845703125
260.009765625
255.43212890625
242.61474609375
236.2060546875
235.29052734375
225.2197265625
210.5712890625
205.078125
197.75390625
183.10546875
155.6396484375
145.56884765625
141.90673828125
131.8359375
106.201171875
93.3837890625
80.56640625
61.34033203125
49.4384765625
49.4384765625
45.7763671875
34.7900390625
33.87451171875
29.296875
28.38134765625
23.8037109375
10.07080078125
4.57763671875
1.8310546875
-10.986328125
-17.39501953125
-22.88818359375
-30.21240234375
-42.1142578125
-52.18505859375
-55.84716796875
-48.52294921875
-42.1142578125
-43.02978515625
-47.607421875
-61.34033203125
-59.50927734375
-58.59375
-54.01611328125
-62.255859375
-53.1005859375
-49.4384765625
-54.01611328125
-57.67822265625
-60.4248046875
-57.67822265625
-62.255859375
-70.49560546875
-64.0869140625
-65.91796875
-57.67822265625
-55.84716796875
-52.18505859375
-56.7626953125
-70.49560546875
-65.00244140625
-71.4111328125
-68.66455078125
-65.00244140625
-71.4111328125
-75.98876953125
-71.4111328125
-75.98876953125
-75.0732421875
-78.7353515625
-74.15771484375
-79.65087890625
-85.14404296875
-75.0732421875
-65.91796875
-64.0869140625
-73.2421875
-75.98876953125
-74.15771484375
-77.81982421875
-73.2421875
-72.32666015625
-67.7490234375
-75.98876953125
-86.0595703125
-76.904296875
-65.00244140625
-65.00244140625
-70.49560546875
-75.98876953125
-75.0732421875
-75.0732421875
-73.2421875
-73.2421875
-76.904296875
-73.2421875
-77.81982421875
-86.97509765625
-83.31298828125
-75.0732421875
-74.15771484375
-88.80615234375
-99.79248046875
-92.46826171875
-87.890625
-88.80615234375
-77.81982421875
-91.552734375
-96.13037109375
-86.97509765625
-84.228515625
-86.97509765625
-88.80615234375
-84.228515625
-79.65087890625
-82.3974609375
-90.63720703125
-104.3701171875
-101.62353515625
-87.890625
-88.80615234375
-93.3837890625
-100.7080078125
-105.28564453125
-101.62353515625
-103.45458984375
-102.5390625
-108.0322265625
-105.28564453125
-102.5390625
-94.29931640625
-88.80615234375
-92.46826171875
-88.80615234375
-94.29931640625
-83.31298828125
-86.97509765625
-88.80615234375
-87.890625
-102.5390625
-101.62353515625
-103.45458984375
-98.876953125
-98.876953125
-96.13037109375
-90.63720703125
-98.876953125
-92.46826171875
-97.96142578125
-94.29931640625
-96.13037109375
-97.96142578125
-86.97509765625
-93.3837890625
-101.62353515625
-105.28564453125
-97.0458984375
-93.3837890625
-94.29931640625
-85.14404296875
-81.48193359375
-88.80615234375
-97.96142578125
-102.5390625
-104.3701171875
-107.11669921875
-109.86328125
-108.94775390625
-110.77880859375
-112.60986328125
-108.0322265625
-101.62353515625
-101.62353515625
-108.0322265625
-100.7080078125
-105.28564453125
-103.45458984375
-107.11669921875
-108.0322265625
-114.44091796875
-113.525390625
-114.44091796875
-115.3564453125
-112.60986328125
-102.5390625
-102.5390625
-98.876953125
-90.63720703125
-87.890625
-84.228515625
-91.552734375
-82.3974609375
-70.49560546875
-69.580078125
-77.81982421875
-69.580078125
-60.4248046875
-59.50927734375
-61.34033203125
-59.50927734375
-62.255859375
-57.67822265625
-63.17138671875
-72.32666015625
-67.7490234375
-64.0869140625
-68.66455078125
-69.580078125
-56.7626953125
-57.67822265625
-63.17138671875
-66.83349609375
-56.7626953125
-43.02978515625
-48.52294921875
-49.4384765625
-42.1142578125
-41.19873046875
-42.1142578125
-42.1142578125
-38.4521484375
-44.86083984375
-43.9453125
-38.4521484375
-27.4658203125
-29.296875
-26.55029296875
-26.55029296875
-29.296875
-36.62109375
-43.02978515625
-54.931640625
-65.00244140625
-72.32666015625
-89.7216796875
-102.5390625
-108.0322265625
-103.45458984375
-108.94775390625
-115.3564453125
-108.0322265625
-108.0322265625
-98.876953125
-99.79248046875
-105.28564453125
-97.96142578125
-105.28564453125
-108.94775390625
-109.86328125
-105.28564453125
-106.201171875
-109.86328125
-110.77880859375
-104.3701171875
-94.29931640625
-89.7216796875
-90.63720703125
-93.3837890625
-88.80615234375
-104.3701171875
-118.10302734375
-123.59619140625
-129.08935546875
-130.0048828125
-133.6669921875
-140.07568359375
-149.23095703125
-142.822265625
-126.3427734375
-122.6806640625
-99.79248046875
-71.4111328125
-3.662109375
106.201171875
259.09423828125
433.9599609375
605.16357421875
789.1845703125
980.52978515625
1125.18310546875
1170.0439453125
1138.916015625
1016.2353515625
846.86279296875
612.48779296875
337.82958984375
67.7490234375
-145.56884765625
-309.4482421875
-400.08544921875
-391.845703125
-357.97119140625
-316.7724609375
-278.3203125
-254.5166015625
-233.45947265625
-231.62841796875
-219.7265625
-184.9365234375
-157.470703125
-128.173828125
-100.7080078125
-87.890625
-81.48193359375
-81.48193359375
-77.81982421875
-79.65087890625
-89.7216796875
-81.48193359375
-77.81982421875
-73.2421875
-81.48193359375
-88.80615234375
-93.3837890625
-87.890625
-76.904296875
-68.66455078125
-63.17138671875
-60.4248046875
-70.49560546875
-63.17138671875
-53.1005859375
-50.35400390625
-49.4384765625
-42.1142578125
-46.69189453125
-54.931640625
-50.35400390625
-64.0869140625
-55.84716796875
-56.7626953125
-51.26953125
-43.9453125
-37.53662109375
-43.9453125
-43.9453125
-49.4384765625
-45.7763671875
-36.62109375
-22.88818359375
-13.73291015625
-12.8173828125
-18.310546875
-24.71923828125
-17.39501953125
-18.310546875
-20.1416015625
-16.4794921875
-6.40869140625
-9.1552734375
-6.40869140625
-3.662109375
0
4.57763671875
3.662109375
7.32421875
18.310546875
22.88818359375
21.97265625
7.32421875
-8.23974609375
0
-2.74658203125
4.57763671875
7.32421875
14.6484375
20.1416015625
29.296875
39.36767578125
54.01611328125
53.1005859375
55.84716796875
54.01611328125
48.52294921875
61.34033203125
76.904296875
75.98876953125
75.98876953125
72.32666015625
74.15771484375
79.65087890625
91.552734375
102.5390625
108.0322265625
91.552734375
97.0458984375
106.201171875
108.0322265625
120.849609375
117.1875
116.27197265625
133.6669921875
144.6533203125
145.56884765625
155.6396484375
160.21728515625
161.1328125
164.794921875
177.6123046875
184.02099609375
181.2744140625
191.34521484375
203.2470703125
213.31787109375
210.5712890625
212.40234375
206.9091796875
205.99365234375
226.13525390625
235.29052734375
243.5302734375
248.10791015625
238.037109375
231.62841796875
227.96630859375
226.13525390625
231.62841796875
233.45947265625
227.05078125
245.361328125
249.0234375
230.712890625
223.388671875
205.99365234375
195.00732421875
203.2470703125
198.66943359375
182.18994140625
175.78125
162.9638671875
158.38623046875
156.55517578125
140.07568359375
130.0048828125
114.44091796875
101.62353515625
86.97509765625
74.15771484375
58.59375
48.52294921875
30.21240234375
26.55029296875
23.8037109375
16.4794921875
4.57763671875
3.662109375
9.1552734375
7.32421875
-10.07080078125
-21.05712890625
-28.38134765625
-25.634765625
-33.87451171875
-30.21240234375
-32.958984375
-37.53662109375
-41.19873046875
-37.53662109375
-39.36767578125
-53.1005859375
-58.59375
-59.50927734375
-65.00244140625
-63.17138671875
-60.4248046875
-62.255859375
-62.255859375
-69.580078125
-69.580078125
-63.17138671875
-47.607421875
-44.86083984375
-46.69189453125
-49.4384765625
-54.931640625
-54.01611328125
-63.17138671875
-80.56640625
-76.904296875
-72.32666015625
-78.7353515625
-70.49560546875
-50.35400390625
-54.931640625
-59.50927734375
-80.56640625
-82.3974609375
-74.15771484375
-72.32666015625
-70.49560546875
-69.580078125
-70.49560546875
-67.7490234375
-66.83349609375
-70.49560546875
-65.91796875
-81.48193359375
-79.65087890625
-65.91796875
-60.4248046875
-61.34033203125
-73.2421875
-107.11669921875
-127.25830078125
-123.59619140625
-109.86328125
-91.552734375
-92.46826171875
-72.32666015625
-67.7490234375
-68.66455078125
-67.7490234375
-70.49560546875
-83.31298828125
-124.51171875
-130.92041015625
-119.93408203125
-127.25830078125
-115.3564453125
-88.80615234375
-70.49560546875
-66.83349609375
-58.59375
-54.931640625
-64.0869140625
-81.48193359375
-93.3837890625
-89.7216796875
-94.29931640625
-90.63720703125
-97.0458984375
-97.0458984375
-107.11669921875
-105.28564453125
-98.876953125
-86.97509765625
-90.63720703125
-87.890625
-78.7353515625
-82.3974609375
-85.14404296875
-81.48193359375
-83.31298828125
-96.13037109375
-115.3564453125
-114.44091796875
-97.96142578125
-89.7216796875
-99.79248046875
-109.86328125
-96.13037109375
-96.13037109375
-95.21484375
-102.5390625
-98.876953125
-97.0458984375
-99.79248046875
-107.11669921875
-114.44091796875
-112.60986328125
-104.3701171875
-103.45458984375
-104.3701171875
-95.21484375
-95.21484375
-115.3564453125
-102.5390625
-81.48193359375
-88.80615234375
-94.29931640625
-96.13037109375
-90.63720703125
-77.81982421875
-88.80615234375
-99.79248046875
-124.51171875
-151.06201171875
-144.6533203125
-122.6806640625
-101.62353515625
-97.96142578125
-86.97509765625
-87.890625
-93.3837890625
-109.86328125
-112.60986328125
-108.0322265625
-111.6943359375
-112.60986328125
-105.28564453125
-99.79248046875
-96.13037109375
-89.7216796875
-86.0595703125
-93.3837890625
-94.29931640625
-102.5390625
-118.10302734375
-139.16015625
-150.146484375
-162.9638671875
-128.173828125
-102.5390625
-77.81982421875
-44.86083984375
-32.04345703125
-53.1005859375
-88.80615234375
-108.94775390625
-103.45458984375
-118.10302734375
-111.6943359375
-100.7080078125
-97.0458984375
-94.29931640625
-116.27197265625
-133.6669921875
-128.173828125
-130.92041015625
-115.3564453125
-116.27197265625
-128.173828125
-154.72412109375
-145.56884765625
-103.45458984375
-79.65087890625
-77.81982421875
-55.84716796875
-51.26953125
-66.83349609375
-80.56640625
-95.21484375
-109.86328125
-135.498046875
-126.3427734375
-121.76513671875
-104.3701171875
-106.201171875
-82.3974609375
-72.32666015625
-60.4248046875
-48.52294921875
-42.1142578125
-54.01611328125
-64.0869140625
-73.2421875
-74.15771484375
-59.50927734375
-55.84716796875
-58.59375
-69.580078125
-82.3974609375
-86.0595703125
-86.0595703125
-91.552734375
-108.94775390625
-82.3974609375
-48.52294921875
-22.88818359375
-7.32421875
0
1.8310546875
5.4931640625
10.986328125
13.73291015625
-10.07080078125
-40.283203125
-58.59375
-70.49560546875
-71.4111328125
-54.01611328125
-41.19873046875
-53.1005859375
-65.00244140625
-64.0869140625
-75.0732421875
-97.96142578125
-101.62353515625
-63.17138671875
-62.255859375
-66.83349609375
-65.91796875
-56.7626953125
-56.7626953125
-81.48193359375
-111.6943359375
-115.3564453125
-107.11669921875
-115.3564453125
-100.7080078125
-77.81982421875
-74.15771484375
-77.81982421875
-71.4111328125
-94.29931640625
-106.201171875
-121.76513671875
-147.39990234375
-115.3564453125
-88.80615234375
-82.3974609375
-69.580078125
-63.17138671875
-58.59375
-67.7490234375
-59.50927734375
-75.0732421875
-91.552734375
-106.201171875
-123.59619140625
-140.07568359375
-151.9775390625
-148.3154296875
-135.498046875
-115.3564453125
-107.11669921875
-87.890625
-33.87451171875
65.91796875
202.33154296875
376.28173828125
574.03564453125
745.2392578125
867.919921875
978.69873046875
1039.12353515625
1011.65771484375
932.92236328125
790.10009765625
551.1474609375
274.658203125
12.8173828125
-185.85205078125
-318.603515625
-375.3662109375
-379.0283203125
-346.0693359375
-283.8134765625
-230.712890625
-228.8818359375
-223.388671875
-212.40234375
-229.79736328125
-199.5849609375
-198.66943359375
-196.83837890625
-163.87939453125
-119.93408203125
-105.28564453125
-96.13037109375
-77.81982421875
-97.96142578125
-94.29931640625
-77.81982421875
-68.66455078125
-73.2421875
-79.65087890625
-77.81982421875
-56.7626953125
-61.34033203125
-52.18505859375
-63.17138671875
-83.31298828125
-89.7216796875
-93.3837890625
-80.56640625
-51.26953125
-33.87451171875
-29.296875
-8.23974609375
7.32421875
4.57763671875
2.74658203125
-15.56396484375
-10.07080078125
-23.8037109375
-40.283203125
-58.59375
-60.4248046875
-61.34033203125
-52.18505859375
-39.36767578125
-40.283203125
-42.1142578125
-29.296875
-18.310546875
-21.05712890625
-32.04345703125
-31.1279296875
-40.283203125
-24.71923828125
-2.74658203125
11.90185546875
-0.91552734375
-0.91552734375
0
-4.57763671875
0.91552734375
-5.4931640625
0.91552734375
21.97265625
31.1279296875
26.55029296875
22.88818359375
10.986328125
5.4931640625
14.6484375
27.4658203125
34.7900390625
36.62109375
43.9453125
40.283203125
48.52294921875
50.35400390625
61.34033203125
61.34033203125
54.931640625
66.83349609375
76.904296875
86.0595703125
86.97509765625
85.14404296875
83.31298828125
81.48193359375
73.2421875
72.32666015625
73.2421875
89.7216796875
103.45458984375
106.201171875
124.51171875
135.498046875
129.08935546875
116.27197265625
134.58251953125
136.41357421875
145.56884765625
147.39990234375
137.3291015625
146.484375
162.04833984375
165.71044921875
185.85205078125
187.68310546875
193.17626953125
199.5849609375
206.9091796875
206.9091796875
221.5576171875
236.2060546875
248.10791015625
254.5166015625
258.1787109375
270.08056640625
268.24951171875
262.75634765625
252.685546875
256.34765625
255.43212890625
265.5029296875
265.5029296875
270.99609375
268.24951171875
270.08056640625
271.91162109375
256.34765625
254.5166015625
244.44580078125
236.2060546875
239.8681640625
234.375
224.30419921875
214.2333984375
200.50048828125
196.83837890625
189.51416015625
168.45703125
156.55517578125
145.56884765625
130.92041015625
121.76513671875
94.29931640625
93.3837890625
84.228515625
75.0732421875
62.255859375
59.50927734375
53.1005859375
52.18505859375
70.49560546875
75.98876953125
47.607421875
29.296875
21.97265625
9.1552734375
-4.57763671875
0.91552734375
-2.74658203125
6.40869140625
10.986328125
-1.8310546875
-21.97265625
-26.55029296875
-32.958984375
-39.36767578125
-39.36767578125
-60.4248046875
-56.7626953125
-59.50927734375
-56.7626953125
-47.607421875
-41.19873046875
-46.69189453125
-56.7626953125
-43.02978515625
-38.4521484375
-37.53662109375
-32.04345703125
-38.4521484375
-38.4521484375
-44.86083984375
-48.52294921875
-41.19873046875
-46.69189453125
-46.69189453125
-49.4384765625
-50.35400390625
-42.1142578125
-37.53662109375
-28.38134765625
-13.73291015625
-10.07080078125
-19.22607421875
-27.4658203125
-54.01611328125
-69.580078125
-72.32666015625
-87.890625
-75.0732421875
-67.7490234375
-65.00244140625
-53.1005859375
-41.19873046875
-40.283203125
-50.35400390625
-55.84716796875
-52.18505859375
-60.4248046875
-69.580078125
-72.32666015625
-78.7353515625
-74.15771484375
-63.17138671875
-62.255859375
-68.66455078125
-69.580078125
-75.0732421875
-81.48193359375
-81.48193359375
-61.34033203125
-55.84716796875
-61.34033203125
-56.7626953125
-67.7490234375
-72.32666015625
-67.7490234375
-64.0869140625
-60.4248046875
-61.34033203125
-65.00244140625
-74.15771484375
-73.2421875
-66.83349609375
-74.15771484375
-81.48193359375
-87.890625
-92.46826171875
-93.3837890625
-90.63720703125
-84.228515625
-74.15771484375
-77.81982421875
-86.0595703125
-92.46826171875
-80.56640625
-85.14404296875
-92.46826171875
-90.63720703125
-85.14404296875
-96.13037109375
-93.3837890625
-86.97509765625
-78.7353515625
-85.14404296875
-88.80615234375
-83.31298828125
-88.80615234375
-96.13037109375
-85.14404296875
-84.228515625
-85.14404296875
-86.0595703125
-94.29931640625
-101.62353515625
-104.3701171875
-97.0458984375
-87.890625
-87.890625
-94.29931640625
-89.7216796875
-86.97509765625
-85.14404296875
-83.31298828125
-86.0595703125
-97.0458984375
-108.0322265625
-103.45458984375
-96.13037109375
-98.876953125
-96.13037109375
-87.890625
-80.56640625
-86.97509765625
-77.81982421875
-69.580078125
-71.4111328125
-78.7353515625
-94.29931640625
-97.0458984375
-94.29931640625
-96.13037109375
-96.13037109375
-89.7216796875
-86.97509765625
-87.890625
-87.890625
-90.63720703125
-88.80615234375
-92.46826171875
-87.890625
-93.3837890625
-93.3837890625
-94.29931640625
-99.79248046875
-98.876953125
-88.80615234375
-95.21484375
-102.5390625
-103.45458984375
-95.21484375
-100.7080078125
-98.876953125
-98.876953125
-95.21484375
-102.5390625
-94.29931640625
-88.80615234375
-92.46826171875
-89.7216796875
-84.228515625
-84.228515625
-76.904296875
-72.32666015625
-67.7490234375
-65.91796875
-56.7626953125
-62.255859375
-72.32666015625
-76.904296875
-69.580078125
-60.4248046875
-59.50927734375
-54.931640625
-58.59375
-63.17138671875
-57.67822265625
-50.35400390625
-43.02978515625
-45.7763671875
-45.7763671875
-46.69189453125
-58.59375
-62.255859375
-59.50927734375
-43.02978515625
-35.70556640625
-44.86083984375
-34.7900390625
-41.19873046875
-24.71923828125
-21.05712890625
-20.1416015625
-26.55029296875
-33.87451171875
-30.21240234375
-23.8037109375
-16.4794921875
0.91552734375
14.6484375
1.8310546875
-6.40869140625
-9.1552734375
-16.4794921875
-26.55029296875
-43.02978515625
-69.580078125
-86.0595703125
-89.7216796875
-93.3837890625
-102.5390625
-112.60986328125
-104.3701171875
-110.77880859375
-121.76513671875
-113.525390625
-101.62353515625
-100.7080078125
-96.13037109375
-103.45458984375
-105.28564453125
-95.21484375
-103.45458984375
-103.45458984375
-98.876953125
-98.876953125
-108.94775390625
-102.5390625
-89.7216796875
-94.29931640625
-86.0595703125
-94.29931640625
-89.7216796875
-88.80615234375
-93.3837890625
-103.45458984375
-111.6943359375
-124.51171875
-129.08935546875
-126.3427734375
-121.76513671875
-118.10302734375
-112.60986328125
-91.552734375
-44.86083984375
54.01611328125
186.767578125
368.95751953125
546.56982421875
715.02685546875
879.82177734375
1040.0390625
1120.60546875
1108.70361328125
1013.48876953125
867.00439453125
661.92626953125
402.83203125
134.58251953125
-90.63720703125
-281.982421875
-384.521484375
-402.83203125
-360.7177734375
-312.19482421875
-272.8271484375
-253.60107421875
-230.712890625
-234.375
-237.12158203125
-224.30419921875
-189.51416015625
-170.2880859375
-151.06201171875
-126.3427734375
-104.3701171875
-94.29931640625
-79.65087890625
-74.15771484375
-75.98876953125
-64.0869140625
-59.50927734375
-66.83349609375
-73.2421875
-75.0732421875
-72.32666015625
-72.32666015625
-69.580078125
-62.255859375
-55.84716796875
-56.7626953125
-52.18505859375
-49.4384765625
-50.35400390625
-50.35400390625
-43.02978515625
-38.4521484375
-32.04345703125
-19.22607421875
-22.88818359375
-28.38134765625
-37.53662109375
-36.62109375
-36.62109375
-21.97265625
-22.88818359375
-11.90185546875
-7.32421875
-8.23974609375
-11.90185546875
-17.39501953125
-18.310546875
-24.71923828125
-17.39501953125
-17.39501953125
-16.4794921875
-13.73291015625
-18.310546875
-8.23974609375
-1.8310546875
1.8310546875
5.4931640625
17.39501953125
24.71923828125
25.634765625
21.97265625
18.310546875
10.986328125
12.8173828125
21.97265625
30.21240234375
24.71923828125
23.8037109375
31.1279296875
31.1279296875
31.1279296875
39.36767578125
43.9453125
45.7763671875
52.18505859375
58.59375
61.34033203125
58.59375
62.255859375
79.65087890625
75.0732421875
72.32666015625
71.4111328125
71.4111328125
70.49560546875
85.14404296875
85.14404296875
89.7216796875
107.11669921875
116.27197265625
132.75146484375
138.24462890625
144.6533203125
153.80859375
162.9638671875
165.71044921875
166.6259765625
170.2880859375
176.69677734375
176.69677734375
175.78125
183.10546875
183.10546875
184.02099609375
196.83837890625
205.078125
210.5712890625
216.064453125
214.2333984375
210.5712890625
220.64208984375
223.388671875
229.79736328125
232.5439453125
234.375
236.2060546875
225.2197265625
238.037109375
247.1923828125
250.8544921875
259.09423828125
249.93896484375
249.0234375
247.1923828125
257.26318359375
268.24951171875
281.06689453125
273.74267578125
264.58740234375
248.10791015625
235.29052734375
218.81103515625
178.52783203125
151.9775390625
162.04833984375
169.37255859375
166.6259765625
173.9501953125
187.68310546875
174.86572265625
168.45703125
165.71044921875
146.484375
115.3564453125
80.56640625
84.228515625
93.3837890625
97.0458984375
95.21484375
86.0595703125
75.0732421875
57.67822265625
25.634765625
12.8173828125
22.88818359375
22.88818359375
14.6484375
9.1552734375
-3.662109375
-10.07080078125
-13.73291015625
-20.1416015625
-22.88818359375
-31.1279296875
-26.55029296875
-28.38134765625
-26.55029296875
-36.62109375
-39.36767578125
-31.1279296875
-39.36767578125
-39.36767578125
-25.634765625
-18.310546875
-11.90185546875
-1.8310546875
-7.32421875
-22.88818359375
-38.4521484375
-58.59375
-75.98876953125
-78.7353515625
-74.15771484375
-64.0869140625
-59.50927734375
-54.01611328125
-49.4384765625
-46.69189453125
-51.26953125
-54.01611328125
-58.59375
-52.18505859375
-41.19873046875
-51.26953125
-55.84716796875
-63.17138671875
-62.255859375
-45.7763671875
-43.02978515625
-45.7763671875
-59.50927734375
-56.7626953125
-50.35400390625
-49.4384765625
-48.52294921875
-52.18505859375
-51.26953125
-44.86083984375
-39.36767578125
-52.18505859375
-49.4384765625
-55.84716796875
-60.4248046875
-48.52294921875
-44.86083984375
-41.19873046875
-47.607421875
-53.1005859375
-62.255859375
-74.15771484375
-78.7353515625
-65.91796875
-66.83349609375
-68.66455078125
-59.50927734375
-57.67822265625
-53.1005859375
-44.86083984375
-43.02978515625
-58.59375
-75.98876953125
-92.46826171875
-81.48193359375
-71.4111328125
-81.48193359375
-92.46826171875
-87.890625
-84.228515625
-97.96142578125
-106.201171875
-84.228515625
-65.91796875
-63.17138671875
-69.580078125
-61.34033203125
-59.50927734375
-79.65087890625
-78.7353515625
-55.84716796875
-54.931640625
-47.607421875
-42.1142578125
-63.17138671875
-66.83349609375
-75.98876953125
-66.83349609375
-70.49560546875
-55.84716796875
-64.0869140625
-77.81982421875
-85.14404296875
-86.97509765625
-79.65087890625
-75.0732421875
-78.7353515625
-69.580078125
-63.17138671875
-59.50927734375
-65.91796875
-84.228515625
-101.62353515625
-93.3837890625
-88.80615234375
-92.46826171875
-95.21484375
-89.7216796875
-90.63720703125
-84.228515625
-81.48193359375
-70.49560546875
-44.86083984375
-40.283203125
-54.01611328125
-65.00244140625
-75.0732421875
-85.14404296875
-96.13037109375
-88.80615234375
-78.7353515625
-71.4111328125
-65.91796875
-65.00244140625
-72.32666015625
-70.49560546875
-72.32666015625
-73.2421875
-70.49560546875
-61.34033203125
-62.255859375
-62.255859375
-75.98876953125
-73.2421875
-81.48193359375
-80.56640625
-79.65087890625
-68.66455078125
-64.0869140625
-60.4248046875
-60.4248046875
-71.4111328125
-78.7353515625
-87.890625
-115.3564453125
-115.3564453125
-98.876953125
-95.21484375
-90.63720703125
-76.904296875
-65.91796875
-59.50927734375
-51.26953125
-54.01611328125
-63.17138671875
-62.255859375
-62.255859375
-71.4111328125
-74.15771484375
-75.0732421875
-72.32666015625
-70.49560546875
-69.580078125
-71.4111328125
-76.904296875
-77.81982421875
-83.31298828125
-72.32666015625
-65.91796875
-80.56640625
-75.0732421875
-65.00244140625
-73.2421875
-80.56640625
-84.228515625
-86.97509765625
-81.48193359375
-75.98876953125
-73.2421875
-63.17138671875
-59.50927734375
-62.255859375
-60.4248046875
-64.0869140625
-44.86083984375
-35.70556640625
-32.04345703125
-28.38134765625
-14.6484375
-20.1416015625
-27.4658203125
-14.6484375
-12.8173828125
-23.8037109375
-45.7763671875
-54.01611328125
-54.01611328125
-47.607421875
-32.04345703125
-21.05712890625
-18.310546875
-12.8173828125
-4.57763671875
-1.8310546875
-19.22607421875
-23.8037109375
-9.1552734375
-6.40869140625
-14.6484375
-22.88818359375
-13.73291015625
-0.91552734375
3.662109375
7.32421875
18.310546875
10.986328125
-5.4931640625
-12.8173828125
-32.958984375
-36.62109375
-32.04345703125
-40.283203125
-40.283203125
-51.26953125
-66.83349609375
-82.3974609375
-83.31298828125
-83.31298828125
-86.0595703125
-86.0595703125
-78.7353515625
-72.32666015625
-70.49560546875
-74.15771484375
-65.00244140625
-66.83349609375
-78.7353515625
-84.228515625
-75.0732421875
-67.7490234375
-70.49560546875
-70.49560546875
-68.66455078125
-79.65087890625
-86.97509765625
-85.14404296875
-74.15771484375
-82.3974609375
-87.890625
-84.228515625
-98.876953125
-115.3564453125
-134.58251953125
-129.08935546875
-122.6806640625
-127.25830078125
-128.173828125
-118.10302734375
-86.0595703125
-30.21240234375
50.35400390625
196.83837890625
394.59228515625
576.7822265625
757.14111328125
942.07763671875
1140.7470703125
1239.6240234375
1250.6103515625
1148.0712890625
978.69873046875
747.0703125
474.2431640625
192.2607421875
-45.7763671875
-248.10791015625
-388.18359375
-398.25439453125
-340.576171875
-290.22216796875
-262.75634765625
-235.29052734375
-218.81103515625
-214.2333984375
-205.99365234375
-170.2880859375
-139.16015625
-95.21484375
-56.7626953125
-40.283203125
-34.7900390625
-32.958984375
-46.69189453125
-59.50927734375
-66.83349609375
-74.15771484375
-67.7490234375
-59.50927734375
-52.18505859375
-45.7763671875
-42.1142578125
-36.62109375
-36.62109375
-61.34033203125
-67.7490234375
-80.56640625
-86.97509765625
-65.91796875
-40.283203125
-23.8037109375
-20.1416015625
-27.4658203125
-22.88818359375
-21.05712890625
-48.52294921875
-55.84716796875
-34.7900390625
-19.22607421875
-7.32421875
-11.90185546875
-18.310546875
1.8310546875
8.23974609375
8.23974609375
-11.90185546875
-28.38134765625
-42.1142578125
-42.1142578125
-34.7900390625
-21.97265625
-10.986328125
-21.97265625
-29.296875
-21.05712890625
-13.73291015625
-12.8173828125
-10.07080078125
6.40869140625
26.55029296875
40.283203125
37.53662109375
31.1279296875
21.97265625
22.88818359375
27.4658203125
24.71923828125
28.38134765625
26.55029296875
21.97265625
35.70556640625
50.35400390625
48.52294921875
38.4521484375
50.35400390625
54.01611328125
54.01611328125
46.69189453125
44.86083984375
60.4248046875
65.00244140625
66.83349609375
75.0732421875
83.31298828125
95.21484375
85.14404296875
86.97509765625
87.890625
92.46826171875
100.7080078125
97.96142578125
79.65087890625
107.11669921875
126.3427734375
123.59619140625
115.3564453125
123.59619140625
130.92041015625
136.41357421875
154.72412109375
160.21728515625
152.89306640625
147.39990234375
172.119140625
190.4296875
195.00732421875
197.75390625
204.16259765625
203.2470703125
209.65576171875
220.64208984375
226.13525390625
228.8818359375
214.2333984375
215.14892578125
242.61474609375
259.09423828125
264.58740234375
256.34765625
257.26318359375
252.685546875
231.62841796875
214.2333984375
224.30419921875
246.27685546875
251.77001953125
260.009765625
267.333984375
249.0234375
241.69921875
248.10791015625
249.93896484375
230.712890625
228.8818359375
225.2197265625
217.8955078125
203.2470703125
198.66943359375
201.416015625
189.51416015625
170.2880859375
128.173828125
121.76513671875
126.3427734375
114.44091796875
114.44091796875
112.60986328125
106.201171875
97.0458984375
79.65087890625
65.00244140625
53.1005859375
43.9453125
27.4658203125
10.07080078125
6.40869140625
14.6484375
10.986328125
3.662109375
-5.4931640625
-8.23974609375
-2.74658203125
-10.986328125
-27.4658203125
-29.296875
-59.50927734375
-71.4111328125
-54.01611328125
-27.4658203125
-17.39501953125
-27.4658203125
-31.1279296875
-34.7900390625
-23.8037109375
-7.32421875
-11.90185546875
-30.21240234375
-49.4384765625
-61.34033203125
-61.34033203125
-48.52294921875
-49.4384765625
-43.02978515625
-39.36767578125
-50.35400390625
-56.7626953125
-61.34033203125
-65.00244140625
-55.84716796875
-58.59375
-56.7626953125
-61.34033203125
-60.4248046875
-50.35400390625
-41.19873046875
-43.9453125
-49.4384765625
-49.4384765625
-53.1005859375
-54.931640625
-54.931640625
-42.1142578125
-41.19873046875
-40.283203125
-31.1279296875
-40.283203125
-55.84716796875
-64.0869140625
-65.00244140625
-59.50927734375
-57.67822265625
-50.35400390625
-56.7626953125
-63.17138671875
-62.255859375
-55.84716796875
-59.50927734375
-71.4111328125
-73.2421875
-76.904296875
-79.65087890625
-79.65087890625
-89.7216796875
-94.29931640625
-98.876953125
-101.62353515625
-92.46826171875
-90.63720703125
-84.228515625
-95.21484375
-98.876953125
-101.62353515625
-104.3701171875
-91.552734375
-89.7216796875
-97.0458984375
-105.28564453125
-108.0322265625
-86.0595703125
-92.46826171875
-108.0322265625
-107.11669921875
-85.14404296875
-75.98876953125
-68.66455078125
-44.86083984375
-25.634765625
-40.283203125
-46.69189453125
-80.56640625
-87.890625
-89.7216796875
-99.79248046875
-102.5390625
-115.3564453125
-110.77880859375
-94.29931640625
-98.876953125
-94.29931640625
-85.14404296875
-79.65087890625
-63.17138671875
-71.4111328125
-92.46826171875
-99.79248046875
-106.201171875
-116.27197265625
-116.27197265625
-108.0322265625
-88.80615234375
-83.31298828125
-86.97509765625
-97.0458984375
-93.3837890625
-83.31298828125
-82.3974609375
-97.96142578125
-104.3701171875
-107.11669921875
-103.45458984375
-101.62353515625
-109.86328125
-109.86328125
-100.7080078125
-92.46826171875
-99.79248046875
-104.3701171875
-112.60986328125
-109.86328125
-113.525390625
-97.96142578125
-94.29931640625
-107.11669921875
-108.0322265625
-113.525390625
-94.29931640625
-77.81982421875
-85.14404296875
-97.0458984375
-97.0458984375
-97.0458984375
-94.29931640625
-105.28564453125
-106.201171875
-97.0458984375
-90.63720703125
-96.13037109375
-88.80615234375
-95.21484375
-105.28564453125
-105.28564453125
-99.79248046875
-92.46826171875
-97.0458984375
-98.876953125
-100.7080078125
-103.45458984375
-105.28564453125
-102.5390625
-105.28564453125
-106.201171875
-107.11669921875
-101.62353515625
-99.79248046875
-100.7080078125
-99.79248046875
-97.96142578125
-94.29931640625
-86.0595703125
-93.3837890625
-106.201171875
-127.25830078125
-136.41357421875
-129.08935546875
-122.6806640625
-110.77880859375
-114.44091796875
-119.93408203125
-113.525390625
-113.525390625
-109.86328125
-99.79248046875
-105.28564453125
-101.62353515625
-97.0458984375
-98.876953125
-106.201171875
-102.5390625
-102.5390625
-105.28564453125
-108.94775390625
-98.876953125
-95.21484375
-96.13037109375
-95.21484375
-91.552734375
-86.0595703125
-81.48193359375
-90.63720703125
-79.65087890625
-68.66455078125
-66.83349609375
-54.01611328125
-52.18505859375
-63.17138671875
-73.2421875
-81.48193359375
-69.580078125
-61.34033203125
-50.35400390625
-47.607421875
-45.7763671875
-48.52294921875
-37.53662109375
-43.02978515625
-45.7763671875
-38.4521484375
-30.21240234375
-34.7900390625
-31.1279296875
-32.04345703125
-11.90185546875
-13.73291015625
-8.23974609375
-5.4931640625
-21.05712890625
-21.05712890625
-23.8037109375
-22.88818359375
-20.1416015625
-54.01611328125
-82.3974609375
-57.67822265625
-50.35400390625
-53.1005859375
-56.7626953125
-56.7626953125
-70.49560546875
-72.32666015625
-61.34033203125
-71.4111328125
-79.65087890625
-76.904296875
-86.97509765625
-84.228515625
-90.63720703125
-101.62353515625
-92.46826171875
-97.96142578125
-97.96142578125
-97.0458984375
-93.3837890625
-83.31298828125
-86.97509765625
-78.7353515625
-81.48193359375
-80.56640625
-85.14404296875
-83.31298828125
-86.0595703125
-98.876953125
-103.45458984375
-95.21484375
-86.0595703125
-92.46826171875
-87.890625
-70.49560546875
-93.3837890625
-108.94775390625
-126.3427734375
-134.58251953125
-144.6533203125
-131.8359375
-121.76513671875
-86.0595703125
-27.4658203125
87.890625
241.69921875
431.21337890625
615.234375
789.1845703125
986.9384765625
1142.578125
1198.42529296875
1169.12841796875
1053.77197265625
860.595703125
644.53125
386.3525390625
126.3427734375
-88.80615234375
-264.58740234375
-357.0556640625
-362.548828125
-339.66064453125
-302.1240234375
-261.8408203125
-239.8681640625
-241.69921875
-216.064453125
-186.767578125
-170.2880859375
-139.16015625
-113.525390625
-81.48193359375
-51.26953125
-42.1142578125
-38.4521484375
-43.02978515625
-46.69189453125
-45.7763671875
-36.62109375
-48.52294921875
-50.35400390625
-53.1005859375
-46.69189453125
-42.1142578125
-37.53662109375
-43.9453125
-41.19873046875
-41.19873046875
-46.69189453125
-58.59375
-53.1005859375
-42.1142578125
-32.958984375
-27.4658203125
-31.1279296875
-42.1142578125
-37.53662109375
-42.1142578125
-48.52294921875
-28.38134765625
-22.88818359375
-30.21240234375
-27.4658203125
-19.22607421875
-5.4931640625
-5.4931640625
-12.8173828125
-3.662109375
-7.32421875
-9.1552734375
-14.6484375
-20.1416015625
-12.8173828125
-9.1552734375
-10.986328125
-16.4794921875
-20.1416015625
-4.57763671875
-1.8310546875
-1.8310546875
0
17.39501953125
27.4658203125
28.38134765625
33.87451171875
38.4521484375
29.296875
22.88818359375
23.8037109375
29.296875
23.8037109375
19.22607421875
17.39501953125
32.04345703125
48.52294921875
45.7763671875
48.52294921875
63.17138671875
78.7353515625
79.65087890625
67.7490234375
54.931640625
52.18505859375
61.34033203125
63.17138671875
62.255859375
66.83349609375
72.32666015625
75.98876953125
89.7216796875
96.13037109375
94.29931640625
108.94775390625
122.6806640625
124.51171875
123.59619140625
128.173828125
136.41357421875
155.6396484375
173.03466796875
166.6259765625
151.06201171875
151.06201171875
150.146484375
162.04833984375
162.04833984375
173.03466796875
174.86572265625
170.2880859375
182.18994140625
202.33154296875
203.2470703125
212.40234375
220.64208984375
231.62841796875
240.78369140625
240.78369140625
257.26318359375
249.0234375
243.5302734375
247.1923828125
245.361328125
233.45947265625
239.8681640625
248.10791015625
251.77001953125
253.60107421875
249.93896484375
263.671875
266.41845703125
254.5166015625
255.43212890625
257.26318359375
255.43212890625
240.78369140625
226.13525390625
222.47314453125
211.48681640625
205.99365234375
201.416015625
180.35888671875
170.2880859375
153.80859375
142.822265625
141.90673828125
126.3427734375
111.6943359375
103.45458984375
91.552734375
99.79248046875
93.3837890625
86.97509765625
75.0732421875
49.4384765625
29.296875
30.21240234375
20.1416015625
3.662109375
0
10.07080078125
10.07080078125
3.662109375
-14.6484375
-16.4794921875
-0.91552734375
0
3.662109375
-7.32421875
-0.91552734375
-4.57763671875
-7.32421875
-13.73291015625
-22.88818359375
-50.35400390625
-30.21240234375
-49.4384765625
-59.50927734375
-55.84716796875
-41.19873046875
-46.69189453125
-54.931640625
-54.01611328125
-39.36767578125
-33.87451171875
-26.55029296875
-30.21240234375
-40.283203125
-40.283203125
-29.296875
-19.22607421875
-13.73291015625
-21.97265625
-46.69189453125
-68.66455078125
-65.91796875
-41.19873046875
-40.283203125
-35.70556640625
-32.04345703125
-45.7763671875
-43.9453125
-35.70556640625
-29.296875
-36.62109375
-47.607421875
-52.18505859375
-58.59375
-59.50927734375
-53.1005859375
-54.01611328125
-58.59375
-53.1005859375
-55.84716796875
-53.1005859375
-42.1142578125
-37.53662109375
-32.958984375
-65.00244140625
-78.7353515625
-58.59375
-49.4384765625
-46.69189453125
-45.7763671875
-43.02978515625
-54.931640625
-70.49560546875
-90.63720703125
-97.96142578125
-82.3974609375
-68.66455078125
-65.91796875
-81.48193359375
-74.15771484375
-61.34033203125
-51.26953125
-64.0869140625
-69.580078125
-49.4384765625
-47.607421875
-45.7763671875
-66.83349609375
-88.80615234375
-103.45458984375
-87.890625
-65.91796875
-64.0869140625
-55.84716796875
-60.4248046875
-62.255859375
-77.81982421875
-75.0732421875
-71.4111328125
-83.31298828125
-87.890625
-85.14404296875
-77.81982421875
-82.3974609375
-74.15771484375
-65.00244140625
-87.890625
-82.3974609375
-75.98876953125
-72.32666015625
-72.32666015625
-73.2421875
-86.97509765625
-86.97509765625
-73.2421875
-66.83349609375
-69.580078125
-77.81982421875
-80.56640625
-79.65087890625
-78.7353515625
-80.56640625
-86.97509765625
-107.11669921875
-114.44091796875
-100.7080078125
-86.0595703125
-82.3974609375
-71.4111328125
-64.0869140625
-57.67822265625
-65.91796875
-70.49560546875
-72.32666015625
-81.48193359375
-81.48193359375
-77.81982421875
-75.0732421875
-87.890625
-95.21484375
-85.14404296875
-81.48193359375
-83.31298828125
-75.98876953125
-79.65087890625
-87.890625
-77.81982421875
-74.15771484375
-75.98876953125
-65.91796875
-60.4248046875
-73.2421875
-68.66455078125
-90.63720703125
-88.80615234375
-77.81982421875
-91.552734375
-95.21484375
-101.62353515625
-90.63720703125
-82.3974609375
-77.81982421875
-83.31298828125
-89.7216796875
-105.28564453125
-97.96142578125
-86.97509765625
-84.228515625
-75.0732421875
-75.98876953125
-79.65087890625
-75.0732421875
-75.0732421875
-67.7490234375
-68.66455078125
-78.7353515625
-78.7353515625
-78.7353515625
-89.7216796875
-94.29931640625
-104.3701171875
-108.0322265625
-93.3837890625
-91.552734375
-98.876953125
-85.14404296875
-77.81982421875
-78.7353515625
-56.7626953125
-63.17138671875
-77.81982421875
-97.0458984375
-93.3837890625
-86.0595703125
-86.0595703125
-87.890625
-84.228515625
-79.65087890625
-88.80615234375
-82.3974609375
-79.65087890625
-77.81982421875
-77.81982421875
-70.49560546875
-52.18505859375
-48.52294921875
-66.83349609375
-64.0869140625
-44.86083984375
-42.1142578125
-43.9453125
-44.86083984375
-46.69189453125
-50.35400390625
-48.52294921875
-42.1142578125
-35.70556640625
-48.52294921875
-65.00244140625
-52.18505859375
-32.04345703125
-31.1279296875
-43.02978515625
-53.1005859375
-51.26953125
-44.86083984375
-35.70556640625
-28.38134765625
-20.1416015625
-25.634765625
-15.56396484375
-13.73291015625
-10.986328125
-7.32421875
-10.986328125
-10.986328125
-0.91552734375
10.07080078125
0
-14.6484375
-25.634765625
-30.21240234375
-23.8037109375
-26.55029296875
-53.1005859375
-65.00244140625
-74.15771484375
-69.580078125
-78.7353515625
-86.97509765625
-82.3974609375
-69.580078125
-64.0869140625
-59.50927734375
-65.00244140625
-76.904296875
-97.0458984375
-99.79248046875
-90.63720703125
-93.3837890625
-97.96142578125
-85.14404296875
-83.31298828125
-86.97509765625
-75.98876953125
-76.904296875
-73.2421875
-86.97509765625
-87.890625
-85.14404296875
-89.7216796875
-75.98876953125
-75.98876953125
-93.3837890625
-104.3701171875
-109.86328125
-119.0185546875
-126.3427734375
-110.77880859375
-103.45458984375
-112.60986328125
-108.94775390625
-75.98876953125
-1.8310546875
112.60986328125
282.89794921875
464.17236328125
650.0244140625
812.98828125
975.9521484375
1113.28125
1127.9296875
1062.01171875
908.203125
718.68896484375
489.80712890625
205.078125
-53.1005859375
-265.5029296875
-382.6904296875
-411.9873046875
-393.6767578125
-355.224609375
-285.64453125
-245.361328125
-238.037109375
-229.79736328125
-225.2197265625
-226.13525390625
-214.2333984375
-195.00732421875
-175.78125
-152.89306640625
-115.3564453125
-83.31298828125
-71.4111328125
-66.83349609375
-64.0869140625
-54.931640625
-59.50927734375
-60.4248046875
-50.35400390625
-64.0869140625
-75.98876953125
-67.7490234375
-56.7626953125
-42.1142578125
-40.283203125
-30.21240234375
-26.55029296875
-21.97265625
-24.71923828125
-21.05712890625
-18.310546875
-30.21240234375
-33.87451171875
-26.55029296875
-25.634765625
-26.55029296875
-29.296875
-31.1279296875
-30.21240234375
-25.634765625
-22.88818359375
-38.4521484375
-41.19873046875
-26.55029296875
-26.55029296875
-32.958984375
-24.71923828125
-14.6484375
-12.8173828125
-10.986328125
-5.4931640625
4.57763671875
2.74658203125
1.8310546875
-8.23974609375
-10.07080078125
-3.662109375
-1.8310546875
-0.91552734375
0
8.23974609375
16.4794921875
16.4794921875
21.97265625
20.1416015625
30.21240234375
47.607421875
44.86083984375
43.9453125
33.87451171875
39.36767578125
29.296875
21.05712890625
29.296875
47.607421875
47.607421875
44.86083984375
46.69189453125
53.1005859375
57.67822265625
61.34033203125
72.32666015625
78.7353515625
86.0595703125
89.7216796875
95.21484375
84.228515625
91.552734375
94.29931640625
92.46826171875
95.21484375
116.27197265625
123.59619140625
125.42724609375
130.92041015625
139.16015625
142.822265625
150.146484375
149.23095703125
144.6533203125
146.484375
159.3017578125
172.119140625
180.35888671875
173.03466796875
174.86572265625
186.767578125
202.33154296875
209.65576171875
209.65576171875
205.078125
209.65576171875
213.31787109375
218.81103515625
216.97998046875
234.375
246.27685546875
245.361328125
255.43212890625
263.671875
246.27685546875
249.93896484375
254.5166015625
250.8544921875
266.41845703125
270.08056640625
270.08056640625
260.009765625
260.009765625
244.44580078125
236.2060546875
257.26318359375
264.58740234375
250.8544921875
239.8681640625
231.62841796875
217.8955078125
198.66943359375
189.51416015625
174.86572265625
158.38623046875
126.3427734375
118.10302734375
103.45458984375
109.86328125
122.6806640625
122.6806640625
102.5390625
86.97509765625
78.7353515625
66.83349609375
51.26953125
39.36767578125
22.88818359375
21.05712890625
4.57763671875
-25.634765625
-14.6484375
1.8310546875
6.40869140625
-0.91552734375
-5.4931640625
-10.986328125
-18.310546875
-29.296875
-38.4521484375
-41.19873046875
-55.84716796875
-63.17138671875
-49.4384765625
-51.26953125
-45.7763671875
-40.283203125
-50.35400390625
-47.607421875
-43.9453125
-52.18505859375
-53.1005859375
-49.4384765625
-39.36767578125
-34.7900390625
-34.7900390625
-28.38134765625
-31.1279296875
-34.7900390625
-46.69189453125
-62.255859375
-76.904296875
-73.2421875
-53.1005859375
-49.4384765625
-45.7763671875
-47.607421875
-40.283203125
-43.9453125
-38.4521484375
-44.86083984375
-55.84716796875
-71.4111328125
-79.65087890625
-75.98876953125
-59.50927734375
-52.18505859375
-50.35400390625
-38.4521484375
-37.53662109375
-33.87451171875
-39.36767578125
-50.35400390625
-47.607421875
-47.607421875
-55.84716796875
-60.4248046875
-61.34033203125
-65.00244140625
-59.50927734375
-55.84716796875
-66.83349609375
-72.32666015625
-62.255859375
-60.4248046875
-75.0732421875
-85.14404296875
-82.3974609375
-85.14404296875
-87.890625
-75.0732421875
-63.17138671875
-60.4248046875
-61.34033203125
-70.49560546875
-79.65087890625
-72.32666015625
-72.32666015625
-76.904296875
-84.228515625
-85.14404296875
-80.56640625
-80.56640625
-81.48193359375
-78.7353515625
-73.2421875
-75.0732421875
-88.80615234375
-104.3701171875
-100.7080078125
-101.62353515625
-107.11669921875
-106.201171875
-104.3701171875
-104.3701171875
-112.60986328125
-95.21484375
-84.228515625
-74.15771484375
-81.48193359375
-86.97509765625
-93.3837890625
-97.96142578125
-97.96142578125
-93.3837890625
-93.3837890625
-85.14404296875
-86.0595703125
-86.97509765625
-109.86328125
-115.3564453125
-92.46826171875
-85.14404296875
-91.552734375
-87.890625
-85.14404296875
-96.13037109375
-78.7353515625
-70.49560546875
-71.4111328125
-73.2421875
-80.56640625
-89.7216796875
-96.13037109375
-98.876953125
-101.62353515625
-101.62353515625
-114.44091796875
-114.44091796875
-125.42724609375
-116.27197265625
-100.7080078125
-85.14404296875
-73.2421875
-76.904296875
-74.15771484375
-81.48193359375
-73.2421875
-75.98876953125
-89.7216796875
-94.29931640625
-97.0458984375
-93.3837890625
-86.97509765625
-89.7216796875
-102.5390625
-102.5390625
-91.552734375
-91.552734375
-86.0595703125
-88.80615234375
-85.14404296875
-100.7080078125
-106.201171875
-114.44091796875
-113.525390625
-87.890625
-86.0595703125
-91.552734375
-106.201171875
-104.3701171875
-98.876953125
-84.228515625
-88.80615234375
-109.86328125
-121.76513671875
-121.76513671875
-105.28564453125
-90.63720703125
-81.48193359375
-77.81982421875
-85.14404296875
-104.3701171875
-88.80615234375
-78.7353515625
-86.0595703125
-92.46826171875
-95.21484375
-94.29931640625
-99.79248046875
-93.3837890625
-95.21484375
-106.201171875
-110.77880859375
-124.51171875
-126.3427734375
-139.16015625
-128.173828125
-107.11669921875
-97.0458984375
-96.13037109375
-98.876953125
-100.7080078125
-103.45458984375
-97.96142578125
-94.29931640625
-97.96142578125
-99.79248046875
-95.21484375
-103.45458984375
-101.62353515625
-97.0458984375
-84.228515625
-63.17138671875
-63.17138671875
-50.35400390625
-48.52294921875
-49.4384765625
-44.86083984375
-50.35400390625
-60.4248046875
-57.67822265625
-46.69189453125
-46.69189453125
-30.21240234375
-23.8037109375
-27.4658203125
-49.4384765625
-44.86083984375
-38.4521484375
-40.283203125
-43.9453125
-43.02978515625
-58.59375
-61.34033203125
-37.53662109375
-29.296875
-12.8173828125
-8.23974609375
-22.88818359375
-18.310546875
-18.310546875
-12.8173828125
0.91552734375
-16.4794921875
-23.8037109375
-38.4521484375
-46.69189453125
-54.01611328125
-75.98876953125
-92.46826171875
-95.21484375
-100.7080078125
-98.876953125
-108.0322265625
-115.3564453125
-116.27197265625
-118.10302734375
-95.21484375
-85.14404296875
-90.63720703125
-101.62353515625
-95.21484375
-85.14404296875
-94.29931640625
-110.77880859375
-121.76513671875
-121.76513671875
-118.10302734375
-123.59619140625
-128.173828125
-119.93408203125
-115.3564453125
-106.201171875
-103.45458984375
-100.7080078125
-97.0458984375
-91.552734375
-104.3701171875
-120.849609375
-136.41357421875
-142.822265625
-140.07568359375
-136.41357421875
-140.9912109375
-140.07568359375
-128.173828125
-83.31298828125
0
119.0185546875
289.306640625
477.9052734375
667.41943359375
839.53857421875
1004.33349609375
1123.35205078125
1157.2265625
1105.95703125
966.796875
777.28271484375
527.34375
250.8544921875
-1.8310546875
-216.064453125
-363.46435546875
-422.9736328125
-390.0146484375
-348.81591796875
-307.6171875
-278.3203125
-257.26318359375
-249.0234375
-246.27685546875
-231.62841796875
-216.064453125
-187.68310546875
-151.06201171875
-111.6943359375
-91.552734375
-84.228515625
-74.15771484375
-82.3974609375
-78.7353515625
-65.00244140625
-78.7353515625
-91.552734375
-82.3974609375
-70.49560546875
-75.0732421875
-83.31298828125
-81.48193359375
-79.65087890625
-74.15771484375
-66.83349609375
-54.01611328125
-46.69189453125
-45.7763671875
-40.283203125
-40.283203125
-34.7900390625
-40.283203125
-45.7763671875
-52.18505859375
-52.18505859375
-47.607421875
-46.69189453125
-54.01611328125
-59.50927734375
-57.67822265625
-35.70556640625
-37.53662109375
-34.7900390625
-32.958984375
-23.8037109375
-20.1416015625
-20.1416015625
-25.634765625
-33.87451171875
-36.62109375
-41.19873046875
-48.52294921875
-47.607421875
-29.296875
-33.87451171875
-24.71923828125
-18.310546875
-21.05712890625
-20.1416015625
-16.4794921875
-13.73291015625
1.8310546875
12.8173828125
12.8173828125
6.40869140625
8.23974609375
12.8173828125
6.40869140625
14.6484375
21.05712890625
25.634765625
25.634765625
34.7900390625
33.87451171875
32.958984375
35.70556640625
37.53662109375
43.02978515625
50.35400390625
47.607421875
50.35400390625
57.67822265625
65.91796875
71.4111328125
63.17138671875
68.66455078125
78.7353515625
97.0458984375
109.86328125
108.0322265625
110.77880859375
118.10302734375
121.76513671875
116.27197265625
118.10302734375
108.94775390625
115.3564453125
129.08935546875
130.0048828125
140.9912109375
145.56884765625
142.822265625
149.23095703125
160.21728515625
173.9501953125
183.10546875
176.69677734375
176.69677734375
175.78125
184.9365234375
189.51416015625
192.2607421875
202.33154296875
214.2333984375
221.5576171875
229.79736328125
242.61474609375
249.0234375
251.77001953125
231.62841796875
221.5576171875
220.64208984375
216.97998046875
212.40234375
211.48681640625
216.064453125
219.7265625
218.81103515625
218.81103515625
210.5712890625
207.82470703125
221.5576171875
221.5576171875
216.97998046875
199.5849609375
196.83837890625
184.02099609375
166.6259765625
151.06201171875
130.0048828125
113.525390625
108.0322265625
108.94775390625
81.48193359375
72.32666015625
65.91796875
58.59375
58.59375
50.35400390625
37.53662109375
21.97265625
-3.662109375
-16.4794921875
-16.4794921875
-13.73291015625
-11.90185546875
-13.73291015625
-14.6484375
-21.97265625
-30.21240234375
-39.36767578125
-50.35400390625
-58.59375
-55.84716796875
-47.607421875
-38.4521484375
-49.4384765625
-57.67822265625
-72.32666015625
-82.3974609375
-65.00244140625
-55.84716796875
-55.84716796875
-48.52294921875
-55.84716796875
-54.01611328125
-52.18505859375
-40.283203125
-23.8037109375
-20.1416015625
-32.04345703125
-45.7763671875
-62.255859375
-77.81982421875
-88.80615234375
-89.7216796875
-98.876953125
-102.5390625
-102.5390625
-98.876953125
-92.46826171875
-81.48193359375
-77.81982421875
-72.32666015625
-64.0869140625
-54.01611328125
-65.00244140625
-73.2421875
-67.7490234375
-70.49560546875
-83.31298828125
-84.228515625
-73.2421875
-77.81982421875
-84.228515625
-80.56640625
-79.65087890625
-77.81982421875
-83.31298828125
-87.890625
-96.13037109375
-98.876953125
-96.13037109375
-103.45458984375
-99.79248046875
-85.14404296875
-73.2421875
-77.81982421875
-77.81982421875
-76.904296875
-82.3974609375
-79.65087890625
-76.904296875
-78.7353515625
-80.56640625
-77.81982421875
-76.904296875
-90.63720703125
-78.7353515625
-83.31298828125
-86.97509765625
-87.890625
-92.46826171875
-103.45458984375
-111.6943359375
-97.0458984375
-87.890625
-93.3837890625
-94.29931640625
-97.96142578125
-119.0185546875
-116.27197265625
-125.42724609375
-119.93408203125
-114.44091796875
-110.77880859375
-104.3701171875
-109.86328125
-104.3701171875
-96.13037109375
-87.890625
-81.48193359375
-94.29931640625
-103.45458984375
-110.77880859375
-112.60986328125
-109.86328125
-111.6943359375
-113.525390625
-112.60986328125
-108.0322265625
-103.45458984375
-106.201171875
-107.11669921875
-108.0322265625
-113.525390625
-119.93408203125
-133.6669921875
-118.10302734375
-106.201171875
-115.3564453125
-120.849609375
-108.0322265625
-120.849609375
-119.93408203125
-113.525390625
-105.28564453125
-110.77880859375
-107.11669921875
-112.60986328125
-115.3564453125
-114.44091796875
-103.45458984375
-98.876953125
-104.3701171875
-91.552734375
-98.876953125
-105.28564453125
-106.201171875
-99.79248046875
-108.0322265625
-112.60986328125
-114.44091796875
-119.0185546875
-125.42724609375
-109.86328125
-117.1875
-127.25830078125
-122.6806640625
-138.24462890625
-132.75146484375
-111.6943359375
-118.10302734375
-108.0322265625
-95.21484375
-92.46826171875
-100.7080078125
-99.79248046875
-98.876953125
-105.28564453125
-112.60986328125
-123.59619140625
-113.525390625
-127.25830078125
-119.0185546875
-123.59619140625
-116.27197265625
-115.3564453125
-110.77880859375
-100.7080078125
-106.201171875
-109.86328125
-102.5390625
-97.0458984375
-94.29931640625
-102.5390625
-119.93408203125
-127.25830078125
-116.27197265625
-119.93408203125
-123.59619140625
-124.51171875
-121.76513671875
-119.0185546875
-107.11669921875
-96.13037109375
-92.46826171875
-94.29931640625
-97.0458984375
-96.13037109375
-102.5390625
-98.876953125
-110.77880859375
-118.10302734375
-125.42724609375
-119.0185546875
-115.3564453125
-113.525390625
-112.60986328125
-112.60986328125
-112.60986328125
-103.45458984375
-91.552734375
-97.0458984375
-97.0458984375
-100.7080078125
-93.3837890625
-73.2421875
-77.81982421875
-79.65087890625
-77.81982421875
-76.904296875
-79.65087890625
-76.904296875
-76.904296875
-74.15771484375
-73.2421875
-73.2421875
-60.4248046875
-60.4248046875
-65.00244140625
-86.0595703125
-83.31298828125
-72.32666015625
-74.15771484375
-69.580078125
-56.7626953125
-53.1005859375
-47.607421875
-46.69189453125
-44.86083984375
-31.1279296875
-32.958984375
-29.296875
-56.7626953125
-65.91796875
-54.931640625
-51.26953125
-47.607421875
-30.21240234375
-40.283203125
-60.4248046875
-43.02978515625
-47.607421875
-49.4384765625
-55.84716796875
-69.580078125
-87.890625
-100.7080078125
-108.94775390625
-111.6943359375
-119.93408203125
-130.92041015625
-130.0048828125
-130.0048828125
-123.59619140625
-123.59619140625
-110.77880859375
-108.0322265625
-108.94775390625
-108.0322265625
-110.77880859375
-102.5390625
-88.80615234375
-90.63720703125
-98.876953125
-108.94775390625
-111.6943359375
-111.6943359375
-114.44091796875
-118.10302734375
-117.1875
-111.6943359375
-113.525390625
-113.525390625
-116.27197265625
-121.76513671875
-125.42724609375
-131.8359375
-140.07568359375
-147.39990234375
-142.822265625
-139.16015625
-129.08935546875
-97.0458984375
-12.8173828125
102.5390625
275.57373046875
453.18603515625
631.7138671875
802.91748046875
996.09375
1122.4365234375
1146.240234375
1092.22412109375
959.47265625
758.97216796875
508.11767578125
225.2197265625
-27.4658203125
-234.375
-377.197265625
-424.8046875
-393.6767578125
-350.64697265625
-315.85693359375
-278.3203125
-259.09423828125
-247.1923828125
-219.7265625
-192.2607421875
-167.54150390625
-151.9775390625
-142.822265625
-115.3564453125
-99.79248046875
-88.80615234375
-83.31298828125
-75.98876953125
-78.7353515625
-78.7353515625
-81.48193359375
-77.81982421875
-80.56640625
-86.97509765625
-73.2421875
-76.904296875
-86.97509765625
-86.0595703125
-81.48193359375
-79.65087890625
-74.15771484375
-75.98876953125
-53.1005859375
-52.18505859375
-53.1005859375
-60.4248046875
-48.52294921875
-54.931640625
-54.01611328125
-60.4248046875
-54.01611328125
-46.69189453125
-57.67822265625
-55.84716796875
-46.69189453125
-43.02978515625
-33.87451171875
-48.52294921875
-46.69189453125
-42.1142578125
-33.87451171875
-37.53662109375
-43.02978515625
-52.18505859375
-49.4384765625
-52.18505859375
-49.4384765625
-41.19873046875
-37.53662109375
-38.4521484375
-35.70556640625
-32.958984375
-25.634765625
-21.97265625
-8.23974609375
-0.91552734375
-3.662109375
-4.57763671875
-0.91552734375
1.8310546875
-0.91552734375
15.56396484375
14.6484375
3.662109375
14.6484375
21.97265625
25.634765625
21.97265625
33.87451171875
46.69189453125
43.9453125
26.55029296875
21.05712890625
32.04345703125
42.1142578125
46.69189453125
52.18505859375
56.7626953125
66.83349609375
71.4111328125
72.32666015625
80.56640625
81.48193359375
97.0458984375
94.29931640625
85.14404296875
87.890625
96.13037109375
103.45458984375
105.28564453125
115.3564453125
130.0048828125
125.42724609375
128.173828125
132.75146484375
122.6806640625
135.498046875
142.822265625
145.56884765625
156.55517578125
163.87939453125
167.54150390625
180.35888671875
184.02099609375
195.00732421875
210.5712890625
210.5712890625
216.97998046875
216.064453125
224.30419921875
223.388671875
214.2333984375
204.16259765625
203.2470703125
219.7265625
224.30419921875
210.5712890625
219.7265625
226.13525390625
238.037109375
252.685546875
256.34765625
259.09423828125
253.60107421875
252.685546875
239.8681640625
227.05078125
212.40234375
191.34521484375
190.4296875
180.35888671875
163.87939453125
144.6533203125
131.8359375
119.93408203125
117.1875
109.86328125
102.5390625
97.96142578125
86.0595703125
71.4111328125
72.32666015625
67.7490234375
45.7763671875
36.62109375
21.05712890625
18.310546875
9.1552734375
0.91552734375
0.91552734375
-3.662109375
-20.1416015625
-31.1279296875
-30.21240234375
-21.97265625
-34.7900390625
-43.02978515625
-47.607421875
-43.9453125
-39.36767578125
-30.21240234375
-35.70556640625
-43.9453125
-48.52294921875
-56.7626953125
-66.83349609375
-69.580078125
-68.66455078125
-73.2421875
-82.3974609375
-78.7353515625
-81.48193359375
-71.4111328125
-69.580078125
-74.15771484375
-60.4248046875
-63.17138671875
-65.91796875
-65.91796875
-74.15771484375
-74.15771484375
-73.2421875
-65.00244140625
-55.84716796875
-54.01611328125
-54.01611328125
-56.7626953125
-65.00244140625
-68.66455078125
-70.49560546875
-67.7490234375
-76.904296875
-83.31298828125
-80.56640625
-76.904296875
-72.32666015625
-74.15771484375
-74.15771484375
-68.66455078125
-73.2421875
-75.0732421875
-74.15771484375
-83.31298828125
-86.97509765625
-75.0732421875
-89.7216796875
-84.228515625
-78.7353515625
-75.98876953125
-74.15771484375
-70.49560546875
-72.32666015625
-78.7353515625
-81.48193359375
-88.80615234375
-84.228515625
-85.14404296875
-97.0458984375
-99.79248046875
-94.29931640625
-93.3837890625
-93.3837890625
-91.552734375
-84.228515625
-85.14404296875
-83.31298828125
-76.904296875
-83.31298828125
-93.3837890625
-83.31298828125
-85.14404296875
-97.96142578125
-97.96142578125
-98.876953125
-97.96142578125
-98.876953125
-102.5390625
-109.86328125
-113.525390625
-116.27197265625
-113.525390625
-114.44091796875
-110.77880859375
-104.3701171875
-96.13037109375
-96.13037109375
-98.876953125
-97.0458984375
-107.11669921875
-108.94775390625
-97.0458984375
-99.79248046875
-102.5390625
-101.62353515625
-107.11669921875
-119.93408203125
-117.1875
-115.3564453125
-130.0048828125
-118.10302734375
-102.5390625
-103.45458984375
-97.0458984375
-93.3837890625
-92.46826171875
-90.63720703125
-83.31298828125
-80.56640625
-89.7216796875
-91.552734375
-105.28564453125
-116.27197265625
-113.525390625
-110.77880859375
-108.0322265625
-98.876953125
-98.876953125
-102.5390625
-107.11669921875
-101.62353515625
-108.0322265625
-108.94775390625
-106.201171875
-97.0458984375
-96.13037109375
-101.62353515625
-108.94775390625
-119.0185546875
-109.86328125
-108.94775390625
-95.21484375
-104.3701171875
-114.44091796875
-113.525390625
-110.77880859375
-105.28564453125
-119.0185546875
-109.86328125
-109.86328125
-109.86328125
-121.76513671875
-121.76513671875
-105.28564453125
-97.0458984375
-99.79248046875
-103.45458984375
-87.890625
-88.80615234375
-90.63720703125
-93.3837890625
-98.876953125
-91.552734375
-102.5390625
-98.876953125
-88.80615234375
-82.3974609375
-79.65087890625
-81.48193359375
-97.0458984375
-103.45458984375
-114.44091796875
-111.6943359375
-111.6943359375
-119.0185546875
-123.59619140625
-116.27197265625
-108.0322265625
-110.77880859375
-112.60986328125
-108.0322265625
-105.28564453125
-106.201171875
-108.0322265625
-104.3701171875
-108.94775390625
-115.3564453125
-120.849609375
-119.0185546875
-112.60986328125
-112.60986328125
-117.1875
-113.525390625
-102.5390625
-96.13037109375
-93.3837890625
-88.80615234375
-88.80615234375
-92.46826171875
-88.80615234375
-84.228515625
-78.7353515625
-83.31298828125
-84.228515625
-75.0732421875
-63.17138671875
-57.67822265625
-53.1005859375
-56.7626953125
-56.7626953125
-59.50927734375
-60.4248046875
-65.91796875
-68.66455078125
-81.48193359375
-73.2421875
-50.35400390625
-51.26953125
-57.67822265625
-57.67822265625
-52.18505859375
-44.86083984375
-39.36767578125
-32.958984375
-29.296875
-31.1279296875
-31.1279296875
-38.4521484375
-28.38134765625
-12.8173828125
-21.05712890625
-30.21240234375
-38.4521484375
-38.4521484375
-46.69189453125
-68.66455078125
-91.552734375
-100.7080078125
-101.62353515625
-112.60986328125
-97.96142578125
-90.63720703125
-109.86328125
-107.11669921875
-102.5390625
-100.7080078125
-93.3837890625
-86.0595703125
-85.14404296875
-87.890625
-93.3837890625
-101.62353515625
-103.45458984375
-110.77880859375
-119.0185546875
-126.3427734375
-119.0185546875
-120.849609375
-120.849609375
-107.11669921875
-111.6943359375
-108.0322265625
-99.79248046875
-102.5390625
-105.28564453125
-101.62353515625
-119.0185546875
-140.07568359375
-138.24462890625
-149.23095703125
-140.9912109375
-142.822265625
-130.0048828125
-128.173828125
-95.21484375
-42.1142578125
69.580078125
227.96630859375
390.0146484375
564.88037109375
722.35107421875
884.3994140625
1019.8974609375
1050.10986328125
982.36083984375
844.1162109375
669.25048828125
433.9599609375
158.38623046875
-97.0458984375
-296.630859375
-401.91650390625
-433.9599609375
-414.73388671875
-368.95751953125
-303.955078125
-270.08056640625
-266.41845703125
-263.671875
-252.685546875
-245.361328125
-242.61474609375
-224.30419921875
-216.064453125
-185.85205078125
-154.72412109375
-124.51171875
-103.45458984375
-91.552734375
-80.56640625
-69.580078125
-66.83349609375
-56.7626953125
-55.84716796875
-60.4248046875
-72.32666015625
-75.98876953125
-88.80615234375
-99.79248046875
-87.890625
-93.3837890625
-83.31298828125
-59.50927734375
-53.1005859375
-43.02978515625
-46.69189453125
-43.9453125
-42.1142578125
-38.4521484375
-16.4794921875
0.91552734375
-10.07080078125
-17.39501953125
-18.310546875
-16.4794921875
-27.4658203125
-34.7900390625
-43.02978515625
-39.36767578125
-25.634765625
-34.7900390625
-47.607421875
-36.62109375
-23.8037109375
-19.22607421875
-13.73291015625
-15.56396484375
-19.22607421875
-23.8037109375
-25.634765625
-30.21240234375
-22.88818359375
-15.56396484375
-19.22607421875
-17.39501953125
-10.07080078125
-0.91552734375
13.73291015625
21.97265625
29.296875
23.8037109375
24.71923828125
35.70556640625
31.1279296875
24.71923828125
21.97265625
23.8037109375
21.05712890625
30.21240234375
44.86083984375
51.26953125
50.35400390625
51.26953125
63.17138671875
71.4111328125
70.49560546875
85.14404296875
88.80615234375
94.29931640625
89.7216796875
93.3837890625
100.7080078125
100.7080078125
104.3701171875
104.3701171875
114.44091796875
115.3564453125
119.0185546875
125.42724609375
137.3291015625
145.56884765625
138.24462890625
141.90673828125
155.6396484375
157.470703125
162.04833984375
171.20361328125
169.37255859375
172.119140625
180.35888671875
192.2607421875
195.9228515625
199.5849609375
212.40234375
211.48681640625
215.14892578125
232.5439453125
242.61474609375
240.78369140625
251.77001953125
253.60107421875
261.8408203125
265.5029296875
268.24951171875
268.24951171875
267.333984375
266.41845703125
274.658203125
281.06689453125
280.1513671875
286.56005859375
282.89794921875
271.91162109375
265.5029296875
267.333984375
262.75634765625
253.60107421875
252.685546875
242.61474609375
238.95263671875
227.05078125
217.8955078125
211.48681640625
203.2470703125
177.6123046875
161.1328125
157.470703125
138.24462890625
121.76513671875
111.6943359375
97.96142578125
72.32666015625
56.7626953125
51.26953125
40.283203125
31.1279296875
30.21240234375
36.62109375
47.607421875
38.4521484375
21.97265625
25.634765625
24.71923828125
12.8173828125
-0.91552734375
-2.74658203125
-4.57763671875
-10.986328125
-17.39501953125
-21.97265625
-22.88818359375
-20.1416015625
-26.55029296875
-38.4521484375
-43.02978515625
-40.283203125
-34.7900390625
-31.1279296875
-37.53662109375
-41.19873046875
-39.36767578125
-42.1142578125
-46.69189453125
-39.36767578125
-43.9453125
-54.01611328125
-58.59375
-55.84716796875
-57.67822265625
-58.59375
-65.91796875
-69.580078125
-75.98876953125
-74.15771484375
-74.15771484375
-74.15771484375
-78.7353515625
-78.7353515625
-72.32666015625
-83.31298828125
-86.0595703125
-97.96142578125
-111.6943359375
-110.77880859375
-113.525390625
-109.86328125
-92.46826171875
-62.255859375
-18.310546875
1.8310546875
-7.32421875
-13.73291015625
-17.39501953125
-14.6484375
-25.634765625
-25.634765625
-30.21240234375
-44.86083984375
-49.4384765625
-54.931640625
-52.18505859375
-52.18505859375
-59.50927734375
-64.0869140625
-62.255859375
-68.66455078125
-64.0869140625
-65.00244140625
-69.580078125
-71.4111328125
-65.91796875
-69.580078125
-78.7353515625
-86.0595703125
-86.97509765625
-80.56640625
-89.7216796875
-93.3837890625
-88.80615234375
-82.3974609375
-87.890625
-92.46826171875
-88.80615234375
-92.46826171875
-82.3974609375
-84.228515625
-92.46826171875
-92.46826171875
-92.46826171875
-94.29931640625
-82.3974609375
-86.97509765625
-85.14404296875
-81.48193359375
-77.81982421875
-83.31298828125
-81.48193359375
-86.0595703125
-92.46826171875
-84.228515625
-94.29931640625
-97.96142578125
-100.7080078125
-107.11669921875
-107.11669921875
-111.6943359375
-117.1875
-116.27197265625
-117.1875
-114.44091796875
-110.77880859375
-105.28564453125
-101.62353515625
-100.7080078125
-99.79248046875
-89.7216796875
-82.3974609375
-81.48193359375
-83.31298828125
-88.80615234375
-94.29931640625
-100.7080078125
-99.79248046875
-97.0458984375
-97.0458984375
-97.0458984375
-105.28564453125
-94.29931640625
-90.63720703125
-99.79248046875
-99.79248046875
-100.7080078125
-97.96142578125
-106.201171875
-116.27197265625
-105.28564453125
-97.96142578125
-100.7080078125
-104.3701171875
-106.201171875
-93.3837890625
-88.80615234375
-97.96142578125
-104.3701171875
-113.525390625
-112.60986328125
-115.3564453125
-113.525390625
-108.0322265625
-97.0458984375
-97.96142578125
-103.45458984375
-100.7080078125
-98.876953125
-97.96142578125
-97.0458984375
-104.3701171875
-113.525390625
-101.62353515625
-98.876953125
-95.21484375
-93.3837890625
-86.0595703125
-92.46826171875
-90.63720703125
-97.0458984375
-99.79248046875
-106.201171875
-95.21484375
-99.79248046875
-95.21484375
-81.48193359375
-88.80615234375
-94.29931640625
-100.7080078125
-106.201171875
-100.7080078125
-98.876953125
-107.11669921875
-106.201171875
-100.7080078125
-92.46826171875
-86.97509765625
-94.29931640625
-97.96142578125
-87.890625
-88.80615234375
-81.48193359375
-69.580078125
-66.83349609375
-65.91796875
-70.49560546875
-66.83349609375
-65.00244140625
-67.7490234375
-63.17138671875
-70.49560546875
-60.4248046875
-51.26953125
-51.26953125
-58.59375
-63.17138671875
-73.2421875
-70.49560546875
-63.17138671875
-61.34033203125
-62.255859375
-49.4384765625
-54.01611328125
-36.62109375
-25.634765625
-15.56396484375
-10.07080078125
-10.07080078125
-7.32421875
0
-8.23974609375
-9.1552734375
-14.6484375
-20.1416015625
-21.97265625
-32.958984375
-34.7900390625
-50.35400390625
-62.255859375
-77.81982421875
-79.65087890625
-88.80615234375
-85.14404296875
-84.228515625
-88.80615234375
-97.0458984375
-100.7080078125
-104.3701171875
-108.0322265625
-99.79248046875
-90.63720703125
-88.80615234375
-95.21484375
-95.21484375
-116.27197265625
-115.3564453125
-113.525390625
-113.525390625
-111.6943359375
-114.44091796875
-112.60986328125
-111.6943359375
-103.45458984375
-110.77880859375
-104.3701171875
-94.29931640625
-87.890625
-97.96142578125
-113.525390625
-118.10302734375
-139.16015625
-135.498046875
-139.16015625
-138.24462890625
-135.498046875
-114.44091796875
-85.14404296875
-34.7900390625
86.97509765625
238.037109375
425.72021484375
601.50146484375
773.62060546875
948.486328125
1090.39306640625
1140.7470703125
1105.04150390625
989.68505859375
814.8193359375
580.4443359375
307.6171875
51.26953125
-169.37255859375
-338.7451171875
-422.05810546875
-404.6630859375
-357.97119140625
-301.20849609375
-268.24951171875
-249.93896484375
-237.12158203125
-231.62841796875
-224.30419921875
-206.9091796875
-179.443359375
-155.6396484375
-128.173828125
-108.0322265625
-96.13037109375
-86.97509765625
-79.65087890625
-69.580078125
-73.2421875
-71.4111328125
-71.4111328125
-75.98876953125
-74.15771484375
-72.32666015625
-72.32666015625
-65.91796875
-65.91796875
-61.34033203125
-67.7490234375
-64.0869140625
-55.84716796875
-55.84716796875
-60.4248046875
-58.59375
-63.17138671875
-61.34033203125
-57.67822265625
-56.7626953125
-49.4384765625
-48.52294921875
-52.18505859375
-51.26953125
-43.9453125
-45.7763671875
-32.958984375
-27.4658203125
-23.8037109375
-20.1416015625
-24.71923828125
-26.55029296875
-21.97265625
-21.05712890625
-19.22607421875
-20.1416015625
-21.97265625
-16.4794921875
-19.22607421875
-18.310546875
-9.1552734375
-4.57763671875
3.662109375
9.1552734375
17.39501953125
14.6484375
7.32421875
-1.8310546875
3.662109375
14.6484375
12.8173828125
23.8037109375
23.8037109375
34.7900390625
49.4384765625
50.35400390625
51.26953125
52.18505859375
54.01611328125
48.52294921875
45.7763671875
51.26953125
43.02978515625
52.18505859375
54.01611328125
52.18505859375
57.67822265625
56.7626953125
55.84716796875
60.4248046875
68.66455078125
74.15771484375
61.34033203125
74.15771484375
93.3837890625
103.45458984375
112.60986328125
115.3564453125
122.6806640625
140.9912109375
151.06201171875
155.6396484375
158.38623046875
163.87939453125
168.45703125
174.86572265625
175.78125
171.20361328125
175.78125
181.2744140625
178.52783203125
185.85205078125
201.416015625
207.82470703125
203.2470703125
210.5712890625
221.5576171875
232.5439453125
246.27685546875
250.8544921875
250.8544921875
256.34765625
255.43212890625
249.93896484375
244.44580078125
242.61474609375
259.09423828125
258.1787109375
260.009765625
260.009765625
257.26318359375
260.92529296875
252.685546875
253.60107421875
250.8544921875
249.0234375
251.77001953125
244.44580078125
222.47314453125
211.48681640625
198.66943359375
187.68310546875
182.18994140625
174.86572265625
162.04833984375
145.56884765625
138.24462890625
119.93408203125
113.525390625
106.201171875
98.876953125
95.21484375
86.97509765625
65.91796875
50.35400390625
37.53662109375
31.1279296875
16.4794921875
8.23974609375
4.57763671875
6.40869140625
-6.40869140625
-3.662109375
-6.40869140625
-10.07080078125
-16.4794921875
-22.88818359375
-32.958984375
-35.70556640625
-43.9453125
-54.01611328125
-54.01611328125
-49.4384765625
-48.52294921875
-54.931640625
-54.931640625
-55.84716796875
-58.59375
-55.84716796875
-54.01611328125
-52.18505859375
-47.607421875
-55.84716796875
-62.255859375
-64.0869140625
-62.255859375
-70.49560546875
-66.83349609375
-65.00244140625
-60.4248046875
-54.931640625
-53.1005859375
-51.26953125
-52.18505859375
-46.69189453125
-51.26953125
-53.1005859375
-52.18505859375
-66.83349609375
-59.50927734375
-65.00244140625
-63.17138671875
-65.00244140625
-59.50927734375
-55.84716796875
-54.931640625
-51.26953125
-52.18505859375
-54.01611328125
-54.01611328125
-59.50927734375
-56.7626953125
-58.59375
-64.0869140625
-70.49560546875
-75.0732421875
-70.49560546875
-65.00244140625
-64.0869140625
-66.83349609375
-72.32666015625
-71.4111328125
-72.32666015625
-61.34033203125
-61.34033203125
-61.34033203125
-63.17138671875
-60.4248046875
-61.34033203125
-67.7490234375
-70.49560546875
-75.98876953125
-77.81982421875
-81.48193359375
-75.98876953125
-74.15771484375
-85.14404296875
-78.7353515625
-79.65087890625
-86.0595703125
-86.0595703125
