ECG
-13.73291015625
-7.32421875
-5.4931640625
-3.662109375
-8.23974609375
-10.986328125
-11.90185546875
-19.22607421875
-16.4794921875
-16.4794921875
-19.22607421875
-22.88818359375
-19.22607421875
-21.97265625
-20.1416015625
-19.22607421875
-14.6484375
-15.56396484375
-15.56396484375
-12.8173828125
-11.90185546875
-11.90185546875
-11.90185546875
-14.6484375
-20.1416015625
-20.1416015625
-18.310546875
-20.1416015625
-25.634765625
-16.4794921875
-10.07080078125
-9.1552734375
-9.1552734375
-4.57763671875
-3.662109375
-6.40869140625
-8.23974609375
-10.986328125
-9.1552734375
-8.23974609375
-8.23974609375
-8.23974609375
-8.23974609375
-6.40869140625
-4.57763671875
-4.57763671875
-8.23974609375
-7.32421875
-14.6484375
-13.73291015625
-6.40869140625
-1.8310546875
-1.8310546875
-3.662109375
-1.8310546875
-8.23974609375
-3.662109375
-8.23974609375
-6.40869140625
-2.74658203125
1.8310546875
0.91552734375
0
-1.8310546875
-7.32421875
-16.4794921875
-18.310546875
-8.23974609375
-10.07080078125
-14.6484375
-10.986328125
-10.07080078125
-11.90185546875
-10.07080078125
-13.73291015625
-10.986328125
-9.1552734375
-10.07080078125
-17.39501953125
-15.56396484375
-12.8173828125
-15.56396484375
-10.07080078125
-16.4794921875
-10.986328125
-16.4794921875
-20.1416015625
-15.56396484375
-21.97265625
-26.55029296875
-26.55029296875
-24.71923828125
-24.71923828125
-21.05712890625
-27.4658203125
-34.7900390625
-33.87451171875
-32.958984375
-33.87451171875
-28.38134765625
-25.634765625
-24.71923828125
-23.8037109375
-23.8037109375
-24.71923828125
-23.8037109375
-29.296875
-24.71923828125
-13.73291015625
-21.97265625
-28.38134765625
-30.21240234375
-35.70556640625
-31.1279296875
-25.634765625
-31.1279296875
-38.4521484375
-36.62109375
-35.70556640625
-35.70556640625
-35.70556640625
-32.958984375
-40.283203125
-43.9453125
-43.02978515625
-50.35400390625
-52.18505859375
-49.4384765625
-49.4384765625
-44.86083984375
-45.7763671875
-40.283203125
-33.87451171875
-26.55029296875
-25.634765625
-33.87451171875
-36.62109375
-36.62109375
-38.4521484375
-40.283203125
-43.9453125
-42.1142578125
-44.86083984375
-47.607421875
-51.26953125
-62.255859375
-64.0869140625
-55.84716796875
-47.607421875
-44.86083984375
-38.4521484375
-38.4521484375
-43.02978515625
-45.7763671875
-51.26953125
-48.52294921875
-56.7626953125
-54.931640625
-54.931640625
-49.4384765625
-46.69189453125
-51.26953125
-51.26953125
-48.52294921875
-45.7763671875
-45.7763671875
-51.26953125
-52.18505859375
-50.35400390625
-49.4384765625
-54.01611328125
-51.26953125
-53.1005859375
-55.84716796875
-46.69189453125
-33.87451171875
-21.05712890625
-10.07080078125
-8.23974609375
-14.6484375
-21.05712890625
-30.21240234375
-21.05712890625
-3.662109375
-2.74658203125
-2.74658203125
11.90185546875
14.6484375
19.22607421875
25.634765625
20.1416015625
10.07080078125
3.662109375
-0.91552734375
-2.74658203125
-6.40869140625
-12.8173828125
-19.22607421875
-32.04345703125
-33.87451171875
-35.70556640625
-42.1142578125
-43.02978515625
-46.69189453125
-49.4384765625
-52.18505859375
-58.59375
-59.50927734375
-68.66455078125
-73.2421875
-75.0732421875
-76.904296875
-80.56640625
-76.904296875
-82.3974609375
-88.80615234375
-87.890625
-88.80615234375
-88.80615234375
-95.21484375
-92.46826171875
-83.31298828125
-80.56640625
-87.890625
-98.876953125
-97.0458984375
-91.552734375
-97.96142578125
-93.3837890625
-90.63720703125
-82.3974609375
-86.97509765625
-90.63720703125
-87.890625
-85.14404296875
-84.228515625
-81.48193359375
-81.48193359375
-86.97509765625
-90.63720703125
-87.890625
-92.46826171875
-95.21484375
-88.80615234375
-93.3837890625
-103.45458984375
-111.6943359375
-115.3564453125
-117.1875
-107.11669921875
-82.3974609375
-43.9453125
7.32421875
106.201171875
228.8818359375
345.15380859375
476.07421875
612.48779296875
707.70263671875
795.59326171875
913.6962890625
1051.94091796875
1138.916015625
1159.0576171875
1129.7607421875
964.9658203125
666.50390625
361.63330078125
110.77880859375
-64.0869140625
-87.890625
-70.49560546875
-50.35400390625
-51.26953125
-30.21240234375
-5.4931640625
4.57763671875
8.23974609375
3.662109375
-1.8310546875
-16.4794921875
-21.97265625
-21.05712890625
-30.21240234375
-36.62109375
-50.35400390625
-65.00244140625
-58.59375
-57.67822265625
-50.35400390625
-45.7763671875
-48.52294921875
-54.01611328125
-48.52294921875
-51.26953125
-46.69189453125
-47.607421875
-50.35400390625
-47.607421875
-53.1005859375
-57.67822265625
-54.931640625
-55.84716796875
-51.26953125
-49.4384765625
-54.01611328125
-65.91796875
-65.91796875
-64.0869140625
-65.91796875
-66.83349609375
-60.4248046875
-53.1005859375
-51.26953125
-52.18505859375
-53.1005859375
-45.7763671875
-52.18505859375
-53.1005859375
-46.69189453125
-39.36767578125
-39.36767578125
-42.1142578125
-41.19873046875
-42.1142578125
-41.19873046875
-33.87451171875
-37.53662109375
-36.62109375
-36.62109375
-39.36767578125
-40.283203125
-40.283203125
-41.19873046875
-40.283203125
-31.1279296875
-27.4658203125
-29.296875
-32.04345703125
-25.634765625
-21.97265625
-21.97265625
-26.55029296875
-24.71923828125
-21.05712890625
-21.97265625
-16.4794921875
-17.39501953125
-22.88818359375
-16.4794921875
-2.74658203125
-4.57763671875
-0.91552734375
-2.74658203125
-4.57763671875
-8.23974609375
-8.23974609375
1.8310546875
3.662109375
9.1552734375
11.90185546875
7.32421875
1.8310546875
0.91552734375
9.1552734375
12.8173828125
16.4794921875
28.38134765625
31.1279296875
37.53662109375
43.02978515625
45.7763671875
59.50927734375
64.0869140625
66.83349609375
75.0732421875
76.904296875
77.81982421875
76.904296875
75.98876953125
80.56640625
78.7353515625
79.65087890625
85.14404296875
96.13037109375
94.29931640625
90.63720703125
91.552734375
94.29931640625
100.7080078125
99.79248046875
94.29931640625
99.79248046875
101.62353515625
92.46826171875
78.7353515625
75.98876953125
72.32666015625
75.0732421875
71.4111328125
62.255859375
48.52294921875
44.86083984375
36.62109375
26.55029296875
17.39501953125
12.8173828125
-0.91552734375
-7.32421875
-17.39501953125
-30.21240234375
-33.87451171875
-37.53662109375
-40.283203125
-45.7763671875
-49.4384765625
-56.7626953125
-61.34033203125
-70.49560546875
-72.32666015625
-68.66455078125
-83.31298828125
-81.48193359375
-78.7353515625
-72.32666015625
-71.4111328125
-76.904296875
-82.3974609375
-88.80615234375
-90.63720703125
-89.7216796875
-89.7216796875
-101.62353515625
-115.3564453125
-108.94775390625
-105.28564453125
-91.552734375
-85.14404296875
-89.7216796875
-95.21484375
-89.7216796875
-88.80615234375
-87.890625
-91.552734375
-93.3837890625
-97.0458984375
-97.0458984375
-89.7216796875
-95.21484375
-92.46826171875
-98.876953125
-94.29931640625
-94.29931640625
-93.3837890625
-92.46826171875
-98.876953125
-105.28564453125
-115.3564453125
-110.77880859375
-104.3701171875
-101.62353515625
-97.0458984375
-93.3837890625
-88.80615234375
-89.7216796875
-96.13037109375
-99.79248046875
-99.79248046875
-104.3701171875
-99.79248046875
-90.63720703125
-86.0595703125
-83.31298828125
-77.81982421875
-77.81982421875
-88.80615234375
-89.7216796875
-96.13037109375
-91.552734375
-92.46826171875
-89.7216796875
-86.97509765625
-89.7216796875
-94.29931640625
-98.876953125
-86.97509765625
-81.48193359375
-80.56640625
-81.48193359375
-77.81982421875
-84.228515625
-92.46826171875
-91.552734375
-88.80615234375
-95.21484375
-97.0458984375
-98.876953125
-103.45458984375
-105.28564453125
-107.11669921875
-113.525390625
-105.28564453125
-95.21484375
-89.7216796875
-86.0595703125
-82.3974609375
-89.7216796875
-95.21484375
-96.13037109375
-94.29931640625
-99.79248046875
-98.876953125
-97.96142578125
-100.7080078125
-106.201171875
-105.28564453125
-107.11669921875
-118.10302734375
-120.849609375
-113.525390625
-113.525390625
-119.0185546875
-111.6943359375
-108.0322265625
-111.6943359375
-118.10302734375
-113.525390625
-114.44091796875
-111.6943359375
-110.77880859375
-114.44091796875
-116.27197265625
-119.0185546875
-126.3427734375
-127.25830078125
-126.3427734375
-124.51171875
-119.93408203125
-108.94775390625
-113.525390625
-117.1875
-116.27197265625
-117.1875
-121.76513671875
-123.59619140625
-125.42724609375
-131.8359375
-132.75146484375
-127.25830078125
-126.3427734375
-125.42724609375
-130.92041015625
-125.42724609375
-123.59619140625
-119.0185546875
-116.27197265625
-117.1875
-115.3564453125
-121.76513671875
-128.173828125
-130.92041015625
-129.08935546875
-125.42724609375
-122.6806640625
-125.42724609375
-126.3427734375
-124.51171875
-120.849609375
-126.3427734375
-129.08935546875
-130.0048828125
-128.173828125
-123.59619140625
-119.0185546875
-122.6806640625
-117.1875
-120.849609375
-130.0048828125
-132.75146484375
-129.08935546875
-125.42724609375
-120.849609375
-126.3427734375
-121.76513671875
-114.44091796875
-108.0322265625
-106.201171875
-89.7216796875
-75.98876953125
-85.14404296875
-93.3837890625
-95.21484375
-94.29931640625
-89.7216796875
-80.56640625
-77.81982421875
-62.255859375
-48.52294921875
-55.84716796875
-57.67822265625
-57.67822265625
-66.83349609375
-68.66455078125
-69.580078125
-61.34033203125
-63.17138671875
-76.904296875
-77.81982421875
-83.31298828125
-87.890625
-102.5390625
-109.86328125
-114.44091796875
-111.6943359375
-113.525390625
-119.0185546875
-126.3427734375
-130.92041015625
-140.9912109375
-154.72412109375
-154.72412109375
-154.72412109375
-144.6533203125
-140.07568359375
-137.3291015625
-142.822265625
-143.73779296875
-149.23095703125
-149.23095703125
-146.484375
-147.39990234375
-144.6533203125
-146.484375
-145.56884765625
-141.90673828125
-145.56884765625
-145.56884765625
-157.470703125
-151.9775390625
-153.80859375
-155.6396484375
-152.89306640625
-151.9775390625
-152.89306640625
-153.80859375
-151.06201171875
-147.39990234375
-151.06201171875
-148.3154296875
-145.56884765625
-146.484375
-151.06201171875
-147.39990234375
-156.55517578125
-159.3017578125
-163.87939453125
-171.20361328125
-181.2744140625
-181.2744140625
-171.20361328125
-146.484375
-112.60986328125
-56.7626953125
19.22607421875
133.6669921875
244.44580078125
375.3662109375
509.033203125
620.7275390625
695.80078125
799.25537109375
943.90869140625
1059.26513671875
1106.87255859375
1094.05517578125
983.2763671875
723.2666015625
391.845703125
113.525390625
-92.46826171875
-147.39990234375
-123.59619140625
-91.552734375
-89.7216796875
-93.3837890625
-76.904296875
-50.35400390625
-39.36767578125
-43.02978515625
-51.26953125
-59.50927734375
-68.66455078125
-75.0732421875
-84.228515625
-78.7353515625
-85.14404296875
-90.63720703125
-88.80615234375
-86.97509765625
-84.228515625
-89.7216796875
-93.3837890625
-95.21484375
-98.876953125
-109.86328125
-107.11669921875
-105.28564453125
-107.11669921875
-106.201171875
-102.5390625
-105.28564453125
-107.11669921875
-102.5390625
-94.29931640625
-100.7080078125
-104.3701171875
-99.79248046875
-98.876953125
-97.96142578125
-94.29931640625
-95.21484375
-107.11669921875
-115.3564453125
-108.0322265625
-105.28564453125
-100.7080078125
-86.97509765625
-80.56640625
-80.56640625
-83.31298828125
-87.890625
-94.29931640625
-98.876953125
-96.13037109375
-87.890625
-86.0595703125
-83.31298828125
-89.7216796875
-86.97509765625
-78.7353515625
-75.98876953125
-75.0732421875
-70.49560546875
-73.2421875
-75.0732421875
-74.15771484375
-75.0732421875
-66.83349609375
-60.4248046875
-55.84716796875
-55.84716796875
-51.26953125
-51.26953125
-47.607421875
-44.86083984375
-45.7763671875
-49.4384765625
-46.69189453125
-40.283203125
-39.36767578125
-38.4521484375
-34.7900390625
-29.296875
-33.87451171875
-29.296875
-24.71923828125
-27.4658203125
-30.21240234375
-32.958984375
-23.8037109375
-21.97265625
-17.39501953125
-13.73291015625
-10.986328125
-7.32421875
-9.1552734375
-9.1552734375
0
3.662109375
8.23974609375
12.8173828125
17.39501953125
24.71923828125
31.1279296875
27.4658203125
30.21240234375
30.21240234375
38.4521484375
43.9453125
42.1142578125
44.86083984375
48.52294921875
50.35400390625
54.01611328125
58.59375
65.00244140625
61.34033203125
62.255859375
66.83349609375
80.56640625
77.81982421875
66.83349609375
59.50927734375
59.50927734375
55.84716796875
52.18505859375
48.52294921875
44.86083984375
36.62109375
32.04345703125
24.71923828125
15.56396484375
-5.4931640625
-21.05712890625
-19.22607421875
-16.4794921875
-16.4794921875
-19.22607421875
-17.39501953125
-32.04345703125
-41.19873046875
-54.01611328125
-61.34033203125
-63.17138671875
-69.580078125
-77.81982421875
-79.65087890625
-86.97509765625
-97.0458984375
-103.45458984375
-104.3701171875
-104.3701171875
-99.79248046875
-96.13037109375
-102.5390625
-100.7080078125
-108.0322265625
-106.201171875
-111.6943359375
-111.6943359375
-111.6943359375
-113.525390625
-116.27197265625
-106.201171875
-111.6943359375
-112.60986328125
-110.77880859375
-110.77880859375
-108.94775390625
-108.0322265625
-115.3564453125
-119.0185546875
-117.1875
-110.77880859375
-112.60986328125
-113.525390625
-119.93408203125
-122.6806640625
-120.849609375
-118.10302734375
-115.3564453125
-121.76513671875
-128.173828125
-126.3427734375
-113.525390625
-103.45458984375
-103.45458984375
-100.7080078125
-98.876953125
-99.79248046875
-97.96142578125
-98.876953125
-97.0458984375
-97.96142578125
-99.79248046875
-103.45458984375
-98.876953125
-104.3701171875
-106.201171875
-102.5390625
-98.876953125
-95.21484375
-85.14404296875
-91.552734375
-91.552734375
-92.46826171875
-97.0458984375
-100.7080078125
-101.62353515625
-98.876953125
-97.0458984375
-97.96142578125
-91.552734375
-90.63720703125
-95.21484375
-92.46826171875
-89.7216796875
-93.3837890625
-100.7080078125
-101.62353515625
-111.6943359375
-115.3564453125
-112.60986328125
-111.6943359375
-108.94775390625
-100.7080078125
-91.552734375
-84.228515625
-79.65087890625
-77.81982421875
-80.56640625
-82.3974609375
-82.3974609375
-86.97509765625
-93.3837890625
-94.29931640625
-90.63720703125
-93.3837890625
-93.3837890625
-103.45458984375
-108.0322265625
-111.6943359375
-111.6943359375
-100.7080078125
-102.5390625
-102.5390625
-102.5390625
-105.28564453125
-109.86328125
-116.27197265625
-110.77880859375
-110.77880859375
-109.86328125
-106.201171875
-111.6943359375
-118.10302734375
-126.3427734375
-119.0185546875
-114.44091796875
-112.60986328125
-108.0322265625
-104.3701171875
-104.3701171875
-110.77880859375
-111.6943359375
-115.3564453125
-120.849609375
-123.59619140625
-128.173828125
-134.58251953125
-131.8359375
-124.51171875
-111.6943359375
-108.0322265625
-105.28564453125
-104.3701171875
-108.0322265625
-114.44091796875
-110.77880859375
-107.11669921875
-108.94775390625
-109.86328125
-106.201171875
-110.77880859375
-106.201171875
-108.94775390625
-112.60986328125
-116.27197265625
-114.44091796875
-112.60986328125
-115.3564453125
-117.1875
-120.849609375
-121.76513671875
-123.59619140625
-123.59619140625
-127.25830078125
-119.93408203125
-121.76513671875
-125.42724609375
-124.51171875
-125.42724609375
-121.76513671875
-115.3564453125
-111.6943359375
-119.93408203125
-117.1875
-121.76513671875
-118.10302734375
-110.77880859375
-110.77880859375
-117.1875
-119.0185546875
-119.93408203125
-125.42724609375
-129.08935546875
-125.42724609375
-118.10302734375
-110.77880859375
-106.201171875
-111.6943359375
-109.86328125
-111.6943359375
-114.44091796875
-121.76513671875
-130.0048828125
-127.25830078125
-125.42724609375
-123.59619140625
-123.59619140625
-121.76513671875
-119.93408203125
-122.6806640625
-121.76513671875
-119.0185546875
-119.93408203125
-117.1875
-108.94775390625
-109.86328125
-107.11669921875
-102.5390625
-97.0458984375
-84.228515625
-77.81982421875
-72.32666015625
-77.81982421875
-90.63720703125
-86.97509765625
-81.48193359375
-69.580078125
-54.931640625
-42.1142578125
-34.7900390625
-35.70556640625
-42.1142578125
-44.86083984375
-48.52294921875
-55.84716796875
-54.01611328125
-54.931640625
-48.52294921875
-50.35400390625
-49.4384765625
-54.931640625
-59.50927734375
-75.98876953125
-88.80615234375
-91.552734375
-90.63720703125
-90.63720703125
-99.79248046875
-109.86328125
-115.3564453125
-114.44091796875
-120.849609375
-125.42724609375
-125.42724609375
-133.6669921875
-131.8359375
-128.173828125
-126.3427734375
-130.92041015625
-130.92041015625
-126.3427734375
-133.6669921875
-138.24462890625
-140.07568359375
-142.822265625
-137.3291015625
-135.498046875
-135.498046875
-137.3291015625
-134.58251953125
-134.58251953125
-134.58251953125
-133.6669921875
-128.173828125
-130.92041015625
-133.6669921875
-126.3427734375
-131.8359375
-143.73779296875
-149.23095703125
-149.23095703125
-140.9912109375
-133.6669921875
-131.8359375
-127.25830078125
-124.51171875
-129.08935546875
-135.498046875
-146.484375
-155.6396484375
-169.37255859375
-168.45703125
-162.04833984375
-140.07568359375
-103.45458984375
-49.4384765625
48.52294921875
163.87939453125
281.06689453125
398.25439453125
526.42822265625
618.896484375
715.02685546875
828.55224609375
964.05029296875
1060.1806640625
1085.8154296875
1057.43408203125
915.52734375
629.8828125
335.0830078125
103.45458984375
-85.14404296875
-123.59619140625
-108.94775390625
-97.96142578125
-87.890625
-62.255859375
-40.283203125
-26.55029296875
-24.71923828125
-29.296875
-39.36767578125
-46.69189453125
-62.255859375
-66.83349609375
-80.56640625
-90.63720703125
-90.63720703125
-94.29931640625
-87.890625
-88.80615234375
-89.7216796875
-96.13037109375
-98.876953125
-97.96142578125
-89.7216796875
-89.7216796875
-86.97509765625
-93.3837890625
-96.13037109375
-93.3837890625
-95.21484375
-90.63720703125
-87.890625
-83.31298828125
-85.14404296875
-90.63720703125
-90.63720703125
-90.63720703125
-86.97509765625
-79.65087890625
-86.97509765625
-85.14404296875
-77.81982421875
-79.65087890625
-81.48193359375
-84.228515625
-87.890625
-85.14404296875
-77.81982421875
-84.228515625
-83.31298828125
-79.65087890625
-78.7353515625
-76.904296875
-74.15771484375
-75.98876953125
-72.32666015625
-76.904296875
-69.580078125
-63.17138671875
-65.91796875
-66.83349609375
-67.7490234375
-67.7490234375
-68.66455078125
-64.0869140625
-60.4248046875
-54.01611328125
-49.4384765625
-45.7763671875
-54.01611328125
-59.50927734375
-62.255859375
-55.84716796875
-52.18505859375
-45.7763671875
-50.35400390625
-44.86083984375
-39.36767578125
-33.87451171875
-26.55029296875
-28.38134765625
-26.55029296875
-30.21240234375
-29.296875
-18.310546875
-14.6484375
-18.310546875
-14.6484375
-14.6484375
-10.07080078125
-12.8173828125
-6.40869140625
-4.57763671875
-3.662109375
-4.57763671875
0
13.73291015625
20.1416015625
17.39501953125
23.8037109375
30.21240234375
22.88818359375
28.38134765625
27.4658203125
29.296875
41.19873046875
51.26953125
61.34033203125
65.91796875
69.580078125
73.2421875
83.31298828125
90.63720703125
99.79248046875
101.62353515625
94.29931640625
88.80615234375
84.228515625
87.890625
88.80615234375
86.97509765625
96.13037109375
97.96142578125
93.3837890625
90.63720703125
92.46826171875
86.97509765625
74.15771484375
66.83349609375
62.255859375
48.52294921875
43.9453125
39.36767578125
30.21240234375
22.88818359375
20.1416015625
9.1552734375
-6.40869140625
-10.986328125
-19.22607421875
-29.296875
-32.04345703125
-43.9453125
-55.84716796875
-56.7626953125
-65.91796875
-62.255859375
-67.7490234375
-71.4111328125
-75.0732421875
-79.65087890625
-78.7353515625
-82.3974609375
-79.65087890625
-84.228515625
-88.80615234375
-88.80615234375
-86.97509765625
-92.46826171875
-105.28564453125
-107.11669921875
-106.201171875
-98.876953125
-95.21484375
-86.0595703125
-86.97509765625
-94.29931640625
-99.79248046875
-97.0458984375
-99.79248046875
-96.13037109375
-90.63720703125
-94.29931640625
-97.96142578125
-101.62353515625
-107.11669921875
-107.11669921875
-108.0322265625
-109.86328125
-102.5390625
-101.62353515625
-98.876953125
-103.45458984375
-101.62353515625
-107.11669921875
-107.11669921875
-97.96142578125
-88.80615234375
-84.228515625
-89.7216796875
-84.228515625
-78.7353515625
-82.3974609375
-75.0732421875
-72.32666015625
-82.3974609375
-76.904296875
-81.48193359375
-83.31298828125
-89.7216796875
-88.80615234375
-91.552734375
-93.3837890625
-84.228515625
-79.65087890625
-71.4111328125
-73.2421875
-75.0732421875
-73.2421875
-78.7353515625
-84.228515625
-86.97509765625
-82.3974609375
-87.890625
-83.31298828125
-81.48193359375
-84.228515625
-85.14404296875
-83.31298828125
-82.3974609375
-86.97509765625
-86.97509765625
-91.552734375
-93.3837890625
-88.80615234375
-86.0595703125
-87.890625
-97.96142578125
-95.21484375
-104.3701171875
-105.28564453125
-101.62353515625
-95.21484375
-90.63720703125
-93.3837890625
-88.80615234375
-89.7216796875
-81.48193359375
-85.14404296875
-89.7216796875
-98.876953125
-103.45458984375
-104.3701171875
-97.96142578125
-92.46826171875
-82.3974609375
-77.81982421875
-76.904296875
-75.0732421875
-75.98876953125
-83.31298828125
-89.7216796875
-87.890625
-89.7216796875
-87.890625
-88.80615234375
-89.7216796875
-91.552734375
-95.21484375
-94.29931640625
-94.29931640625
-93.3837890625
-93.3837890625
-97.96142578125
-96.13037109375
-96.13037109375
-95.21484375
-101.62353515625
-97.96142578125
-95.21484375
-95.21484375
-105.28564453125
-108.94775390625
-100.7080078125
-99.79248046875
-104.3701171875
-108.94775390625
-108.94775390625
-110.77880859375
-109.86328125
-107.11669921875
-98.876953125
-99.79248046875
-102.5390625
-108.94775390625
-108.94775390625
-106.201171875
-103.45458984375
-108.0322265625
-109.86328125
-108.0322265625
-115.3564453125
-115.3564453125
-114.44091796875
-119.0185546875
-108.94775390625
-97.96142578125
-98.876953125
-96.13037109375
-96.13037109375
-94.29931640625
-100.7080078125
-101.62353515625
-106.201171875
-107.11669921875
-106.201171875
-107.11669921875
-108.94775390625
-108.94775390625
-108.94775390625
-109.86328125
-111.6943359375
-108.94775390625
-111.6943359375
-113.525390625
-121.76513671875
-124.51171875
-115.3564453125
-111.6943359375
-109.86328125
-106.201171875
-103.45458984375
-103.45458984375
-104.3701171875
-101.62353515625
-105.28564453125
-108.94775390625
-105.28564453125
-102.5390625
-99.79248046875
-108.94775390625
-121.76513671875
-123.59619140625
-117.1875
-106.201171875
-103.45458984375
-103.45458984375
-106.201171875
-108.0322265625
-112.60986328125
-113.525390625
-113.525390625
-119.0185546875
-115.3564453125
-109.86328125
-108.94775390625
-108.0322265625
-108.94775390625
-112.60986328125
-107.11669921875
-98.876953125
-85.14404296875
-78.7353515625
-80.56640625
-78.7353515625
-80.56640625
-86.0595703125
-87.890625
-75.98876953125
-63.17138671875
-54.931640625
-38.4521484375
-23.8037109375
-27.4658203125
-28.38134765625
-33.87451171875
-44.86083984375
-48.52294921875
-57.67822265625
-60.4248046875
-60.4248046875
-64.0869140625
-65.91796875
-64.0869140625
-71.4111328125
-90.63720703125
-94.29931640625
-92.46826171875
-96.13037109375
-94.29931640625
-95.21484375
-109.86328125
-130.0048828125
-131.8359375
-130.92041015625
-130.92041015625
-122.6806640625
-119.0185546875
-123.59619140625
-126.3427734375
-135.498046875
-139.16015625
-135.498046875
-137.3291015625
-138.24462890625
-132.75146484375
-130.0048828125
-128.173828125
-130.0048828125
-128.173828125
-132.75146484375
-127.25830078125
-137.3291015625
-137.3291015625
-140.9912109375
-147.39990234375
-140.9912109375
-130.0048828125
-131.8359375
-133.6669921875
-122.6806640625
-120.849609375
-127.25830078125
-125.42724609375
-127.25830078125
-137.3291015625
-143.73779296875
-141.90673828125
-141.90673828125
-147.39990234375
-147.39990234375
-151.06201171875
-151.9775390625
-156.55517578125
-161.1328125
-140.9912109375
-111.6943359375
-66.83349609375
-2.74658203125
105.28564453125
217.8955078125
336.9140625
475.15869140625
592.34619140625
681.15234375
787.353515625
927.42919921875
1046.44775390625
1113.28125
1116.943359375
1043.701171875
826.72119140625
497.13134765625
230.712890625
-13.73291015625
-122.6806640625
-119.0185546875
-96.13037109375
-90.63720703125
-82.3974609375
-48.52294921875
-28.38134765625
-35.70556640625
-36.62109375
-43.9453125
-43.02978515625
-51.26953125
-58.59375
-68.66455078125
-74.15771484375
-73.2421875
-79.65087890625
-79.65087890625
-85.14404296875
-86.0595703125
-87.890625
-97.0458984375
-100.7080078125
-101.62353515625
-98.876953125
-97.0458984375
-101.62353515625
-97.96142578125
-100.7080078125
-97.96142578125
-92.46826171875
-89.7216796875
-97.0458984375
-98.876953125
-98.876953125
-94.29931640625
-93.3837890625
-93.3837890625
-96.13037109375
-95.21484375
-99.79248046875
-99.79248046875
-96.13037109375
-101.62353515625
-93.3837890625
-86.0595703125
-89.7216796875
-84.228515625
-80.56640625
-83.31298828125
-81.48193359375
-83.31298828125
-79.65087890625
-77.81982421875
-79.65087890625
-80.56640625
-80.56640625
-86.97509765625
-94.29931640625
-85.14404296875
-73.2421875
-74.15771484375
-77.81982421875
-77.81982421875
-74.15771484375
-70.49560546875
-69.580078125
-69.580078125
-64.0869140625
-69.580078125
-73.2421875
-71.4111328125
-65.91796875
-64.0869140625
-58.59375
-62.255859375
-55.84716796875
-58.59375
-52.18505859375
-50.35400390625
-44.86083984375
-44.86083984375
-45.7763671875
-43.9453125
-33.87451171875
-28.38134765625
-32.958984375
-40.283203125
-31.1279296875
-38.4521484375
-39.36767578125
-22.88818359375
-10.986328125
-6.40869140625
-0.91552734375
-0.91552734375
0.91552734375
2.74658203125
2.74658203125
-2.74658203125
3.662109375
12.8173828125
32.958984375
33.87451171875
32.958984375
32.958984375
35.70556640625
42.1142578125
43.9453125
46.69189453125
45.7763671875
56.7626953125
67.7490234375
65.91796875
64.0869140625
65.91796875
69.580078125
74.15771484375
64.0869140625
65.91796875
66.83349609375
70.49560546875
81.48193359375
80.56640625
78.7353515625
78.7353515625
73.2421875
71.4111328125
65.91796875
55.84716796875
50.35400390625
37.53662109375
28.38134765625
19.22607421875
10.07080078125
-0.91552734375
-4.57763671875
-16.4794921875
-19.22607421875
-28.38134765625
-44.86083984375
-57.67822265625
-54.01611328125
-56.7626953125
-59.50927734375
-57.67822265625
-67.7490234375
-74.15771484375
-82.3974609375
-81.48193359375
-85.14404296875
-88.80615234375
-91.552734375
-90.63720703125
-100.7080078125
-100.7080078125
-114.44091796875
-125.42724609375
-109.86328125
-116.27197265625
-112.60986328125
-113.525390625
-105.28564453125
-112.60986328125
-122.6806640625
-114.44091796875
-114.44091796875
-116.27197265625
-101.62353515625
-102.5390625
-109.86328125
-119.0185546875
-119.0185546875
-118.10302734375
-120.849609375
-116.27197265625
-121.76513671875
-115.3564453125
-117.1875
-111.6943359375
-118.10302734375
-116.27197265625
-107.11669921875
-108.94775390625
-112.60986328125
-111.6943359375
-112.60986328125
-108.0322265625
-108.94775390625
-109.86328125
-117.1875
-112.60986328125
-110.77880859375
-108.94775390625
-109.86328125
-109.86328125
-101.62353515625
-107.11669921875
-102.5390625
-105.28564453125
-97.0458984375
-102.5390625
-107.11669921875
-108.94775390625
-109.86328125
-104.3701171875
-102.5390625
-104.3701171875
-104.3701171875
-104.3701171875
-110.77880859375
-109.86328125
-105.28564453125
-102.5390625
-108.94775390625
-108.94775390625
-109.86328125
-108.0322265625
-107.11669921875
-107.11669921875
-118.10302734375
-116.27197265625
-123.59619140625
-120.849609375
-114.44091796875
-106.201171875
-102.5390625
-114.44091796875
-109.86328125
-107.11669921875
-110.77880859375
-111.6943359375
-120.849609375
-114.44091796875
-109.86328125
-113.525390625
-106.201171875
-105.28564453125
-112.60986328125
-109.86328125
-106.201171875
-114.44091796875
-120.849609375
-122.6806640625
-118.10302734375
-112.60986328125
-99.79248046875
-92.46826171875
-87.890625
-82.3974609375
-84.228515625
-90.63720703125
-87.890625
-82.3974609375
-90.63720703125
-94.29931640625
-88.80615234375
-92.46826171875
-92.46826171875
-93.3837890625
-92.46826171875
-94.29931640625
-98.876953125
-96.13037109375
-97.0458984375
-103.45458984375
-107.11669921875
-106.201171875
-102.5390625
-91.552734375
-88.80615234375
-97.0458984375
-104.3701171875
-103.45458984375
-103.45458984375
-98.876953125
-96.13037109375
-102.5390625
-96.13037109375
-95.21484375
-111.6943359375
-104.3701171875
-101.62353515625
-107.11669921875
-108.0322265625
-106.201171875
-96.13037109375
-100.7080078125
-100.7080078125
-101.62353515625
-91.552734375
-88.80615234375
-87.890625
-88.80615234375
-99.79248046875
-101.62353515625
-94.29931640625
-97.0458984375
-91.552734375
-88.80615234375
-98.876953125
-95.21484375
-95.21484375
-95.21484375
-97.96142578125
-110.77880859375
-103.45458984375
-96.13037109375
-101.62353515625
-95.21484375
-100.7080078125
-106.201171875
-100.7080078125
-99.79248046875
-106.201171875
-111.6943359375
-105.28564453125
-107.11669921875
-97.96142578125
-97.96142578125
-108.94775390625
-108.0322265625
-108.94775390625
-103.45458984375
-103.45458984375
-110.77880859375
-112.60986328125
-109.86328125
-100.7080078125
-92.46826171875
-89.7216796875
-72.32666015625
-74.15771484375
-79.65087890625
-85.14404296875
-75.98876953125
-67.7490234375
-64.0869140625
-56.7626953125
-42.1142578125
-32.958984375
-32.958984375
-35.70556640625
-41.19873046875
-43.9453125
-44.86083984375
-45.7763671875
-43.02978515625
-29.296875
-28.38134765625
-36.62109375
-45.7763671875
-53.1005859375
-65.91796875
-75.0732421875
-77.81982421875
-81.48193359375
-92.46826171875
-92.46826171875
-103.45458984375
-99.79248046875
-112.60986328125
-118.10302734375
-124.51171875
-118.10302734375
-116.27197265625
-121.76513671875
-127.25830078125
-126.3427734375
-116.27197265625
-112.60986328125
-121.76513671875
-124.51171875
-129.08935546875
-128.173828125
-125.42724609375
-128.173828125
-128.173828125
-121.76513671875
-122.6806640625
-136.41357421875
-140.07568359375
-134.58251953125
-134.58251953125
-126.3427734375
-127.25830078125
-130.92041015625
-131.8359375
-130.0048828125
-135.498046875
-128.173828125
-120.849609375
-129.08935546875
-130.0048828125
-125.42724609375
-119.0185546875
-118.10302734375
-123.59619140625
-130.92041015625
-140.07568359375
-151.9775390625
-162.04833984375
-159.3017578125
-130.0048828125
-95.21484375
-50.35400390625
27.4658203125
157.470703125
283.8134765625
401.0009765625
529.1748046875
650.93994140625
732.421875
827.63671875
962.21923828125
1074.8291015625
1110.53466796875
1113.28125
1019.8974609375
771.78955078125
417.48046875
143.73779296875
-70.49560546875
-140.07568359375
-118.10302734375
-92.46826171875
-84.228515625
-94.29931640625
-69.580078125
-38.4521484375
-29.296875
-27.4658203125
-31.1279296875
-38.4521484375
-43.02978515625
-46.69189453125
-62.255859375
-68.66455078125
-85.14404296875
-92.46826171875
-85.14404296875
-82.3974609375
-79.65087890625
-65.91796875
-65.00244140625
-70.49560546875
-72.32666015625
-80.56640625
-75.98876953125
-82.3974609375
-80.56640625
-78.7353515625
-78.7353515625
-89.7216796875
-75.98876953125
-77.81982421875
-79.65087890625
-71.4111328125
-74.15771484375
-74.15771484375
-75.98876953125
-80.56640625
-84.228515625
-79.65087890625
-85.14404296875
-85.14404296875
-83.31298828125
-87.890625
-82.3974609375
-75.0732421875
-78.7353515625
-72.32666015625
-66.83349609375
-62.255859375
-55.84716796875
-56.7626953125
-55.84716796875
-59.50927734375
-61.34033203125
-58.59375
-64.0869140625
-66.83349609375
-65.00244140625
-55.84716796875
-49.4384765625
-47.607421875
-47.607421875
-52.18505859375
-51.26953125
-48.52294921875
-54.01611328125
-55.84716796875
-56.7626953125
-50.35400390625
-43.9453125
-42.1142578125
-37.53662109375
-40.283203125
-23.8037109375
-20.1416015625
-21.97265625
-18.310546875
-13.73291015625
-21.97265625
-18.310546875
-16.4794921875
-16.4794921875
-10.07080078125
-1.8310546875
1.8310546875
-2.74658203125
1.8310546875
1.8310546875
-1.8310546875
-4.57763671875
-1.8310546875
1.8310546875
2.74658203125
14.6484375
15.56396484375
11.90185546875
6.40869140625
17.39501953125
23.8037109375
22.88818359375
36.62109375
47.607421875
49.4384765625
52.18505859375
58.59375
65.91796875
67.7490234375
72.32666015625
69.580078125
74.15771484375
76.904296875
78.7353515625
83.31298828125
79.65087890625
72.32666015625
72.32666015625
75.98876953125
78.7353515625
83.31298828125
88.80615234375
86.0595703125
83.31298828125
76.904296875
75.98876953125
66.83349609375
61.34033203125
54.01611328125
57.67822265625
50.35400390625
46.69189453125
32.04345703125
20.1416015625
21.05712890625
16.4794921875
-3.662109375
-15.56396484375
-18.310546875
-28.38134765625
-27.4658203125
-26.55029296875
-33.87451171875
-39.36767578125
-42.1142578125
-44.86083984375
-45.7763671875
-48.52294921875
-47.607421875
-59.50927734375
-65.00244140625
-71.4111328125
-72.32666015625
-77.81982421875
-73.2421875
-75.0732421875
-70.49560546875
-76.904296875
-80.56640625
-81.48193359375
-84.228515625
-95.21484375
-98.876953125
-94.29931640625
-86.0595703125
-87.890625
-80.56640625
-77.81982421875
-84.228515625
-85.14404296875
-85.14404296875
-79.65087890625
-78.7353515625
-82.3974609375
-93.3837890625
-98.876953125
-102.5390625
-104.3701171875
-105.28564453125
-95.21484375
-90.63720703125
-87.890625
-86.97509765625
-86.0595703125
-88.80615234375
-89.7216796875
-93.3837890625
-97.96142578125
-90.63720703125
-86.97509765625
-76.904296875
-70.49560546875
-63.17138671875
-67.7490234375
-71.4111328125
-73.2421875
-72.32666015625
-73.2421875
-70.49560546875
-70.49560546875
-63.17138671875
-71.4111328125
-77.81982421875
-76.904296875
-76.904296875
-75.0732421875
-79.65087890625
-82.3974609375
-73.2421875
-79.65087890625
-86.97509765625
-85.14404296875
-80.56640625
-70.49560546875
-65.91796875
-60.4248046875
-57.67822265625
-59.50927734375
-62.255859375
-62.255859375
-67.7490234375
-71.4111328125
-75.0732421875
-72.32666015625
-86.0595703125
-90.63720703125
-85.14404296875
-72.32666015625
-74.15771484375
-72.32666015625
-63.17138671875
-60.4248046875
-65.00244140625
-73.2421875
-73.2421875
-68.66455078125
-66.83349609375
-65.00244140625
-67.7490234375
-73.2421875
-68.66455078125
-68.66455078125
-76.904296875
-75.0732421875
-76.904296875
-72.32666015625
-76.904296875
-81.48193359375
-78.7353515625
-76.904296875
-74.15771484375
-82.3974609375
-87.890625
-86.0595703125
-94.29931640625
-95.21484375
-98.876953125
-106.201171875
-99.79248046875
-94.29931640625
-86.0595703125
-71.4111328125
-66.83349609375
-71.4111328125
-78.7353515625
-81.48193359375
-78.7353515625
-76.904296875
-87.890625
-88.80615234375
-91.552734375
-89.7216796875
-84.228515625
-87.890625
-84.228515625
-86.97509765625
-86.97509765625
-84.228515625
-79.65087890625
-78.7353515625
-80.56640625
-90.63720703125
-93.3837890625
-91.552734375
-83.31298828125
-73.2421875
-69.580078125
-70.49560546875
-81.48193359375
-78.7353515625
-85.14404296875
-85.14404296875
-79.65087890625
-88.80615234375
-95.21484375
-94.29931640625
-90.63720703125
-87.890625
-96.13037109375
-97.0458984375
-103.45458984375
-101.62353515625
-94.29931640625
-86.0595703125
-87.890625
-84.228515625
-91.552734375
-97.0458984375
-95.21484375
-89.7216796875
-85.14404296875
-82.3974609375
-81.48193359375
-94.29931640625
-89.7216796875
-82.3974609375
-85.14404296875
-91.552734375
-98.876953125
-103.45458984375
-90.63720703125
-86.0595703125
-80.56640625
-74.15771484375
-76.904296875
-86.0595703125
-79.65087890625
-75.0732421875
-60.4248046875
-57.67822265625
-51.26953125
-44.86083984375
-43.02978515625
-54.01611328125
-50.35400390625
-49.4384765625
-37.53662109375
-32.04345703125
-26.55029296875
-7.32421875
-7.32421875
-16.4794921875
-17.39501953125
-24.71923828125
-33.87451171875
-38.4521484375
-41.19873046875
-36.62109375
-40.283203125
-37.53662109375
-23.8037109375
-27.4658203125
-46.69189453125
-61.34033203125
-58.59375
-56.7626953125
-58.59375
-66.83349609375
-75.0732421875
-83.31298828125
-100.7080078125
-109.86328125
-110.77880859375
-109.86328125
-103.45458984375
-91.552734375
-85.14404296875
-86.97509765625
-96.13037109375
-93.3837890625
-96.13037109375
-101.62353515625
-106.201171875
-116.27197265625
-111.6943359375
-107.11669921875
-112.60986328125
-116.27197265625
-114.44091796875
-112.60986328125
-109.86328125
-108.94775390625
-104.3701171875
-104.3701171875
-103.45458984375
-96.13037109375
-97.0458984375
-103.45458984375
-104.3701171875
-104.3701171875
-98.876953125
-98.876953125
-94.29931640625
-91.552734375
-101.62353515625
-100.7080078125
-106.201171875
-122.6806640625
-135.498046875
-153.80859375
-151.06201171875
-136.41357421875
-104.3701171875
-58.59375
13.73291015625
123.59619140625
240.78369140625
355.224609375
492.5537109375
608.82568359375
701.2939453125
795.59326171875
917.3583984375
1055.60302734375
1134.33837890625
1142.578125
1094.970703125
926.513671875
628.96728515625
328.67431640625
83.31298828125
-71.4111328125
-85.14404296875
-75.0732421875
-67.7490234375
-57.67822265625
-42.1142578125
-17.39501953125
-4.57763671875
4.57763671875
-6.40869140625
-7.32421875
-21.05712890625
-32.04345703125
-38.4521484375
-33.87451171875
-30.21240234375
-40.283203125
-42.1142578125
-49.4384765625
-58.59375
-62.255859375
-73.2421875
-76.904296875
-77.81982421875
-62.255859375
-54.01611328125
-45.7763671875
-43.9453125
-46.69189453125
-48.52294921875
-53.1005859375
-54.01611328125
-65.00244140625
-60.4248046875
-59.50927734375
-55.84716796875
-53.1005859375
-56.7626953125
-48.52294921875
-48.52294921875
-47.607421875
-51.26953125
-54.931640625
-58.59375
-58.59375
-53.1005859375
-48.52294921875
-44.86083984375
-54.01611328125
-50.35400390625
-44.86083984375
-38.4521484375
-41.19873046875
-38.4521484375
-48.52294921875
-51.26953125
-44.86083984375
-49.4384765625
-41.19873046875
-38.4521484375
-40.283203125
-32.04345703125
-34.7900390625
-32.958984375
-26.55029296875
-23.8037109375
-14.6484375
-5.4931640625
-5.4931640625
-10.986328125
-11.90185546875
-11.90185546875
-15.56396484375
-15.56396484375
-13.73291015625
-5.4931640625
-9.1552734375
-8.23974609375
-4.57763671875
0
3.662109375
2.74658203125
7.32421875
3.662109375
3.662109375
-5.4931640625
-10.07080078125
0.91552734375
7.32421875
17.39501953125
23.8037109375
22.88818359375
29.296875
32.958984375
33.87451171875
39.36767578125
40.283203125
44.86083984375
47.607421875
57.67822265625
59.50927734375
64.0869140625
67.7490234375
66.83349609375
75.98876953125
84.228515625
87.890625
92.46826171875
86.97509765625
89.7216796875
89.7216796875
99.79248046875
100.7080078125
108.0322265625
115.3564453125
120.849609375
118.10302734375
110.77880859375
114.44091796875
114.44091796875
114.44091796875
120.849609375
123.59619140625
119.0185546875
108.0322265625
108.94775390625
106.201171875
97.0458984375
87.890625
83.31298828125
79.65087890625
71.4111328125
59.50927734375
43.9453125
42.1142578125
39.36767578125
32.04345703125
21.97265625
17.39501953125
16.4794921875
1.8310546875
-8.23974609375
-18.310546875
-23.8037109375
-24.71923828125
-29.296875
-33.87451171875
-38.4521484375
-45.7763671875
-46.69189453125
-47.607421875
-54.931640625
-56.7626953125
-62.255859375
-74.15771484375
-64.0869140625
-54.01611328125
-56.7626953125
-55.84716796875
-56.7626953125
-65.91796875
-73.2421875
-73.2421875
-67.7490234375
-75.0732421875
-69.580078125
-70.49560546875
-72.32666015625
-70.49560546875
-68.66455078125
-73.2421875
-75.0732421875
-70.49560546875
-80.56640625
-84.228515625
-76.904296875
-75.98876953125
-74.15771484375
-64.0869140625
-71.4111328125
-74.15771484375
-68.66455078125
-73.2421875
-74.15771484375
-69.580078125
-59.50927734375
-65.91796875
-65.91796875
-74.15771484375
-70.49560546875
-63.17138671875
-65.00244140625
-65.00244140625
-68.66455078125
-69.580078125
-69.580078125
-61.34033203125
-58.59375
-55.84716796875
-57.67822265625
-59.50927734375
-54.931640625
-55.84716796875
-54.931640625
-54.931640625
-56.7626953125
-54.931640625
-55.84716796875
-55.84716796875
-58.59375
-66.83349609375
-70.49560546875
-72.32666015625
-69.580078125
-62.255859375
-54.931640625
-58.59375
-54.01611328125
-54.931640625
-58.59375
-56.7626953125
-54.01611328125
-54.931640625
-61.34033203125
-58.59375
-54.01611328125
-67.7490234375
-65.91796875
-66.83349609375
-70.49560546875
-68.66455078125
-62.255859375
-55.84716796875
-53.1005859375
-59.50927734375
-65.00244140625
-64.0869140625
-60.4248046875
-63.17138671875
-54.01611328125
-54.931640625
-59.50927734375
-60.4248046875
-65.91796875
-62.255859375
-63.17138671875
-69.580078125
-72.32666015625
-79.65087890625
-86.0595703125
-87.890625
-89.7216796875
-79.65087890625
-75.0732421875
-72.32666015625
-72.32666015625
-70.49560546875
-70.49560546875
-63.17138671875
-56.7626953125
-56.7626953125
-65.91796875
-67.7490234375
-70.49560546875
-71.4111328125
-65.00244140625
-81.48193359375
-82.3974609375
-80.56640625
-79.65087890625
-75.98876953125
-73.2421875
-75.0732421875
-75.98876953125
-82.3974609375
-71.4111328125
-70.49560546875
-70.49560546875
-69.580078125
-67.7490234375
-66.83349609375
-65.91796875
-69.580078125
-80.56640625
-79.65087890625
-85.14404296875
-87.890625
-93.3837890625
-87.890625
-84.228515625
-81.48193359375
-85.14404296875
-75.98876953125
-79.65087890625
-76.904296875
-78.7353515625
-80.56640625
-81.48193359375
-82.3974609375
-83.31298828125
-82.3974609375
-78.7353515625
-71.4111328125
-75.98876953125
-81.48193359375
-79.65087890625
-79.65087890625
-91.552734375
-90.63720703125
-94.29931640625
-99.79248046875
-101.62353515625
-107.11669921875
-100.7080078125
-99.79248046875
-91.552734375
-79.65087890625
-76.904296875
-79.65087890625
-75.0732421875
-76.904296875
-82.3974609375
-87.890625
-88.80615234375
-88.80615234375
-83.31298828125
-84.228515625
-83.31298828125
-85.14404296875
-92.46826171875
-101.62353515625
-93.3837890625
-87.890625
-80.56640625
-79.65087890625
-83.31298828125
-80.56640625
-87.890625
-86.97509765625
-92.46826171875
-89.7216796875
-72.32666015625
-62.255859375
-44.86083984375
-38.4521484375
-40.283203125
-35.70556640625
-43.02978515625
-55.84716796875
-52.18505859375
-53.1005859375
-51.26953125
-39.36767578125
-24.71923828125
-14.6484375
-8.23974609375
0
-9.1552734375
-14.6484375
-19.22607421875
-21.05712890625
-21.05712890625
-32.958984375
-42.1142578125
-37.53662109375
-42.1142578125
-49.4384765625
-51.26953125
-59.50927734375
-62.255859375
-60.4248046875
-65.00244140625
-75.98876953125
-82.3974609375
-91.552734375
-103.45458984375
-106.201171875
-110.77880859375
-108.0322265625
-108.0322265625
-112.60986328125
-117.1875
-128.173828125
-122.6806640625
-122.6806640625
-117.1875
-104.3701171875
-110.77880859375
-112.60986328125
-112.60986328125
-112.60986328125
-108.94775390625
-104.3701171875
-106.201171875
-96.13037109375
-85.14404296875
-92.46826171875
-106.201171875
-114.44091796875
-115.3564453125
-112.60986328125
-112.60986328125
-109.86328125
-112.60986328125
-106.201171875
-102.5390625
-105.28564453125
-101.62353515625
-102.5390625
-103.45458984375
-116.27197265625
-124.51171875
-136.41357421875
-149.23095703125
-147.39990234375
-128.173828125
-94.29931640625
-52.18505859375
24.71923828125
135.498046875
247.1923828125
374.45068359375
500.79345703125
606.99462890625
685.72998046875
799.25537109375
941.162109375
1070.25146484375
1123.35205078125
1123.35205078125
1040.95458984375
804.74853515625
481.5673828125
230.712890625
0.91552734375
-95.21484375
-94.29931640625
-71.4111328125
-55.84716796875
-39.36767578125
-9.1552734375
3.662109375
-3.662109375
-16.4794921875
-15.56396484375
-15.56396484375
-32.958984375
-38.4521484375
-46.69189453125
-49.4384765625
-46.69189453125
-54.01611328125
-66.83349609375
-64.0869140625
-64.0869140625
-69.580078125
-60.4248046875
-57.67822265625
-66.83349609375
-70.49560546875
-66.83349609375
-63.17138671875
-59.50927734375
-56.7626953125
-58.59375
-65.91796875
-65.91796875
-63.17138671875
-70.49560546875
-66.83349609375
-58.59375
-52.18505859375
-41.19873046875
-41.19873046875
-33.87451171875
-37.53662109375
-43.9453125
-48.52294921875
-53.1005859375
-54.01611328125
-57.67822265625
-57.67822265625
-54.01611328125
-43.9453125
-46.69189453125
-47.607421875
-48.52294921875
-47.607421875
-53.1005859375
-61.34033203125
-56.7626953125
-52.18505859375
-47.607421875
-48.52294921875
-47.607421875
-50.35400390625
-57.67822265625
-54.931640625
-57.67822265625
-45.7763671875
-36.62109375
-32.958984375
-29.296875
-20.1416015625
-24.71923828125
-26.55029296875
-26.55029296875
-28.38134765625
-28.38134765625
-23.8037109375
-13.73291015625
-13.73291015625
-5.4931640625
-6.40869140625
0
9.1552734375
2.74658203125
2.74658203125
5.4931640625
5.4931640625
-3.662109375
-2.74658203125
3.662109375
8.23974609375
7.32421875
14.6484375
21.97265625
24.71923828125
21.97265625
25.634765625
27.4658203125
28.38134765625
37.53662109375
41.19873046875
40.283203125
47.607421875
50.35400390625
51.26953125
54.01611328125
62.255859375
65.00244140625
62.255859375
67.7490234375
67.7490234375
73.2421875
86.0595703125
95.21484375
100.7080078125
107.11669921875
106.201171875
112.60986328125
114.44091796875
118.10302734375
122.6806640625
122.6806640625
118.10302734375
105.28564453125
96.13037109375
96.13037109375
99.79248046875
96.13037109375
86.97509765625
93.3837890625
92.46826171875
80.56640625
72.32666015625
67.7490234375
53.1005859375
43.9453125
40.283203125
33.87451171875
22.88818359375
17.39501953125
7.32421875
6.40869140625
-2.74658203125
-11.90185546875
-14.6484375
-25.634765625
-32.04345703125
-40.283203125
-39.36767578125
-45.7763671875
-54.01611328125
-63.17138671875
-61.34033203125
-62.255859375
-80.56640625
-82.3974609375
-85.14404296875
-76.904296875
-73.2421875
-75.0732421875
-77.81982421875
-79.65087890625
-75.0732421875
-65.91796875
-65.91796875
-68.66455078125
-67.7490234375
-66.83349609375
-65.00244140625
-70.49560546875
-75.98876953125
-83.31298828125
-86.97509765625
-82.3974609375
-83.31298828125
-77.81982421875
-81.48193359375
-84.228515625
-85.14404296875
-79.65087890625
-77.81982421875
-75.0732421875
-75.0732421875
-75.98876953125
-76.904296875
-72.32666015625
-73.2421875
-71.4111328125
-79.65087890625
-79.65087890625
-80.56640625
-74.15771484375
-69.580078125
-73.2421875
-65.91796875
-74.15771484375
-76.904296875
-75.98876953125
-77.81982421875
-74.15771484375
-65.91796875
-74.15771484375
-73.2421875
-66.83349609375
-65.00244140625
-65.00244140625
-69.580078125
-70.49560546875
-63.17138671875
-67.7490234375
-64.0869140625
-63.17138671875
-61.34033203125
-62.255859375
-64.0869140625
-64.0869140625
-65.00244140625
-74.15771484375
-78.7353515625
-77.81982421875
-66.83349609375
-67.7490234375
-65.91796875
-73.2421875
-82.3974609375
-79.65087890625
-78.7353515625
-70.49560546875
-64.0869140625
-67.7490234375
-65.91796875
-62.255859375
-72.32666015625
-82.3974609375
-74.15771484375
-74.15771484375
-73.2421875
-71.4111328125
-71.4111328125
-80.56640625
-82.3974609375
-77.81982421875
-76.904296875
-67.7490234375
-68.66455078125
-70.49560546875
-71.4111328125
-67.7490234375
-65.00244140625
-69.580078125
-70.49560546875
-71.4111328125
-72.32666015625
-72.32666015625
-77.81982421875
-83.31298828125
-72.32666015625
-74.15771484375
-72.32666015625
-75.98876953125
-83.31298828125
-86.0595703125
-82.3974609375
-87.890625
-97.0458984375
-87.890625
-86.97509765625
-93.3837890625
-88.80615234375
-91.552734375
-88.80615234375
-84.228515625
-90.63720703125
-91.552734375
-100.7080078125
-100.7080078125
-96.13037109375
-93.3837890625
-96.13037109375
-94.29931640625
-95.21484375
-92.46826171875
-91.552734375
-89.7216796875
-93.3837890625
-98.876953125
-97.0458984375
-95.21484375
-97.0458984375
-102.5390625
-100.7080078125
-97.0458984375
-91.552734375
-91.552734375
-90.63720703125
-90.63720703125
-98.876953125
-107.11669921875
-105.28564453125
-101.62353515625
-101.62353515625
-112.60986328125
-124.51171875
-117.1875
-115.3564453125
-110.77880859375
-108.94775390625
-97.96142578125
-101.62353515625
-94.29931640625
-86.97509765625
-89.7216796875
-92.46826171875
-99.79248046875
-98.876953125
-98.876953125
-99.79248046875
-95.21484375
-98.876953125
-98.876953125
-105.28564453125
-108.0322265625
-101.62353515625
-99.79248046875
-104.3701171875
-105.28564453125
-98.876953125
-96.13037109375
-96.13037109375
-98.876953125
-107.11669921875
-106.201171875
-108.0322265625
-104.3701171875
-96.13037109375
-106.201171875
-106.201171875
-103.45458984375
-99.79248046875
-101.62353515625
-103.45458984375
-111.6943359375
-113.525390625
-106.201171875
-97.0458984375
-84.228515625
-74.15771484375
-65.00244140625
-60.4248046875
-54.931640625
-65.00244140625
-73.2421875
-65.00244140625
-59.50927734375
-46.69189453125
-34.7900390625
-26.55029296875
-24.71923828125
-25.634765625
-30.21240234375
-37.53662109375
-41.19873046875
-45.7763671875
-44.86083984375
-44.86083984375
-44.86083984375
-51.26953125
-54.01611328125
-69.580078125
-68.66455078125
-79.65087890625
-77.81982421875
-86.0595703125
-86.97509765625
-87.890625
-99.79248046875
-100.7080078125
-105.28564453125
-111.6943359375
-108.94775390625
-108.94775390625
-109.86328125
-122.6806640625
-123.59619140625
-121.76513671875
-124.51171875
-121.76513671875
-119.0185546875
-119.0185546875
-118.10302734375
-120.849609375
-124.51171875
-128.173828125
-132.75146484375
-138.24462890625
-133.6669921875
-129.08935546875
-119.0185546875
-122.6806640625
-126.3427734375
-128.173828125
-122.6806640625
-120.849609375
-124.51171875
-128.173828125
-127.25830078125
-124.51171875
-124.51171875
-119.93408203125
-121.76513671875
-122.6806640625
-129.08935546875
-130.92041015625
-136.41357421875
-146.484375
-151.06201171875
-158.38623046875
-152.89306640625
-133.6669921875
-103.45458984375
-65.91796875
2.74658203125
108.94775390625
223.388671875
338.7451171875
477.9052734375
598.7548828125
689.39208984375
786.43798828125
926.513671875
1063.8427734375
1131.591796875
1128.84521484375
1062.92724609375
853.271484375
525.5126953125
244.44580078125
0.91552734375
-128.173828125
-124.51171875
-90.63720703125
-87.890625
-88.80615234375
-59.50927734375
-21.97265625
-12.8173828125
-13.73291015625
-19.22607421875
-36.62109375
-51.26953125
-66.83349609375
-65.91796875
-71.4111328125
-78.7353515625
-76.904296875
-81.48193359375
-76.904296875
-77.81982421875
-86.97509765625
-92.46826171875
-86.0595703125
-77.81982421875
-82.3974609375
-79.65087890625
-81.48193359375
-84.228515625
-88.80615234375
-83.31298828125
-84.228515625
-103.45458984375
-107.11669921875
-96.13037109375
-96.13037109375
-93.3837890625
-88.80615234375
-89.7216796875
-90.63720703125
-92.46826171875
-91.552734375
-92.46826171875
-88.80615234375
-86.97509765625
-82.3974609375
-77.81982421875
-83.31298828125
-82.3974609375
-83.31298828125
-79.65087890625
-80.56640625
-73.2421875
-72.32666015625
-65.91796875
-71.4111328125
-74.15771484375
-73.2421875
-75.98876953125
-72.32666015625
-63.17138671875
-67.7490234375
-72.32666015625
-72.32666015625
-79.65087890625
-89.7216796875
-87.890625
-78.7353515625
-75.98876953125
-62.255859375
-51.26953125
-48.52294921875
-50.35400390625
-51.26953125
-43.9453125
-46.69189453125
-54.01611328125
-52.18505859375
-54.931640625
-43.9453125
-43.02978515625
-46.69189453125
-38.4521484375
-33.87451171875
-32.958984375
-25.634765625
-32.04345703125
-25.634765625
-21.05712890625
-19.22607421875
-16.4794921875
-16.4794921875
-10.986328125
-10.07080078125
-3.662109375
-1.8310546875
1.8310546875
8.23974609375
8.23974609375
12.8173828125
10.986328125
14.6484375
20.1416015625
25.634765625
25.634765625
29.296875
32.958984375
41.19873046875
35.70556640625
34.7900390625
39.36767578125
49.4384765625
53.1005859375
66.83349609375
79.65087890625
82.3974609375
77.81982421875
65.91796875
65.00244140625
75.98876953125
78.7353515625
79.65087890625
80.56640625
83.31298828125
84.228515625
78.7353515625
66.83349609375
48.52294921875
41.19873046875
39.36767578125
40.283203125
38.4521484375
38.4521484375
40.283203125
34.7900390625
18.310546875
15.56396484375
7.32421875
-2.74658203125
-19.22607421875
-31.1279296875
-53.1005859375
-64.0869140625
-61.34033203125
-65.00244140625
-61.34033203125
-64.0869140625
-65.91796875
-68.66455078125
-65.00244140625
-66.83349609375
-71.4111328125
-71.4111328125
-84.228515625
-92.46826171875
-91.552734375
-92.46826171875
-98.876953125
-104.3701171875
-108.94775390625
-104.3701171875
-99.79248046875
-104.3701171875
-108.94775390625
-110.77880859375
-109.86328125
-101.62353515625
-112.60986328125
-108.94775390625
-110.77880859375
-110.77880859375
-108.94775390625
-112.60986328125
-111.6943359375
-109.86328125
-106.201171875
-109.86328125
-110.77880859375
-110.77880859375
-113.525390625
-115.3564453125
-108.94775390625
-106.201171875
-110.77880859375
-111.6943359375
-104.3701171875
-102.5390625
-96.13037109375
-103.45458984375
-108.94775390625
-103.45458984375
-108.94775390625
-98.876953125
-104.3701171875
-107.11669921875
-111.6943359375
-121.76513671875
-113.525390625
-124.51171875
-123.59619140625
-106.201171875
-103.45458984375
-97.0458984375
-93.3837890625
-86.97509765625
-86.0595703125
-90.63720703125
-88.80615234375
-89.7216796875
-103.45458984375
-103.45458984375
-106.201171875
-101.62353515625
-96.13037109375
-95.21484375
-94.29931640625
-97.0458984375
-105.28564453125
-108.94775390625
-99.79248046875
-100.7080078125
-105.28564453125
-106.201171875
-106.201171875
-119.0185546875
-111.6943359375
-104.3701171875
-102.5390625
-109.86328125
-113.525390625
-104.3701171875
-106.201171875
-110.77880859375
-122.6806640625
-122.6806640625
-113.525390625
-117.1875
-116.27197265625
-113.525390625
-110.77880859375
-114.44091796875
-112.60986328125
-106.201171875
-97.0458984375
-107.11669921875
-108.0322265625
-108.0322265625
-118.10302734375
-120.849609375
-117.1875
-119.93408203125
-114.44091796875
-119.0185546875
-124.51171875
-111.6943359375
-111.6943359375
-118.10302734375
-129.08935546875
-128.173828125
-122.6806640625
-114.44091796875
-119.0185546875
-124.51171875
-130.92041015625
-120.849609375
-122.6806640625
-124.51171875
-122.6806640625
-121.76513671875
-123.59619140625
-125.42724609375
-117.1875
-121.76513671875
-130.0048828125
-134.58251953125
-135.498046875
-137.3291015625
-136.41357421875
-131.8359375
-119.0185546875
-117.1875
-118.10302734375
-124.51171875
-125.42724609375
-124.51171875
-131.8359375
-142.822265625
-136.41357421875
-133.6669921875
-133.6669921875
-130.92041015625
-122.6806640625
-117.1875
-120.849609375
-129.08935546875
-132.75146484375
-135.498046875
-138.24462890625
-127.25830078125
-125.42724609375
-127.25830078125
-122.6806640625
-125.42724609375
-128.173828125
-127.25830078125
-122.6806640625
-126.3427734375
-127.25830078125
-136.41357421875
-148.3154296875
-151.9775390625
-134.58251953125
-132.75146484375
-124.51171875
-125.42724609375
-132.75146484375
-129.08935546875
-133.6669921875
-135.498046875
-131.8359375
-130.92041015625
-118.10302734375
-103.45458984375
-86.97509765625
-88.80615234375
-97.96142578125
-113.525390625
-104.3701171875
-88.80615234375
-84.228515625
-80.56640625
-58.59375
-50.35400390625
-58.59375
-60.4248046875
-58.59375
-65.91796875
-69.580078125
-81.48193359375
-80.56640625
-81.48193359375
-71.4111328125
-72.32666015625
-70.49560546875
-76.904296875
-93.3837890625
-98.876953125
-115.3564453125
-123.59619140625
-123.59619140625
-117.1875
-120.849609375
-123.59619140625
-125.42724609375
-127.25830078125
-130.0048828125
-133.6669921875
-145.56884765625
-150.146484375
-145.56884765625
-141.90673828125
-144.6533203125
-139.16015625
-137.3291015625
-127.25830078125
-128.173828125
-136.41357421875
-137.3291015625
-142.822265625
-146.484375
-143.73779296875
-143.73779296875
-146.484375
-148.3154296875
-146.484375
-146.484375
-150.146484375
-156.55517578125
-155.6396484375
-152.89306640625
-145.56884765625
-145.56884765625
-135.498046875
-134.58251953125
-133.6669921875
-137.3291015625
-143.73779296875
-147.39990234375
-148.3154296875
-155.6396484375
-164.794921875
-174.86572265625
-184.9365234375
-184.02099609375
-170.2880859375
-136.41357421875
-92.46826171875
-43.9453125
53.1005859375
184.02099609375
295.71533203125
420.22705078125
553.89404296875
665.58837890625
751.64794921875
865.17333984375
1009.82666015625
1093.1396484375
1118.7744140625
1091.30859375
942.07763671875
649.10888671875
315.85693359375
53.1005859375
-129.08935546875
-153.80859375
-117.1875
-89.7216796875
-89.7216796875
-87.890625
-64.0869140625
-43.02978515625
-32.04345703125
-38.4521484375
-47.607421875
-54.931640625
-59.50927734375
-67.7490234375
-75.98876953125
-81.48193359375
-79.65087890625
-90.63720703125
-102.5390625
-102.5390625
-108.0322265625
-117.1875
-111.6943359375
-117.1875
-102.5390625
-93.3837890625
-90.63720703125
-90.63720703125
-90.63720703125
-96.13037109375
-94.29931640625
-91.552734375
-90.63720703125
-86.0595703125
-86.97509765625
-88.80615234375
-86.97509765625
-87.890625
-90.63720703125
-100.7080078125
-107.11669921875
-98.876953125
-98.876953125
-96.13037109375
-92.46826171875
-95.21484375
-91.552734375
-81.48193359375
-86.0595703125
-80.56640625
-72.32666015625
-69.580078125
-70.49560546875
-78.7353515625
-77.81982421875
-66.83349609375
-67.7490234375
-69.580078125
-69.580078125
-60.4248046875
-55.84716796875
-54.01611328125
-61.34033203125
-59.50927734375
-56.7626953125
-54.931640625
-57.67822265625
-56.7626953125
-60.4248046875
-56.7626953125
-65.91796875
-67.7490234375
-59.50927734375
-56.7626953125
-48.52294921875
-43.9453125
-39.36767578125
-33.87451171875
-25.634765625
-25.634765625
-18.310546875
-20.1416015625
-26.55029296875
-21.05712890625
-23.8037109375
-16.4794921875
-25.634765625
-18.310546875
-11.90185546875
-13.73291015625
-10.07080078125
-10.07080078125
-6.40869140625
-10.986328125
-11.90185546875
5.4931640625
14.6484375
21.05712890625
29.296875
23.8037109375
21.97265625
29.296875
28.38134765625
31.1279296875
27.4658203125
37.53662109375
54.01611328125
56.7626953125
60.4248046875
61.34033203125
55.84716796875
55.84716796875
58.59375
65.00244140625
72.32666015625
67.7490234375
72.32666015625
75.0732421875
78.7353515625
75.98876953125
75.98876953125
75.0732421875
75.0732421875
71.4111328125
71.4111328125
68.66455078125
63.17138671875
65.91796875
53.1005859375
56.7626953125
51.26953125
28.38134765625
19.22607421875
18.310546875
9.1552734375
2.74658203125
2.74658203125
-8.23974609375
-10.07080078125
-15.56396484375
-21.97265625
-27.4658203125
-32.958984375
-42.1142578125
-53.1005859375
-64.0869140625
-65.91796875
-63.17138671875
-72.32666015625
-67.7490234375
-68.66455078125
-75.0732421875
-74.15771484375
-76.904296875
-78.7353515625
-81.48193359375
-83.31298828125
-95.21484375
-98.876953125
-98.876953125
-93.3837890625
-93.3837890625
-77.81982421875
-79.65087890625
-83.31298828125
-97.0458984375
-96.13037109375
-82.3974609375
-87.890625
-91.552734375
-83.31298828125
-82.3974609375
-88.80615234375
-83.31298828125
-88.80615234375
-97.0458984375
-91.552734375
-85.14404296875
-91.552734375
-85.14404296875
-84.228515625
-86.0595703125
-90.63720703125
-88.80615234375
-86.0595703125
-80.56640625
-75.98876953125
-76.904296875
-67.7490234375
-70.49560546875
-71.4111328125
-75.0732421875
-75.0732421875
-71.4111328125
-71.4111328125
-70.49560546875
-68.66455078125
-67.7490234375
-65.91796875
-65.00244140625
-64.0869140625
-67.7490234375
-69.580078125
-77.81982421875
-88.80615234375
-92.46826171875
-85.14404296875
-77.81982421875
-66.83349609375
-57.67822265625
-52.18505859375
-56.7626953125
-66.83349609375
-75.98876953125
-65.91796875
-59.50927734375
-60.4248046875
-65.00244140625
-67.7490234375
-67.7490234375
-75.98876953125
-75.0732421875
-73.2421875
-70.49560546875
-70.49560546875
-72.32666015625
-75.98876953125
-74.15771484375
-74.15771484375
-75.98876953125
-78.7353515625
-75.98876953125
-73.2421875
-76.904296875
-72.32666015625
-67.7490234375
-67.7490234375
-66.83349609375
-69.580078125
-73.2421875
-71.4111328125
-75.98876953125
-81.48193359375
-79.65087890625
-73.2421875
-81.48193359375
-81.48193359375
-86.0595703125
-85.14404296875
-78.7353515625
-76.904296875
-76.904296875
-81.48193359375
-83.31298828125
-86.97509765625
-85.14404296875
-86.97509765625
-79.65087890625
-82.3974609375
-77.81982421875
-83.31298828125
-88.80615234375
-95.21484375
-96.13037109375
-85.14404296875
-93.3837890625
-96.13037109375
-91.552734375
-82.3974609375
-82.3974609375
-83.31298828125
-75.98876953125
-81.48193359375
-84.228515625
-83.31298828125
-78.7353515625
-77.81982421875
-76.904296875
-86.0595703125
-87.890625
-94.29931640625
-92.46826171875
-83.31298828125
-92.46826171875
-92.46826171875
-93.3837890625
-94.29931640625
-86.97509765625
-88.80615234375
-92.46826171875
-92.46826171875
-90.63720703125
-98.876953125
-86.0595703125
-81.48193359375
-89.7216796875
-94.29931640625
-87.890625
-96.13037109375
-87.890625
-91.552734375
-84.228515625
-81.48193359375
-85.14404296875
-89.7216796875
-98.876953125
-99.79248046875
-97.96142578125
-97.0458984375
-105.28564453125
-102.5390625
-101.62353515625
-97.0458984375
-88.80615234375
-86.97509765625
-90.63720703125
-92.46826171875
-77.81982421875
-77.81982421875
-84.228515625
-85.14404296875
-86.97509765625
-89.7216796875
-87.890625
-75.98876953125
-76.904296875
-80.56640625
-80.56640625
-78.7353515625
-77.81982421875
-82.3974609375
-85.14404296875
-85.14404296875
-89.7216796875
-87.890625
-94.29931640625
-88.80615234375
-97.0458984375
-91.552734375
-84.228515625
-72.32666015625
-55.84716796875
-51.26953125
-48.52294921875
-47.607421875
-43.02978515625
-41.19873046875
-44.86083984375
-47.607421875
-43.9453125
-32.958984375
-23.8037109375
-26.55029296875
-32.04345703125
-30.21240234375
-20.1416015625
-17.39501953125
-27.4658203125
-18.310546875
-12.8173828125
-11.90185546875
-9.1552734375
-19.22607421875
-21.97265625
-29.296875
-41.19873046875
-40.283203125
-47.607421875
-51.26953125
-68.66455078125
-76.904296875
-77.81982421875
-85.14404296875
-93.3837890625
-100.7080078125
-102.5390625
-106.201171875
-108.0322265625
-108.94775390625
-97.0458984375
-100.7080078125
-108.94775390625
-107.11669921875
-104.3701171875
-97.0458984375
-92.46826171875
-92.46826171875
-86.97509765625
-86.0595703125
-90.63720703125
-92.46826171875
-88.80615234375
-96.13037109375
-91.552734375
-89.7216796875
-90.63720703125
-101.62353515625
-100.7080078125
-97.96142578125
-98.876953125
-93.3837890625
-99.79248046875
-105.28564453125
-103.45458984375
-103.45458984375
-104.3701171875
-101.62353515625
-97.96142578125
-98.876953125
-111.6943359375
-124.51171875
-134.58251953125
-133.6669921875
-132.75146484375
-120.849609375
-78.7353515625
-36.62109375
26.55029296875
130.0048828125
249.93896484375
365.29541015625
491.63818359375
613.4033203125
702.20947265625
801.08642578125
939.3310546875
1069.3359375
1138.916015625
1130.67626953125
1047.36328125
833.1298828125
515.44189453125
257.26318359375
29.296875
-71.4111328125
-74.15771484375
-51.26953125
-48.52294921875
-46.69189453125
-21.05712890625
0.91552734375
21.05712890625
24.71923828125
0
-11.90185546875
-19.22607421875
-20.1416015625
-27.4658203125
-32.958984375
-40.283203125
-50.35400390625
-54.931640625
-49.4384765625
-52.18505859375
-48.52294921875
-46.69189453125
-46.69189453125
-52.18505859375
-56.7626953125
-58.59375
-59.50927734375
-64.0869140625
-58.59375
-59.50927734375
-59.50927734375
-50.35400390625
-42.1142578125
-45.7763671875
-46.69189453125
-54.01611328125
-52.18505859375
-50.35400390625
-52.18505859375
-54.931640625
-59.50927734375
-60.4248046875
-63.17138671875
-63.17138671875
-67.7490234375
-58.59375
-51.26953125
-47.607421875
-40.283203125
-40.283203125
-38.4521484375
-37.53662109375
-36.62109375
-34.7900390625
-34.7900390625
-35.70556640625
-35.70556640625
-35.70556640625
-31.1279296875
-22.88818359375
-27.4658203125
-38.4521484375
-43.9453125
-44.86083984375
-40.283203125
-31.1279296875
-31.1279296875
-24.71923828125
-19.22607421875
-21.97265625
-16.4794921875
-13.73291015625
-19.22607421875
-21.05712890625
-10.986328125
-6.40869140625
-5.4931640625
-0.91552734375
2.74658203125
7.32421875
7.32421875
9.1552734375
4.57763671875
2.74658203125
14.6484375
3.662109375
9.1552734375
16.4794921875
21.97265625
27.4658203125
21.05712890625
24.71923828125
32.958984375
37.53662109375
41.19873046875
48.52294921875
54.931640625
54.931640625
59.50927734375
58.59375
62.255859375
65.91796875
68.66455078125
75.0732421875
86.0595703125
89.7216796875
85.14404296875
85.14404296875
84.228515625
89.7216796875
94.29931640625
104.3701171875
107.11669921875
112.60986328125
112.60986328125
117.1875
122.6806640625
123.59619140625
129.08935546875
131.8359375
125.42724609375
125.42724609375
127.25830078125
127.25830078125
126.3427734375
124.51171875
115.3564453125
110.77880859375
101.62353515625
95.21484375
93.3837890625
80.56640625
64.0869140625
56.7626953125
39.36767578125
27.4658203125
29.296875
32.958984375
33.87451171875
23.8037109375
17.39501953125
9.1552734375
-4.57763671875
-14.6484375
-22.88818359375
-29.296875
-33.87451171875
-37.53662109375
-40.283203125
-38.4521484375
-39.36767578125
-42.1142578125
-48.52294921875
-50.35400390625
-46.69189453125
-44.86083984375
-48.52294921875
-55.84716796875
-57.67822265625
-67.7490234375
-56.7626953125
-60.4248046875
-68.66455078125
-85.14404296875
-79.65087890625
-67.7490234375
-62.255859375
-65.00244140625
-57.67822265625
-68.66455078125
-73.2421875
-76.904296875
-76.904296875
-77.81982421875
-76.904296875
-77.81982421875
-77.81982421875
-58.59375
-50.35400390625
-54.01611328125
-63.17138671875
-66.83349609375
-72.32666015625
-70.49560546875
-59.50927734375
-54.01611328125
-49.4384765625
-52.18505859375
-58.59375
-63.17138671875
-68.66455078125
-67.7490234375
-60.4248046875
-60.4248046875
-57.67822265625
-55.84716796875
-57.67822265625
-61.34033203125
-58.59375
-59.50927734375
-57.67822265625
-51.26953125
-56.7626953125
-59.50927734375
-56.7626953125
-58.59375
-64.0869140625
-63.17138671875
-58.59375
-65.00244140625
-64.0869140625
-62.255859375
-69.580078125
-67.7490234375
-62.255859375
-53.1005859375
-50.35400390625
-59.50927734375
-67.7490234375
-56.7626953125
-45.7763671875
-43.02978515625
-42.1142578125
-45.7763671875
-48.52294921875
-44.86083984375
-38.4521484375
-44.86083984375
-51.26953125
-50.35400390625
-54.931640625
-56.7626953125
-57.67822265625
-59.50927734375
-52.18505859375
-62.255859375
-73.2421875
-63.17138671875
-60.4248046875
-65.91796875
-67.7490234375
-72.32666015625
-65.00244140625
-65.00244140625
-62.255859375
-67.7490234375
-73.2421875
-65.91796875
-65.00244140625
-71.4111328125
-68.66455078125
-67.7490234375
-74.15771484375
-71.4111328125
-73.2421875
-71.4111328125
-69.580078125
-70.49560546875
-68.66455078125
-66.83349609375
-75.0732421875
-66.83349609375
-68.66455078125
-65.00244140625
-67.7490234375
-65.00244140625
-65.91796875
-75.98876953125
-72.32666015625
-71.4111328125
-75.0732421875
-72.32666015625
-76.904296875
-77.81982421875
-81.48193359375
-80.56640625
-82.3974609375
-79.65087890625
-75.98876953125
-69.580078125
-67.7490234375
-78.7353515625
-81.48193359375
-78.7353515625
-70.49560546875
-71.4111328125
-73.2421875
-78.7353515625
-89.7216796875
-98.876953125
-88.80615234375
-86.97509765625
-86.97509765625
-88.80615234375
-81.48193359375
-86.0595703125
-79.65087890625
-78.7353515625
-79.65087890625
-81.48193359375
-79.65087890625
-76.904296875
-73.2421875
-75.0732421875
-78.7353515625
-75.98876953125
-75.98876953125
-82.3974609375
-80.56640625
-78.7353515625
-82.3974609375
-89.7216796875
-88.80615234375
-91.552734375
-100.7080078125
-96.13037109375
-82.3974609375
-81.48193359375
-72.32666015625
-65.00244140625
-69.580078125
-76.904296875
-82.3974609375
-74.15771484375
-68.66455078125
-70.49560546875
-72.32666015625
-74.15771484375
-75.0732421875
-80.56640625
-79.65087890625
-75.0732421875
-72.32666015625
-71.4111328125
-72.32666015625
-74.15771484375
-78.7353515625
-86.0595703125
-80.56640625
-76.904296875
-75.98876953125
-81.48193359375
-75.0732421875
-79.65087890625
-83.31298828125
-78.7353515625
-69.580078125
-64.0869140625
-43.9453125
-35.70556640625
-39.36767578125
-39.36767578125
-39.36767578125
-48.52294921875
-43.02978515625
-29.296875
-29.296875
-29.296875
-20.1416015625
-11.90185546875
-10.07080078125
-15.56396484375
-14.6484375
-17.39501953125
-24.71923828125
-22.88818359375
-21.05712890625
-27.4658203125
-19.22607421875
-26.55029296875
-32.04345703125
-32.04345703125
-37.53662109375
-49.4384765625
-56.7626953125
-55.84716796875
-65.91796875
-65.00244140625
-78.7353515625
-92.46826171875
-105.28564453125
-108.94775390625
-107.11669921875
-103.45458984375
-104.3701171875
-97.0458984375
-88.80615234375
-82.3974609375
-85.14404296875
-86.0595703125
-90.63720703125
-100.7080078125
-97.0458984375
-96.13037109375
-95.21484375
-108.0322265625
-108.94775390625
-108.0322265625
-97.0458984375
-96.13037109375
-92.46826171875
-96.13037109375
-103.45458984375
-104.3701171875
-110.77880859375
-106.201171875
-98.876953125
-96.13037109375
-89.7216796875
-88.80615234375
-90.63720703125
-88.80615234375
-96.13037109375
-97.0458984375
-101.62353515625
-102.5390625
-94.29931640625
-105.28564453125
-121.76513671875
-123.59619140625
-112.60986328125
-85.14404296875
-47.607421875
16.4794921875
109.86328125
217.8955078125
338.7451171875
466.9189453125
585.9375
680.23681640625
784.60693359375
909.11865234375
1037.29248046875
1116.02783203125
1138.00048828125
1096.8017578125
919.189453125
610.65673828125
329.58984375
89.7216796875
-66.83349609375
-83.31298828125
-66.83349609375
-55.84716796875
-43.02978515625
-17.39501953125
4.57763671875
17.39501953125
15.56396484375
-3.662109375
-13.73291015625
-22.88818359375
-26.55029296875
-31.1279296875
-34.7900390625
-35.70556640625
-40.283203125
-46.69189453125
-49.4384765625
-54.01611328125
-46.69189453125
-40.283203125
-41.19873046875
-39.36767578125
-38.4521484375
-34.7900390625
-46.69189453125
-62.255859375
-63.17138671875
-55.84716796875
-52.18505859375
-51.26953125
-41.19873046875
-33.87451171875
-40.283203125
-42.1142578125
-43.9453125
-47.607421875
-42.1142578125
-41.19873046875
-38.4521484375
-51.26953125
-65.00244140625
-62.255859375
-53.1005859375
-49.4384765625
-50.35400390625
-45.7763671875
-45.7763671875
-37.53662109375
-33.87451171875
-33.87451171875
-32.04345703125
-27.4658203125
-29.296875
-26.55029296875
-32.958984375
-34.7900390625
-32.04345703125
-27.4658203125
-33.87451171875
-31.1279296875
-28.38134765625
-31.1279296875
-24.71923828125
-17.39501953125
-20.1416015625
-22.88818359375
-18.310546875
-19.22607421875
-20.1416015625
-20.1416015625
-21.05712890625
-21.05712890625
-21.05712890625
-19.22607421875
-7.32421875
-3.662109375
-2.74658203125
3.662109375
12.8173828125
15.56396484375
10.986328125
13.73291015625
6.40869140625
11.90185546875
21.97265625
18.310546875
10.986328125
13.73291015625
27.4658203125
32.04345703125
35.70556640625
43.9453125
34.7900390625
29.296875
33.87451171875
43.02978515625
53.1005859375
58.59375
68.66455078125
68.66455078125
69.580078125
71.4111328125
73.2421875
81.48193359375
75.0732421875
73.2421875
84.228515625
86.97509765625
92.46826171875
97.0458984375
102.5390625
107.11669921875
117.1875
122.6806640625
115.3564453125
114.44091796875
110.77880859375
111.6943359375
118.10302734375
119.93408203125
118.10302734375
117.1875
119.0185546875
111.6943359375
109.86328125
99.79248046875
92.46826171875
89.7216796875
86.97509765625
76.904296875
66.83349609375
63.17138671875
44.86083984375
36.62109375
22.88818359375
11.90185546875
6.40869140625
3.662109375
-10.07080078125
-10.07080078125
-24.71923828125
-34.7900390625
-37.53662109375
-42.1142578125
-45.7763671875
-44.86083984375
-46.69189453125
-38.4521484375
-35.70556640625
-41.19873046875
-43.02978515625
-32.04345703125
-46.69189453125
-66.83349609375
-70.49560546875
-68.66455078125
-69.580078125
-68.66455078125
-73.2421875
-75.0732421875
-71.4111328125
-71.4111328125
-72.32666015625
-72.32666015625
-73.2421875
-68.66455078125
-71.4111328125
-74.15771484375
-76.904296875
-79.65087890625
-73.2421875
-75.0732421875
-80.56640625
-86.0595703125
-78.7353515625
-77.81982421875
-78.7353515625
-85.14404296875
-78.7353515625
-78.7353515625
-77.81982421875
-72.32666015625
-71.4111328125
-67.7490234375
-74.15771484375
-77.81982421875
-75.0732421875
-73.2421875
-72.32666015625
-75.98876953125
-77.81982421875
-86.97509765625
-94.29931640625
-99.79248046875
-94.29931640625
-89.7216796875
-83.31298828125
-88.80615234375
-76.904296875
-65.00244140625
-62.255859375
-70.49560546875
-66.83349609375
-70.49560546875
-70.49560546875
-70.49560546875
-75.0732421875
-96.13037109375
-91.552734375
-85.14404296875
-80.56640625
-72.32666015625
-66.83349609375
-59.50927734375
-71.4111328125
-70.49560546875
-72.32666015625
-65.91796875
-71.4111328125
-66.83349609375
-73.2421875
-68.66455078125
-65.00244140625
-77.81982421875
-75.0732421875
-67.7490234375
-66.83349609375
-68.66455078125
-73.2421875
-75.98876953125
-77.81982421875
-76.904296875
-75.0732421875
-79.65087890625
-87.890625
-93.3837890625
-96.13037109375
-90.63720703125
-90.63720703125
-86.0595703125
-81.48193359375
-76.904296875
-79.65087890625
-85.14404296875
-78.7353515625
-85.14404296875
-90.63720703125
-92.46826171875
-88.80615234375
-94.29931640625
-88.80615234375
-89.7216796875
-88.80615234375
-94.29931640625
-94.29931640625
-97.0458984375
-100.7080078125
-103.45458984375
-103.45458984375
-104.3701171875
-100.7080078125
-97.0458984375
-97.0458984375
-102.5390625
-89.7216796875
-86.0595703125
-91.552734375
-87.890625
-85.14404296875
-89.7216796875
-94.29931640625
-99.79248046875
-105.28564453125
-111.6943359375
-110.77880859375
-107.11669921875
-103.45458984375
-95.21484375
-108.0322265625
-116.27197265625
-112.60986328125
-114.44091796875
-108.94775390625
-107.11669921875
-115.3564453125
-103.45458984375
-106.201171875
-108.0322265625
-104.3701171875
-109.86328125
-118.10302734375
-118.10302734375
-122.6806640625
-123.59619140625
-113.525390625
-108.94775390625
-108.94775390625
-113.525390625
-113.525390625
-114.44091796875
-113.525390625
-119.93408203125
-119.93408203125
-111.6943359375
-114.44091796875
-114.44091796875
-117.1875
-116.27197265625
-123.59619140625
-119.93408203125
-116.27197265625
-121.76513671875
-117.1875
-124.51171875
-124.51171875
-123.59619140625
-126.3427734375
-120.849609375
-119.93408203125
-121.76513671875
-117.1875
-108.0322265625
-100.7080078125
-101.62353515625
-109.86328125
-112.60986328125
-119.93408203125
-118.10302734375
-117.1875
-119.93408203125
-119.0185546875
-112.60986328125
-97.96142578125
-81.48193359375
-75.98876953125
-77.81982421875
-75.0732421875
-79.65087890625
-75.98876953125
-66.83349609375
-61.34033203125
-51.26953125
-52.18505859375
-39.36767578125
-43.9453125
-42.1142578125
-49.4384765625
-47.607421875
-46.69189453125
-59.50927734375
-54.931640625
-44.86083984375
-46.69189453125
-53.1005859375
-70.49560546875
-76.904296875
-86.0595703125
-91.552734375
-88.80615234375
-89.7216796875
-100.7080078125
-106.201171875
-116.27197265625
-132.75146484375
-138.24462890625
-136.41357421875
-135.498046875
-130.92041015625
-133.6669921875
-127.25830078125
-138.24462890625
-136.41357421875
-128.173828125
-126.3427734375
-126.3427734375
-129.08935546875
-131.8359375
-137.3291015625
-132.75146484375
-140.07568359375
-138.24462890625
-135.498046875
-134.58251953125
-130.92041015625
-130.0048828125
-130.0048828125
-135.498046875
-137.3291015625
-139.16015625
-138.24462890625
-140.07568359375
-137.3291015625
-147.39990234375
-140.07568359375
-138.24462890625
-140.07568359375
-135.498046875
-140.07568359375
-138.24462890625
-138.24462890625
-141.90673828125
-158.38623046875
-173.03466796875
-182.18994140625
-164.794921875
-140.07568359375
-101.62353515625
-52.18505859375
32.958984375
152.89306640625
276.4892578125
405.57861328125
537.41455078125
643.61572265625
726.9287109375
823.974609375
962.21923828125
1070.25146484375
1105.95703125
1092.22412109375
973.20556640625
715.9423828125
383.60595703125
109.86328125
-98.876953125
-140.9912109375
-122.6806640625
-102.5390625
-91.552734375
-93.3837890625
-82.3974609375
-53.1005859375
-44.86083984375
-43.02978515625
-48.52294921875
-60.4248046875
-71.4111328125
-77.81982421875
-78.7353515625
-82.3974609375
-94.29931640625
-101.62353515625
-103.45458984375
-110.77880859375
-106.201171875
-87.890625
-80.56640625
-94.29931640625
-90.63720703125
-97.96142578125
-89.7216796875
-86.0595703125
-90.63720703125
-95.21484375
-97.96142578125
-102.5390625
-93.3837890625
-89.7216796875
-91.552734375
-86.0595703125
-92.46826171875
-99.79248046875
-104.3701171875
-101.62353515625
-98.876953125
-88.80615234375
-77.81982421875
-87.890625
-90.63720703125
-96.13037109375
-97.0458984375
-96.13037109375
-90.63720703125
-97.0458984375
-102.5390625
-106.201171875
-94.29931640625
-86.0595703125
-86.0595703125
-94.29931640625
-88.80615234375
-86.97509765625
-90.63720703125
-84.228515625
-80.56640625
-82.3974609375
-80.56640625
-82.3974609375
-77.81982421875
-83.31298828125
-77.81982421875
-75.98876953125
-75.0732421875
-71.4111328125
-75.98876953125
-62.255859375
-52.18505859375
-46.69189453125
-54.01611328125
-46.69189453125
-43.9453125
-57.67822265625
-55.84716796875
-65.00244140625
-64.0869140625
-48.52294921875
-40.283203125
-32.958984375
-32.04345703125
-32.958984375
-28.38134765625
-26.55029296875
-34.7900390625
-36.62109375
-42.1142578125
-32.04345703125
-28.38134765625
-29.296875
-18.310546875
-8.23974609375
-8.23974609375
-6.40869140625
0.91552734375
6.40869140625
11.90185546875
15.56396484375
20.1416015625
20.1416015625
17.39501953125
15.56396484375
19.22607421875
22.88818359375
27.4658203125
35.70556640625
37.53662109375
47.607421875
51.26953125
54.01611328125
61.34033203125
64.0869140625
64.0869140625
71.4111328125
66.83349609375
60.4248046875
65.00244140625
68.66455078125
65.00244140625
57.67822265625
43.02978515625
47.607421875
46.69189453125
47.607421875
51.26953125
48.52294921875
37.53662109375
31.1279296875
28.38134765625
18.310546875
6.40869140625
-0.91552734375
-9.1552734375
-22.88818359375
-32.04345703125
-42.1142578125
-49.4384765625
-55.84716796875
-59.50927734375
-57.67822265625
-63.17138671875
-65.91796875
-70.49560546875
-74.15771484375
-77.81982421875
-79.65087890625
-88.80615234375
-91.552734375
-88.80615234375
-86.97509765625
-97.0458984375
-103.45458984375
-106.201171875
-110.77880859375
-110.77880859375
-110.77880859375
-118.10302734375
-111.6943359375
-115.3564453125
-115.3564453125
-118.10302734375
-117.1875
-113.525390625
-114.44091796875
-108.0322265625
-98.876953125
-94.29931640625
-101.62353515625
-100.7080078125
-100.7080078125
-110.77880859375
-112.60986328125
-117.1875
-117.1875
-113.525390625
-114.44091796875
-116.27197265625
-108.0322265625
-103.45458984375
-100.7080078125
-108.94775390625
-105.28564453125
-104.3701171875
-97.0458984375
-105.28564453125
-110.77880859375
-105.28564453125
-105.28564453125
-106.201171875
-103.45458984375
-95.21484375
-97.0458984375
-98.876953125
-102.5390625
-98.876953125
-96.13037109375
-88.80615234375
-95.21484375
-102.5390625
-104.3701171875
-107.11669921875
-99.79248046875
-96.13037109375
-89.7216796875
-97.0458984375
-100.7080078125
-98.876953125
-92.46826171875
-87.890625
-83.31298828125
-84.228515625
-84.228515625
-94.29931640625
-101.62353515625
-92.46826171875
-94.29931640625
-98.876953125
-103.45458984375
-97.0458984375
-97.0458984375
-102.5390625
-96.13037109375
-94.29931640625
-90.63720703125
-95.21484375
-88.80615234375
-92.46826171875
-97.0458984375
-97.0458984375
-92.46826171875
-100.7080078125
-93.3837890625
-90.63720703125
-97.0458984375
-110.77880859375
-107.11669921875
-107.11669921875
-101.62353515625
-90.63720703125
-90.63720703125
-89.7216796875
-94.29931640625
-94.29931640625
-97.0458984375
-102.5390625
-112.60986328125
-118.10302734375
-108.94775390625
-117.1875
-109.86328125
-107.11669921875
-97.96142578125
-92.46826171875
-98.876953125
-104.3701171875
-109.86328125
-105.28564453125
-102.5390625
-111.6943359375
-110.77880859375
-119.0185546875
-122.6806640625
-118.10302734375
-116.27197265625
-119.0185546875
-116.27197265625
-108.0322265625
-99.79248046875
-97.0458984375
-101.62353515625
-105.28564453125
-104.3701171875
-99.79248046875
-96.13037109375
-98.876953125
-104.3701171875
-108.0322265625
-112.60986328125
-105.28564453125
-107.11669921875
-107.11669921875
-112.60986328125
-116.27197265625
-112.60986328125
-115.3564453125
-121.76513671875
-120.849609375
-122.6806640625
-120.849609375
-119.93408203125
-122.6806640625
-112.60986328125
-112.60986328125
-120.849609375
-115.3564453125
-111.6943359375
-107.11669921875
-97.0458984375
-97.0458984375
-100.7080078125
-101.62353515625
-110.77880859375
-113.525390625
-119.0185546875
-121.76513671875
-124.51171875
-119.93408203125
-115.3564453125
-120.849609375
-118.10302734375
-108.94775390625
-108.94775390625
-102.5390625
-94.29931640625
-94.29931640625
-100.7080078125
-107.11669921875
-106.201171875
-96.13037109375
-82.3974609375
-73.2421875
-56.7626953125
-63.17138671875
-77.81982421875
-81.48193359375
-86.0595703125
-70.49560546875
-59.50927734375
-57.67822265625
-35.70556640625
-37.53662109375
-41.19873046875
-33.87451171875
-29.296875
-41.19873046875
-43.9453125
-43.02978515625
-42.1142578125
-46.69189453125
-49.4384765625
-55.84716796875
-64.0869140625
-64.0869140625
-67.7490234375
-85.14404296875
-94.29931640625
-99.79248046875
-98.876953125
-103.45458984375
-95.21484375
-93.3837890625
-100.7080078125
-107.11669921875
-109.86328125
-117.1875
-110.77880859375
-113.525390625
-115.3564453125
-119.0185546875
-113.525390625
-116.27197265625
-121.76513671875
-121.76513671875
-123.59619140625
-122.6806640625
-131.8359375
-136.41357421875
-139.16015625
-136.41357421875
-128.173828125
-137.3291015625
-136.41357421875
-131.8359375
-135.498046875
-128.173828125
-124.51171875
-120.849609375
-120.849609375
-119.0185546875
-121.76513671875
-124.51171875
-130.92041015625
-135.498046875
-130.0048828125
-122.6806640625
-129.08935546875
-148.3154296875
-167.54150390625
-173.03466796875
-168.45703125
-157.470703125
-132.75146484375
-105.28564453125
-67.7490234375
-19.22607421875
62.255859375
181.2744140625
292.96875
422.9736328125
556.640625
656.43310546875
735.16845703125
856.01806640625
1003.41796875
1098.6328125
1123.35205078125
1100.4638671875
960.38818359375
693.9697265625
375.3662109375
121.76513671875
-68.66455078125
-101.62353515625
-83.31298828125
-60.4248046875
-65.91796875
-58.59375
-34.7900390625
-17.39501953125
-5.4931640625
-8.23974609375
-18.310546875
-29.296875
-45.7763671875
-58.59375
-66.83349609375
-75.98876953125
-81.48193359375
-77.81982421875
-72.32666015625
-57.67822265625
-62.255859375
-54.01611328125
-50.35400390625
-53.1005859375
-51.26953125
-57.67822265625
-59.50927734375
-65.91796875
-65.91796875
-64.0869140625
-75.98876953125
-72.32666015625
-70.49560546875
-68.66455078125
-65.00244140625
-63.17138671875
-56.7626953125
-55.84716796875
-54.01611328125
-55.84716796875
-61.34033203125
-63.17138671875
-55.84716796875
-55.84716796875
-53.1005859375
-69.580078125
-60.4248046875
-54.01611328125
-53.1005859375
-64.0869140625
-55.84716796875
-57.67822265625
-50.35400390625
-48.52294921875
-54.931640625
-59.50927734375
-53.1005859375
-43.9453125
-41.19873046875
-38.4521484375
-34.7900390625
-28.38134765625
-29.296875
-26.55029296875
-26.55029296875
-33.87451171875
-36.62109375
-32.04345703125
-28.38134765625
-23.8037109375
-21.05712890625
-21.05712890625
-20.1416015625
-19.22607421875
-24.71923828125
-18.310546875
-17.39501953125
-8.23974609375
-16.4794921875
-14.6484375
-16.4794921875
-17.39501953125
-21.05712890625
-23.8037109375
-12.8173828125
-3.662109375
10.07080078125
11.90185546875
15.56396484375
24.71923828125
20.1416015625
24.71923828125
31.1279296875
26.55029296875
29.296875
24.71923828125
27.4658203125
30.21240234375
33.87451171875
40.283203125
55.84716796875
63.17138671875
70.49560546875
75.0732421875
72.32666015625
70.49560546875
78.7353515625
77.81982421875
80.56640625
86.97509765625
90.63720703125
95.21484375
97.0458984375
90.63720703125
94.29931640625
96.13037109375
95.21484375
100.7080078125
104.3701171875
96.13037109375
94.29931640625
90.63720703125
90.63720703125
89.7216796875
97.96142578125
107.11669921875
105.28564453125
95.21484375
85.14404296875
75.98876953125
67.7490234375
53.1005859375
46.69189453125
45.7763671875
29.296875
22.88818359375
24.71923828125
16.4794921875
21.05712890625
10.986328125
10.986328125
4.57763671875
-11.90185546875
-19.22607421875
-23.8037109375
-27.4658203125
-36.62109375
-56.7626953125
-62.255859375
-65.00244140625
-60.4248046875
-60.4248046875
-66.83349609375
-60.4248046875
-59.50927734375
-58.59375
-54.01611328125
-54.01611328125
-50.35400390625
-54.01611328125
-64.0869140625
-75.0732421875
-71.4111328125
-70.49560546875
-75.98876953125
-74.15771484375
-64.0869140625
-70.49560546875
-74.15771484375
-79.65087890625
-70.49560546875
-74.15771484375
-84.228515625
-90.63720703125
-85.14404296875
-84.228515625
-79.65087890625
-70.49560546875
-65.91796875
-64.0869140625
-68.66455078125
-67.7490234375
-66.83349609375
-61.34033203125
-66.83349609375
-66.83349609375
-74.15771484375
-81.48193359375
-76.904296875
-72.32666015625
-65.91796875
-64.0869140625
-65.91796875
-67.7490234375
-63.17138671875
-63.17138671875
-61.34033203125
-61.34033203125
-59.50927734375
-60.4248046875
-62.255859375
-57.67822265625
-60.4248046875
-51.26953125
-57.67822265625
-59.50927734375
-63.17138671875
-59.50927734375
-53.1005859375
-52.18505859375
-54.931640625
-57.67822265625
-53.1005859375
-58.59375
-65.00244140625
-69.580078125
-73.2421875
-64.0869140625
-54.931640625
-59.50927734375
-56.7626953125
-50.35400390625
-49.4384765625
-50.35400390625
-43.02978515625
-46.69189453125
-54.931640625
-57.67822265625
-54.01611328125
-52.18505859375
-49.4384765625
-57.67822265625
-55.84716796875
-44.86083984375
-47.607421875
-57.67822265625
-58.59375
-54.931640625
-56.7626953125
-54.01611328125
-55.84716796875
-64.0869140625
-65.00244140625
-62.255859375
-66.83349609375
-57.67822265625
-52.18505859375
-56.7626953125
-56.7626953125
-64.0869140625
-65.91796875
-66.83349609375
-66.83349609375
-69.580078125
-79.65087890625
-78.7353515625
-75.98876953125
-81.48193359375
-68.66455078125
-65.00244140625
-58.59375
-62.255859375
-58.59375
-62.255859375
-65.91796875
-60.4248046875
-69.580078125
-73.2421875
-69.580078125
-62.255859375
-56.7626953125
-51.26953125
-55.84716796875
-58.59375
-65.91796875
-67.7490234375
-74.15771484375
-76.904296875
-75.98876953125
-77.81982421875
-75.0732421875
-80.56640625
-70.49560546875
-70.49560546875
-67.7490234375
-67.7490234375
-65.91796875
-68.66455078125
-70.49560546875
-82.3974609375
-86.97509765625
-78.7353515625
-78.7353515625
-70.49560546875
-68.66455078125
-68.66455078125
-75.0732421875
-70.49560546875
-68.66455078125
-60.4248046875
-68.66455078125
-75.0732421875
-74.15771484375
-69.580078125
-69.580078125
-71.4111328125
-62.255859375
-61.34033203125
-65.00244140625
-76.904296875
-83.31298828125
-81.48193359375
-73.2421875
-65.00244140625
-51.26953125
-60.4248046875
-68.66455078125
-74.15771484375
-74.15771484375
-76.904296875
-75.98876953125
-76.904296875
-80.56640625
-76.904296875
-69.580078125
-73.2421875
-77.81982421875
-76.904296875
-71.4111328125
-65.91796875
-64.0869140625
-54.931640625
-60.4248046875
-65.00244140625
-75.0732421875
-75.98876953125
-69.580078125
-62.255859375
-47.607421875
-41.19873046875
-34.7900390625
-29.296875
-32.958984375
-34.7900390625
-31.1279296875
-22.88818359375
-17.39501953125
-14.6484375
-10.986328125
-4.57763671875
3.662109375
9.1552734375
8.23974609375
9.1552734375
-6.40869140625
-17.39501953125
-15.56396484375
-7.32421875
0
5.4931640625
-4.57763671875
-18.310546875
-25.634765625
-32.04345703125
-33.87451171875
-39.36767578125
-35.70556640625
-43.9453125
-52.18505859375
-59.50927734375
-69.580078125
-73.2421875
-79.65087890625
-89.7216796875
-93.3837890625
-92.46826171875
-100.7080078125
-108.94775390625
-99.79248046875
-96.13037109375
-92.46826171875
-81.48193359375
-79.65087890625
-79.65087890625
-77.81982421875
-85.14404296875
-88.80615234375
-87.890625
-89.7216796875
-92.46826171875
-92.46826171875
-95.21484375
-100.7080078125
-107.11669921875
-105.28564453125
-104.3701171875
-99.79248046875
-94.29931640625
-88.80615234375
-87.890625
-84.228515625
-78.7353515625
-83.31298828125
-86.97509765625
-92.46826171875
-94.29931640625
-99.79248046875
-105.28564453125
-117.1875
-124.51171875
-126.3427734375
-119.0185546875
-90.63720703125
-66.83349609375
-24.71923828125
44.86083984375
144.6533203125
261.8408203125
385.43701171875
505.37109375
615.234375
711.36474609375
822.1435546875
948.486328125
1070.25146484375
1144.4091796875
1143.49365234375
1051.025390625
812.07275390625
493.46923828125
233.45947265625
17.39501953125
-67.7490234375
-75.98876953125
-58.59375
-55.84716796875
-39.36767578125
-2.74658203125
15.56396484375
21.05712890625
19.22607421875
11.90185546875
1.8310546875
-1.8310546875
-13.73291015625
-21.05712890625
-17.39501953125
-19.22607421875
-28.38134765625
-36.62109375
-43.02978515625
-47.607421875
-40.283203125
-32.958984375
-38.4521484375
-50.35400390625
-54.931640625
-58.59375
-51.26953125
-48.52294921875
-42.1142578125
-34.7900390625
-33.87451171875
-30.21240234375
-27.4658203125
-35.70556640625
-33.87451171875
-32.04345703125
-38.4521484375
-41.19873046875
-41.19873046875
-44.86083984375
-43.02978515625
-44.86083984375
-49.4384765625
-44.86083984375
-44.86083984375
-43.02978515625
-31.1279296875
-37.53662109375
-42.1142578125
-40.283203125
-32.04345703125
-19.22607421875
-12.8173828125
-20.1416015625
-25.634765625
-24.71923828125
-23.8037109375
-22.88818359375
-20.1416015625
-18.310546875
-14.6484375
-15.56396484375
-20.1416015625
-21.97265625
-21.97265625
-21.05712890625
-21.97265625
-20.1416015625
-18.310546875
-18.310546875
-12.8173828125
-4.57763671875
3.662109375
6.40869140625
0
12.8173828125
15.56396484375
4.57763671875
5.4931640625
7.32421875
10.07080078125
14.6484375
2.74658203125
-1.8310546875
11.90185546875
19.22607421875
27.4658203125
28.38134765625
36.62109375
33.87451171875
36.62109375
51.26953125
56.7626953125
60.4248046875
59.50927734375
54.01611328125
59.50927734375
71.4111328125
83.31298828125
74.15771484375
75.98876953125
80.56640625
86.97509765625
91.552734375
86.0595703125
91.552734375
96.13037109375
101.62353515625
109.86328125
111.6943359375
116.27197265625
121.76513671875
123.59619140625
132.75146484375
134.58251953125
133.6669921875
142.822265625
143.73779296875
145.56884765625
149.23095703125
143.73779296875
137.3291015625
126.3427734375
121.76513671875
129.08935546875
128.173828125
123.59619140625
122.6806640625
108.94775390625
100.7080078125
88.80615234375
83.31298828125
70.49560546875
63.17138671875
56.7626953125
52.18505859375
44.86083984375
37.53662109375
30.21240234375
24.71923828125
24.71923828125
20.1416015625
14.6484375
6.40869140625
-5.4931640625
-22.88818359375
-22.88818359375
-23.8037109375
-23.8037109375
-26.55029296875
-21.97265625
-25.634765625
-29.296875
-35.70556640625
-35.70556640625
-34.7900390625
-41.19873046875
-43.9453125
-49.4384765625
-52.18505859375
-53.1005859375
-49.4384765625
-54.931640625
-49.4384765625
-57.67822265625
-60.4248046875
-58.59375
-57.67822265625
-54.01611328125
-52.18505859375
-51.26953125
-55.84716796875
-52.18505859375
-49.4384765625
-50.35400390625
-54.931640625
-55.84716796875
-65.00244140625
-56.7626953125
-54.01611328125
-52.18505859375
-53.1005859375
-48.52294921875
-43.02978515625
-42.1142578125
-39.36767578125
-38.4521484375
-37.53662109375
-43.9453125
-47.607421875
-43.02978515625
-42.1142578125
-40.283203125
-41.19873046875
-43.9453125
-39.36767578125
-44.86083984375
-47.607421875
-52.18505859375
-59.50927734375
-62.255859375
-47.607421875
-44.86083984375
-52.18505859375
-48.52294921875
-40.283203125
-36.62109375
-29.296875
-36.62109375
-41.19873046875
-36.62109375
-44.86083984375
-45.7763671875
-43.02978515625
-39.36767578125
-41.19873046875
-33.87451171875
-36.62109375
-43.02978515625
-47.607421875
-46.69189453125
-47.607421875
-43.9453125
-48.52294921875
-54.01611328125
-57.67822265625
-46.69189453125
-43.9453125
-42.1142578125
-33.87451171875
-41.19873046875
-38.4521484375
-39.36767578125
-39.36767578125
-41.19873046875
-50.35400390625
-55.84716796875
-54.931640625
-65.91796875
-69.580078125
-66.83349609375
-60.4248046875
-59.50927734375
-53.1005859375
-54.01611328125
-55.84716796875
-53.1005859375
-46.69189453125
-43.02978515625
-45.7763671875
-50.35400390625
-45.7763671875
-47.607421875
-58.59375
-63.17138671875
-64.0869140625
-57.67822265625
-55.84716796875
-60.4248046875
-64.0869140625
-64.0869140625
-64.0869140625
-64.0869140625
-62.255859375
-56.7626953125
-58.59375
-57.67822265625
-54.931640625
-55.84716796875
-57.67822265625
-62.255859375
-64.0869140625
-60.4248046875
-58.59375
-60.4248046875
-56.7626953125
-55.84716796875
-58.59375
-67.7490234375
-71.4111328125
-71.4111328125
-64.0869140625
-60.4248046875
-64.0869140625
-69.580078125
-66.83349609375
-69.580078125
-65.91796875
-68.66455078125
-66.83349609375
-71.4111328125
-68.66455078125
-65.00244140625
-65.91796875
-65.00244140625
-67.7490234375
-65.91796875
-63.17138671875
-65.91796875
-80.56640625
-79.65087890625
-70.49560546875
-72.32666015625
-76.904296875
-75.0732421875
-75.0732421875
-82.3974609375
-85.14404296875
-77.81982421875
-76.904296875
-76.904296875
-74.15771484375
-72.32666015625
-69.580078125
-75.0732421875
-77.81982421875
-75.0732421875
-67.7490234375
-71.4111328125
-76.904296875
-73.2421875
-76.904296875
-75.98876953125
-65.00244140625
-65.91796875
-67.7490234375
-65.91796875
-69.580078125
-71.4111328125
-63.17138671875
-78.7353515625
-76.904296875
-76.904296875
-77.81982421875
-81.48193359375
-80.56640625
-78.7353515625
-71.4111328125
-60.4248046875
-47.607421875
-36.62109375
-33.87451171875
-38.4521484375
-35.70556640625
-49.4384765625
-53.1005859375
-43.02978515625
-32.04345703125
-27.4658203125
-10.986328125
0
-1.8310546875
0
0
-14.6484375
-12.8173828125
-13.73291015625
-10.07080078125
-7.32421875
-20.1416015625
-30.21240234375
-29.296875
-38.4521484375
-42.1142578125
-45.7763671875
-55.84716796875
-52.18505859375
-61.34033203125
-65.00244140625
-74.15771484375
-86.0595703125
-89.7216796875
-94.29931640625
-97.0458984375
-97.0458984375
-99.79248046875
-108.0322265625
-97.96142578125
-93.3837890625
-97.96142578125
-99.79248046875
-100.7080078125
-103.45458984375
-117.1875
-120.849609375
-119.93408203125
-115.3564453125
-110.77880859375
-108.94775390625
-100.7080078125
-98.876953125
-100.7080078125
-103.45458984375
-106.201171875
-108.94775390625
-95.21484375
-97.0458984375
-94.29931640625
-88.80615234375
-79.65087890625
-81.48193359375
-84.228515625
-93.3837890625
-101.62353515625
-101.62353515625
-97.96142578125
-110.77880859375
-112.60986328125
-116.27197265625
-128.173828125
-135.498046875
-131.8359375
-113.525390625
-93.3837890625
-44.86083984375
22.88818359375
128.173828125
244.44580078125
362.548828125
500.79345703125
620.7275390625
698.54736328125
802.91748046875
941.162109375
1071.1669921875
1140.7470703125
1144.4091796875
1092.22412109375
894.47021484375
573.1201171875
289.306640625
52.18505859375
-77.81982421875
-79.65087890625
-59.50927734375
-55.84716796875
-57.67822265625
-33.87451171875
-7.32421875
5.4931640625
0.91552734375
-6.40869140625
-24.71923828125
-32.958984375
-35.70556640625
-44.86083984375
-42.1142578125
-48.52294921875
-62.255859375
-64.0869140625
-61.34033203125
-62.255859375
-65.91796875
-66.83349609375
-55.84716796875
-53.1005859375
-56.7626953125
-65.00244140625
-71.4111328125
-62.255859375
-65.91796875
-60.4248046875
-59.50927734375
-56.7626953125
-57.67822265625
-63.17138671875
-67.7490234375
-76.904296875
-75.98876953125
-64.0869140625
-59.50927734375
-56.7626953125
-43.9453125
-49.4384765625
-54.931640625
-53.1005859375
-54.01611328125
-55.84716796875
-58.59375
-61.34033203125
-64.0869140625
-70.49560546875
-69.580078125
-67.7490234375
-56.7626953125
-49.4384765625
-60.4248046875
-62.255859375
-52.18505859375
-49.4384765625
-52.18505859375
-47.607421875
-43.02978515625
-38.4521484375
-45.7763671875
-53.1005859375
-42.1142578125
-44.86083984375
-44.86083984375
-37.53662109375
-36.62109375
-36.62109375
-36.62109375
-35.70556640625
-38.4521484375
-28.38134765625
-30.21240234375
-22.88818359375
-25.634765625
-28.38134765625
-22.88818359375
-26.55029296875
-21.05712890625
-15.56396484375
-17.39501953125
-20.1416015625
-9.1552734375
-11.90185546875
-14.6484375
-10.986328125
-10.986328125
0.91552734375
4.57763671875
1.8310546875
10.07080078125
19.22607421875
14.6484375
18.310546875
23.8037109375
33.87451171875
37.53662109375
39.36767578125
43.02978515625
44.86083984375
46.69189453125
41.19873046875
43.02978515625
46.69189453125
52.18505859375
54.01611328125
61.34033203125
68.66455078125
77.81982421875
75.98876953125
76.904296875
75.98876953125
71.4111328125
83.31298828125
82.3974609375
86.0595703125
92.46826171875
92.46826171875
101.62353515625
102.5390625
93.3837890625
93.3837890625
90.63720703125
84.228515625
81.48193359375
79.65087890625
75.0732421875
65.91796875
48.52294921875
47.607421875
52.18505859375
38.4521484375
16.4794921875
-5.4931640625
-10.986328125
-2.74658203125
-4.57763671875
-10.07080078125
-11.90185546875
-12.8173828125
-23.8037109375
-28.38134765625
-44.86083984375
-46.69189453125
-43.02978515625
-46.69189453125
-54.01611328125
-68.66455078125
-55.84716796875
-63.17138671875
-71.4111328125
-70.49560546875
-81.48193359375
-80.56640625
-72.32666015625
-76.904296875
-91.552734375
-86.97509765625
-85.14404296875
-86.97509765625
-84.228515625
-84.228515625
-89.7216796875
-96.13037109375
-92.46826171875
-93.3837890625
-94.29931640625
-89.7216796875
-88.80615234375
-92.46826171875
-86.0595703125
-95.21484375
-95.21484375
-95.21484375
-91.552734375
-95.21484375
-93.3837890625
-91.552734375
-93.3837890625
-91.552734375
-84.228515625
-92.46826171875
-100.7080078125
-101.62353515625
-98.876953125
-94.29931640625
-80.56640625
-75.0732421875
-69.580078125
-74.15771484375
-83.31298828125
-86.0595703125
-86.0595703125
-83.31298828125
-87.890625
-82.3974609375
-93.3837890625
-96.13037109375
-94.29931640625
-93.3837890625
-90.63720703125
-92.46826171875
-91.552734375
-81.48193359375
-88.80615234375
-88.80615234375
-71.4111328125
-67.7490234375
-62.255859375
-68.66455078125
-65.91796875
-69.580078125
-65.00244140625
-77.81982421875
-84.228515625
-78.7353515625
-74.15771484375
-68.66455078125
-69.580078125
-84.228515625
-93.3837890625
-83.31298828125
-85.14404296875
-91.552734375
-98.876953125
-97.96142578125
-92.46826171875
-97.96142578125
-90.63720703125
-95.21484375
-91.552734375
-90.63720703125
-87.890625
-86.0595703125
-91.552734375
-95.21484375
-88.80615234375
-88.80615234375
-86.97509765625
-86.97509765625
-87.890625
-92.46826171875
-97.96142578125
-101.62353515625
-100.7080078125
-98.876953125
-100.7080078125
-98.876953125
-104.3701171875
-102.5390625
-97.96142578125
-108.0322265625
-103.45458984375
-108.94775390625
-106.201171875
-101.62353515625
-92.46826171875
-94.29931640625
-97.0458984375
-96.13037109375
-103.45458984375
-104.3701171875
-107.11669921875
-110.77880859375
-111.6943359375
-112.60986328125
-105.28564453125
-99.79248046875
-106.201171875
-116.27197265625
-115.3564453125
-113.525390625
-116.27197265625
-127.25830078125
-121.76513671875
-114.44091796875
-110.77880859375
-108.94775390625
-105.28564453125
-112.60986328125
-112.60986328125
-113.525390625
-108.94775390625
-112.60986328125
-114.44091796875
-112.60986328125
-111.6943359375
-111.6943359375
-111.6943359375
-115.3564453125
-111.6943359375
-107.11669921875
-104.3701171875
-104.3701171875
-106.201171875
-107.11669921875
-111.6943359375
-118.10302734375
-120.849609375
-127.25830078125
-124.51171875
-123.59619140625
-122.6806640625
-122.6806640625
-117.1875
-112.60986328125
-103.45458984375
-108.0322265625
-112.60986328125
-113.525390625
-110.77880859375
-113.525390625
-106.201171875
-108.0322265625
-107.11669921875
-105.28564453125
-87.890625
-71.4111328125
-85.14404296875
-93.3837890625
-90.63720703125
-89.7216796875
-86.97509765625
-59.50927734375
-56.7626953125
-44.86083984375
-38.4521484375
-41.19873046875
-46.69189453125
-42.1142578125
-59.50927734375
-60.4248046875
-54.01611328125
-61.34033203125
-58.59375
-49.4384765625
-47.607421875
-50.35400390625
-62.255859375
-78.7353515625
-89.7216796875
-96.13037109375
-102.5390625
-104.3701171875
-105.28564453125
-110.77880859375
-119.0185546875
-121.76513671875
-124.51171875
-128.173828125
-140.07568359375
-143.73779296875
-146.484375
-144.6533203125
-139.16015625
-131.8359375
-130.0048828125
-128.173828125
-134.58251953125
-136.41357421875
-131.8359375
-131.8359375
-127.25830078125
-132.75146484375
-132.75146484375
-130.0048828125
-130.0048828125
-126.3427734375
-125.42724609375
-126.3427734375
-129.08935546875
-129.08935546875
-130.92041015625
-138.24462890625
-143.73779296875
-139.16015625
-120.849609375
-120.849609375
-124.51171875
-131.8359375
-132.75146484375
-131.8359375
-125.42724609375
-133.6669921875
-144.6533203125
-153.80859375
-161.1328125
-159.3017578125
-137.3291015625
-115.3564453125
-75.98876953125
-10.986328125
78.7353515625
206.9091796875
329.58984375
463.2568359375
600.5859375
694.88525390625
769.04296875
883.48388671875
1030.8837890625
1111.4501953125
1127.9296875
1084.89990234375
921.0205078125
618.896484375
290.22216796875
32.04345703125
-128.173828125
-134.58251953125
-98.876953125
-76.904296875
-79.65087890625
-78.7353515625
-53.1005859375
-36.62109375
-24.71923828125
-32.958984375
-42.1142578125
-48.52294921875
-51.26953125
-54.01611328125
-62.255859375
-61.34033203125
-66.83349609375
-67.7490234375
-71.4111328125
-82.3974609375
-81.48193359375
-77.81982421875
-73.2421875
-74.15771484375
-70.49560546875
-84.228515625
-92.46826171875
-86.0595703125
-83.31298828125
-86.0595703125
-81.48193359375
-75.98876953125
-78.7353515625
-79.65087890625
-75.0732421875
-74.15771484375
-78.7353515625
-80.56640625
-84.228515625
-70.49560546875
-77.81982421875
-82.3974609375
-80.56640625
-74.15771484375
-73.2421875
-63.17138671875
-60.4248046875
-59.50927734375
-61.34033203125
-65.00244140625
-59.50927734375
-62.255859375
-66.83349609375
-65.91796875
-57.67822265625
-56.7626953125
-51.26953125
-45.7763671875
-50.35400390625
-54.01611328125
-45.7763671875
-44.86083984375
-50.35400390625
-44.86083984375
-40.283203125
-34.7900390625
-30.21240234375
-37.53662109375
-41.19873046875
-43.02978515625
-32.958984375
-32.04345703125
-33.87451171875
-33.87451171875
-35.70556640625
-35.70556640625
-33.87451171875
-28.38134765625
-25.634765625
-22.88818359375
-20.1416015625
-23.8037109375
-23.8037109375
-16.4794921875
-10.07080078125
0.91552734375
8.23974609375
3.662109375
3.662109375
6.40869140625
14.6484375
13.73291015625
10.07080078125
12.8173828125
25.634765625
35.70556640625
37.53662109375
43.02978515625
44.86083984375
46.69189453125
46.69189453125
52.18505859375
51.26953125
54.01611328125
48.52294921875
48.52294921875
53.1005859375
58.59375
62.255859375
68.66455078125
75.0732421875
77.81982421875
84.228515625
85.14404296875
85.14404296875
77.81982421875
78.7353515625
86.97509765625
90.63720703125
92.46826171875
90.63720703125
89.7216796875
85.14404296875
86.97509765625
87.890625
86.97509765625
81.48193359375
67.7490234375
55.84716796875
49.4384765625
43.9453125
40.283203125
39.36767578125
36.62109375
30.21240234375
21.97265625
15.56396484375
12.8173828125
5.4931640625
-0.91552734375
-9.1552734375
-14.6484375
-21.05712890625
-27.4658203125
-26.55029296875
-49.4384765625
-52.18505859375
-46.69189453125
-47.607421875
-49.4384765625
-47.607421875
-47.607421875
-53.1005859375
-45.7763671875
-47.607421875
-55.84716796875
-55.84716796875
-54.931640625
-55.84716796875
-56.7626953125
-56.7626953125
-67.7490234375
-67.7490234375
-73.2421875
-70.49560546875
-70.49560546875
-61.34033203125
-65.00244140625
-70.49560546875
-74.15771484375
-76.904296875
-71.4111328125
-70.49560546875
-73.2421875
-71.4111328125
-71.4111328125
-71.4111328125
-74.15771484375
-65.00244140625
-65.91796875
-66.83349609375
-66.83349609375
-63.17138671875
-67.7490234375
-64.0869140625
-63.17138671875
-61.34033203125
-61.34033203125
-62.255859375
-59.50927734375
-54.01611328125
-54.931640625
-60.4248046875
-60.4248046875
-70.49560546875
-65.91796875
-63.17138671875
-53.1005859375
-51.26953125
-53.1005859375
-54.01611328125
-52.18505859375
-43.9453125
-49.4384765625
-54.01611328125
-59.50927734375
-49.4384765625
-49.4384765625
-50.35400390625
-48.52294921875
-43.02978515625
-39.36767578125
-46.69189453125
-42.1142578125
-33.87451171875
-32.958984375
-38.4521484375
-39.36767578125
-44.86083984375
-49.4384765625
-46.69189453125
-45.7763671875
-49.4384765625
-46.69189453125
-47.607421875
-44.86083984375
-40.283203125
-43.9453125
-42.1142578125
-53.1005859375
-58.59375
-62.255859375
-54.931640625
-50.35400390625
-45.7763671875
-43.9453125
-44.86083984375
-42.1142578125
-39.36767578125
-45.7763671875
-56.7626953125
-53.1005859375
-50.35400390625
-52.18505859375
-47.607421875
-48.52294921875
-51.26953125
-58.59375
-65.91796875
-61.34033203125
-62.255859375
-58.59375
-62.255859375
-59.50927734375
-55.84716796875
-46.69189453125
-52.18505859375
-50.35400390625
-49.4384765625
-50.35400390625
-45.7763671875
-54.931640625
-67.7490234375
-71.4111328125
-65.91796875
-57.67822265625
-52.18505859375
-49.4384765625
-52.18505859375
-56.7626953125
-58.59375
-62.255859375
-70.49560546875
-59.50927734375
-52.18505859375
-49.4384765625
-44.86083984375
-46.69189453125
-47.607421875
-46.69189453125
-50.35400390625
-55.84716796875
-55.84716796875
-64.0869140625
-54.931640625
-52.18505859375
-56.7626953125
-60.4248046875
-59.50927734375
-63.17138671875
-56.7626953125
-51.26953125
-46.69189453125
-49.4384765625
-47.607421875
-51.26953125
-54.931640625
-56.7626953125
-51.26953125
-51.26953125
-52.18505859375
-56.7626953125
-57.67822265625
-54.01611328125
-51.26953125
-51.26953125
-65.91796875
-69.580078125
-74.15771484375
-79.65087890625
-76.904296875
-69.580078125
-66.83349609375
-63.17138671875
-60.4248046875
-55.84716796875
-61.34033203125
-57.67822265625
-56.7626953125
-50.35400390625
-45.7763671875
-45.7763671875
-47.607421875
-50.35400390625
-54.01611328125
-52.18505859375
-54.01611328125
-58.59375
-65.00244140625
-66.83349609375
-65.91796875
-56.7626953125
-52.18505859375
-57.67822265625
-60.4248046875
-51.26953125
-39.36767578125
-42.1142578125
-15.56396484375
-10.07080078125
-11.90185546875
-17.39501953125
-27.4658203125
-30.21240234375
-22.88818359375
-7.32421875
-0.91552734375
11.90185546875
13.73291015625
12.8173828125
10.07080078125
15.56396484375
17.39501953125
10.986328125
5.4931640625
-9.1552734375
-4.57763671875
-5.4931640625
-14.6484375
-3.662109375
-0.91552734375
-5.4931640625
-12.8173828125
-25.634765625
-32.958984375
-36.62109375
-39.36767578125
-47.607421875
-53.1005859375
-52.18505859375
-62.255859375
-60.4248046875
-59.50927734375
-73.2421875
-76.904296875
-83.31298828125
-79.65087890625
-69.580078125
-76.904296875
-84.228515625
-83.31298828125
-81.48193359375
-86.97509765625
-86.97509765625
-79.65087890625
-73.2421875
-66.83349609375
-66.83349609375
-68.66455078125
-74.15771484375
-78.7353515625
-75.98876953125
-82.3974609375
-85.14404296875
-90.63720703125
-87.890625
-86.97509765625
-83.31298828125
-86.0595703125
-72.32666015625
-63.17138671875
-59.50927734375
-63.17138671875
-69.580078125
-74.15771484375
-81.48193359375
-92.46826171875
-92.46826171875
-96.13037109375
-92.46826171875
-76.904296875
-52.18505859375
-8.23974609375
60.4248046875
166.6259765625
272.8271484375
383.60595703125
511.77978515625
627.13623046875
721.435546875
826.72119140625
954.89501953125
1082.1533203125
1141.66259765625
1148.0712890625
1071.1669921875
856.93359375
544.73876953125
283.8134765625
54.931640625
-55.84716796875
-58.59375
-30.21240234375
-26.55029296875
-16.4794921875
13.73291015625
28.38134765625
28.38134765625
24.71923828125
8.23974609375
7.32421875
10.07080078125
6.40869140625
5.4931640625
6.40869140625
0.91552734375
-0.91552734375
-1.8310546875
-7.32421875
-13.73291015625
-18.310546875
-26.55029296875
-28.38134765625
-28.38134765625
-32.04345703125
-33.87451171875
-29.296875
-24.71923828125
-12.8173828125
-11.90185546875
-18.310546875
-27.4658203125
-24.71923828125
-23.8037109375
-21.97265625
-21.97265625
-23.8037109375
-22.88818359375
-20.1416015625
-13.73291015625
-21.97265625
-21.97265625
-25.634765625
-23.8037109375
-19.22607421875
-17.39501953125
-27.4658203125
-24.71923828125
-19.22607421875
-21.05712890625
-13.73291015625
-10.986328125
-1.8310546875
-2.74658203125
-3.662109375
-0.91552734375
-1.8310546875
-4.57763671875
-8.23974609375
-2.74658203125
1.8310546875
2.74658203125
-1.8310546875
-4.57763671875
-7.32421875
-2.74658203125
1.8310546875
6.40869140625
6.40869140625
8.23974609375
8.23974609375
7.32421875
9.1552734375
7.32421875
12.8173828125
8.23974609375
15.56396484375
17.39501953125
20.1416015625
31.1279296875
32.04345703125
34.7900390625
34.7900390625
43.9453125
47.607421875
54.01611328125
49.4384765625
53.1005859375
58.59375
56.7626953125
55.84716796875
60.4248046875
65.00244140625
71.4111328125
72.32666015625
77.81982421875
79.65087890625
86.0595703125
89.7216796875
86.0595703125
95.21484375
104.3701171875
108.0322265625
107.11669921875
100.7080078125
97.96142578125
104.3701171875
113.525390625
125.42724609375
130.0048828125
138.24462890625
138.24462890625
140.9912109375
142.822265625
144.6533203125
142.822265625
140.07568359375
141.90673828125
143.73779296875
155.6396484375
155.6396484375
155.6396484375
156.55517578125
151.9775390625
148.3154296875
148.3154296875
137.3291015625
122.6806640625
110.77880859375
101.62353515625
106.201171875
108.0322265625
98.876953125
89.7216796875
87.890625
83.31298828125
73.2421875
60.4248046875
45.7763671875
37.53662109375
27.4658203125
25.634765625
23.8037109375
18.310546875
0.91552734375
-8.23974609375
-5.4931640625
-7.32421875
-6.40869140625
-9.1552734375
-15.56396484375
-16.4794921875
-25.634765625
-30.21240234375
-31.1279296875
-28.38134765625
-22.88818359375
-26.55029296875
-23.8037109375
-25.634765625
-32.958984375
-35.70556640625
-33.87451171875
-34.7900390625
-31.1279296875
-36.62109375
-38.4521484375
-32.958984375
-34.7900390625
-39.36767578125
-34.7900390625
-41.19873046875
-47.607421875
-46.69189453125
-35.70556640625
-30.21240234375
-28.38134765625
-31.1279296875
-31.1279296875
-29.296875
-37.53662109375
-34.7900390625
-31.1279296875
-42.1142578125
-46.69189453125
-33.87451171875
-20.1416015625
-32.04345703125
-36.62109375
-29.296875
-22.88818359375
-21.97265625
-24.71923828125
-24.71923828125
-22.88818359375
-24.71923828125
-28.38134765625
-31.1279296875
-27.4658203125
-29.296875
-21.97265625
-23.8037109375
-22.88818359375
-18.310546875
-21.05712890625
-21.97265625
-17.39501953125
-10.986328125
-16.4794921875
-8.23974609375
-9.1552734375
-10.986328125
-9.1552734375
-10.986328125
-10.986328125
-14.6484375
-22.88818359375
-31.1279296875
-37.53662109375
-30.21240234375
-25.634765625
-13.73291015625
-5.4931640625
-14.6484375
-10.986328125
-17.39501953125
-19.22607421875
-21.05712890625
-16.4794921875
-18.310546875
-16.4794921875
-25.634765625
-33.87451171875
-32.958984375
-39.36767578125
-40.283203125
-30.21240234375
-27.4658203125
-21.05712890625
-20.1416015625
-13.73291015625
-10.07080078125
-13.73291015625
-19.22607421875
-16.4794921875
-19.22607421875
-21.05712890625
-24.71923828125
-31.1279296875
-29.296875
-27.4658203125
-26.55029296875
-30.21240234375
-32.04345703125
-34.7900390625
-33.87451171875
-39.36767578125
-40.283203125
-34.7900390625
-33.87451171875
-30.21240234375
-23.8037109375
-26.55029296875
-36.62109375
-43.9453125
-39.36767578125
-34.7900390625
-32.04345703125
-29.296875
-34.7900390625
-42.1142578125
-43.9453125
-45.7763671875
-45.7763671875
-41.19873046875
-38.4521484375
-32.04345703125
-31.1279296875
-29.296875
-30.21240234375
-36.62109375
-34.7900390625
-36.62109375
-46.69189453125
-40.283203125
-35.70556640625
-37.53662109375
-34.7900390625
-29.296875
-24.71923828125
-25.634765625
-28.38134765625
-29.296875
-28.38134765625
-35.70556640625
-35.70556640625
-39.36767578125
-35.70556640625
-33.87451171875
-37.53662109375
-50.35400390625
-48.52294921875
-47.607421875
-49.4384765625
-51.26953125
-48.52294921875
-49.4384765625
-46.69189453125
-40.283203125
-30.21240234375
-29.296875
-36.62109375
-34.7900390625
-37.53662109375
-50.35400390625
-44.86083984375
-46.69189453125
-46.69189453125
-38.4521484375
-36.62109375
-35.70556640625
-39.36767578125
-34.7900390625
-35.70556640625
-37.53662109375
-46.69189453125
-47.607421875
-46.69189453125
-48.52294921875
-49.4384765625
-54.01611328125
-54.01611328125
-46.69189453125
-39.36767578125
-38.4521484375
-38.4521484375
-41.19873046875
-39.36767578125
-29.296875
-11.90185546875
-4.57763671875
4.57763671875
5.4931640625
-0.91552734375
-0.91552734375
-10.986328125
-11.90185546875
-2.74658203125
7.32421875
20.1416015625
23.8037109375
29.296875
35.70556640625
38.4521484375
36.62109375
16.4794921875
14.6484375
12.8173828125
8.23974609375
19.22607421875
24.71923828125
9.1552734375
-3.662109375
-1.8310546875
-6.40869140625
-13.73291015625
-11.90185546875
-15.56396484375
-22.88818359375
-26.55029296875
-32.958984375
-43.02978515625
-54.01611328125
-57.67822265625
-64.0869140625
-66.83349609375
-63.17138671875
-57.67822265625
-60.4248046875
-63.17138671875
-56.7626953125
-55.84716796875
-60.4248046875
-62.255859375
-62.255859375
-62.255859375
-69.580078125
-66.83349609375
-65.00244140625
-59.50927734375
-69.580078125
-72.32666015625
-72.32666015625
-70.49560546875
-74.15771484375
-70.49560546875
-67.7490234375
-68.66455078125
-66.83349609375
-60.4248046875
-57.67822265625
-61.34033203125
-65.00244140625
-68.66455078125
-70.49560546875
-65.00244140625
-65.00244140625
-60.4248046875
-65.91796875
-74.15771484375
-81.48193359375
-86.0595703125
-92.46826171875
-93.3837890625
-65.00244140625
-34.7900390625
9.1552734375
88.80615234375
190.4296875
295.71533203125
409.24072265625
549.31640625
657.3486328125
744.32373046875
855.1025390625
989.68505859375
1110.53466796875
1163.63525390625
1158.14208984375
1058.349609375
820.3125
501.708984375
251.77001953125
41.19873046875
-43.02978515625
-44.86083984375
-19.22607421875
-22.88818359375
-7.32421875
18.310546875
40.283203125
47.607421875
45.7763671875
29.296875
29.296875
19.22607421875
10.07080078125
5.4931640625
-1.8310546875
-6.40869140625
-8.23974609375
-9.1552734375
-16.4794921875
-16.4794921875
-16.4794921875
-18.310546875
-25.634765625
-20.1416015625
-16.4794921875
-18.310546875
-24.71923828125
-21.97265625
-23.8037109375
-24.71923828125
-32.958984375
-34.7900390625
-39.36767578125
-32.958984375
-32.04345703125
-34.7900390625
-34.7900390625
-29.296875
-19.22607421875
-12.8173828125
-14.6484375
-10.986328125
-18.310546875
-21.97265625
-19.22607421875
-16.4794921875
-15.56396484375
-25.634765625
-22.88818359375
-10.986328125
-17.39501953125
-10.986328125
-15.56396484375
-16.4794921875
-10.07080078125
-12.8173828125
-10.986328125
-2.74658203125
-1.8310546875
-5.4931640625
-1.8310546875
-4.57763671875
-7.32421875
-10.07080078125
-17.39501953125
-19.22607421875
-8.23974609375
-2.74658203125
-1.8310546875
1.8310546875
9.1552734375
10.986328125
12.8173828125
8.23974609375
7.32421875
12.8173828125
14.6484375
15.56396484375
10.07080078125
8.23974609375
15.56396484375
20.1416015625
25.634765625
27.4658203125
26.55029296875
24.71923828125
28.38134765625
32.958984375
37.53662109375
37.53662109375
41.19873046875
44.86083984375
47.607421875
50.35400390625
56.7626953125
54.931640625
55.84716796875
63.17138671875
65.00244140625
63.17138671875
67.7490234375
75.98876953125
84.228515625
85.14404296875
93.3837890625
101.62353515625
115.3564453125
122.6806640625
127.25830078125
125.42724609375
122.6806640625
127.25830078125
126.3427734375
124.51171875
133.6669921875
141.90673828125
142.822265625
144.6533203125
142.822265625
141.90673828125
139.16015625
140.9912109375
138.24462890625
135.498046875
139.16015625
129.08935546875
128.173828125
121.76513671875
109.86328125
97.96142578125
92.46826171875
97.96142578125
89.7216796875
74.15771484375
59.50927734375
60.4248046875
52.18505859375
46.69189453125
42.1142578125
31.1279296875
21.05712890625
4.57763671875
3.662109375
0
-6.40869140625
-2.74658203125
-9.1552734375
-10.07080078125
-23.8037109375
-25.634765625
-28.38134765625
-37.53662109375
-43.02978515625
-49.4384765625
-47.607421875
-47.607421875
-43.9453125
-43.02978515625
-34.7900390625
-34.7900390625
-38.4521484375
-40.283203125
-37.53662109375
-43.02978515625
-47.607421875
-46.69189453125
-46.69189453125
-47.607421875
-44.86083984375
-54.931640625
-60.4248046875
-58.59375
-59.50927734375
-65.00244140625
-65.91796875
-55.84716796875
-61.34033203125
-64.0869140625
-67.7490234375
-54.931640625
-51.26953125
-54.01611328125
-48.52294921875
-39.36767578125
-39.36767578125
-40.283203125
-40.283203125
-46.69189453125
-41.19873046875
-37.53662109375
-36.62109375
-39.36767578125
-40.283203125
-43.02978515625
-44.86083984375
-44.86083984375
-45.7763671875
-41.19873046875
-42.1142578125
-40.283203125
-49.4384765625
-47.607421875
-51.26953125
-49.4384765625
-46.69189453125
-43.9453125
-42.1142578125
-38.4521484375
-40.283203125
-43.9453125
-49.4384765625
-43.9453125
-53.1005859375
-55.84716796875
-64.0869140625
-53.1005859375
-44.86083984375
-41.19873046875
-40.283203125
-40.283203125
-41.19873046875
-43.02978515625
-41.19873046875
-41.19873046875
-39.36767578125
-44.86083984375
-52.18505859375
-52.18505859375
-44.86083984375
-43.02978515625
-43.9453125
-45.7763671875
-44.86083984375
-46.69189453125
-57.67822265625
-54.01611328125
-55.84716796875
-54.931640625
-48.52294921875
-45.7763671875
-49.4384765625
-54.01611328125
-46.69189453125
-54.01611328125
-58.59375
-61.34033203125
-64.0869140625
-64.0869140625
-66.83349609375
-64.0869140625
-69.580078125
-64.0869140625
-59.50927734375
-61.34033203125
-60.4248046875
-62.255859375
-67.7490234375
-65.91796875
-56.7626953125
-60.4248046875
-65.91796875
-63.17138671875
-65.91796875
-65.91796875
-68.66455078125
-71.4111328125
-72.32666015625
-75.98876953125
-75.0732421875
-74.15771484375
-75.98876953125
-81.48193359375
-78.7353515625
-75.98876953125
-71.4111328125
-77.81982421875
-67.7490234375
-69.580078125
-71.4111328125
-69.580078125
-88.80615234375
-85.14404296875
-86.0595703125
-86.0595703125
-88.80615234375
-88.80615234375
-87.890625
-79.65087890625
-76.904296875
-78.7353515625
-82.3974609375
-83.31298828125
-75.98876953125
-77.81982421875
-87.890625
-85.14404296875
-85.14404296875
-79.65087890625
-72.32666015625
-73.2421875
-72.32666015625
-76.904296875
-70.49560546875
-72.32666015625
-74.15771484375
-75.98876953125
-73.2421875
-75.98876953125
-78.7353515625
-70.49560546875
-81.48193359375
-82.3974609375
-81.48193359375
-90.63720703125
-86.97509765625
-86.0595703125
-85.14404296875
-86.97509765625
-88.80615234375
-86.97509765625
-83.31298828125
-86.0595703125
-85.14404296875
-79.65087890625
-82.3974609375
-73.2421875
-69.580078125
-75.0732421875
-83.31298828125
-84.228515625
-93.3837890625
-93.3837890625
-86.97509765625
-80.56640625
-75.0732421875
-66.83349609375
-53.1005859375
-44.86083984375
-41.19873046875
-50.35400390625
-45.7763671875
-49.4384765625
-40.283203125
-25.634765625
-23.8037109375
-13.73291015625
-5.4931640625
-0.91552734375
-7.32421875
-15.56396484375
-19.22607421875
-22.88818359375
-24.71923828125
-22.88818359375
-16.4794921875
-11.90185546875
-21.05712890625
-24.71923828125
-31.1279296875
-37.53662109375
-58.59375
-59.50927734375
-60.4248046875
-63.17138671875
-67.7490234375
-79.65087890625
-85.14404296875
-88.80615234375
-88.80615234375
-97.0458984375
-90.63720703125
-97.0458984375
-94.29931640625
-101.62353515625
-97.96142578125
-104.3701171875
-102.5390625
-94.29931640625
-97.0458984375
-97.0458984375
-100.7080078125
-101.62353515625
-102.5390625
-103.45458984375
-102.5390625
-99.79248046875
-107.11669921875
-105.28564453125
-110.77880859375
-108.94775390625
-115.3564453125
-118.10302734375
-113.525390625
-103.45458984375
-111.6943359375
-103.45458984375
-93.3837890625
-93.3837890625
-91.552734375
-85.14404296875
-81.48193359375
-82.3974609375
-89.7216796875
-99.79248046875
-108.0322265625
-118.10302734375
-128.173828125
-132.75146484375
-132.75146484375
-127.25830078125
-109.86328125
-70.49560546875
-24.71923828125
65.00244140625
198.66943359375
313.1103515625
443.115234375
583.19091796875
690.3076171875
770.8740234375
879.82177734375
1028.13720703125
1128.84521484375
1149.90234375
1119.68994140625
982.36083984375
699.462890625
364.3798828125
