ECG
-78.7353515625
-78.7353515625
-84.228515625
-87.890625
-86.97509765625
-86.0595703125
-84.228515625
-80.56640625
-79.65087890625
-84.228515625
-83.31298828125
-82.3974609375
-77.81982421875
-73.2421875
-69.580078125
-73.2421875
-73.2421875
-75.98876953125
-75.0732421875
-69.580078125
-67.7490234375
-66.83349609375
-73.2421875
-70.49560546875
-68.66455078125
-67.7490234375
-64.0869140625
-59.50927734375
-61.34033203125
-58.59375
-60.4248046875
-59.50927734375
-56.7626953125
-54.01611328125
-55.84716796875
-57.67822265625
-53.1005859375
-45.7763671875
-44.86083984375
-47.607421875
-45.7763671875
-44.86083984375
-41.19873046875
-40.283203125
-39.36767578125
-37.53662109375
-38.4521484375
-33.87451171875
-30.21240234375
-34.7900390625
-31.1279296875
-31.1279296875
-28.38134765625
-23.8037109375
-20.1416015625
-13.73291015625
-6.40869140625
-9.1552734375
-9.1552734375
-5.4931640625
-7.32421875
0.91552734375
6.40869140625
10.07080078125
16.4794921875
13.73291015625
18.310546875
22.88818359375
24.71923828125
28.38134765625
30.21240234375
32.04345703125
35.70556640625
37.53662109375
39.36767578125
38.4521484375
43.9453125
43.02978515625
41.19873046875
47.607421875
51.26953125
54.01611328125
54.01611328125
56.7626953125
57.67822265625
61.34033203125
57.67822265625
56.7626953125
53.1005859375
52.18505859375
46.69189453125
40.283203125
35.70556640625
29.296875
22.88818359375
21.97265625
18.310546875
8.23974609375
5.4931640625
-6.40869140625
-10.986328125
-17.39501953125
-21.97265625
-24.71923828125
-37.53662109375
-40.283203125
-43.9453125
-49.4384765625
-55.84716796875
-60.4248046875
-60.4248046875
-68.66455078125
-69.580078125
-73.2421875
-75.98876953125
-77.81982421875
-76.904296875
-83.31298828125
-87.890625
-86.97509765625
-89.7216796875
-95.21484375
-94.29931640625
-97.0458984375
-95.21484375
-93.3837890625
-90.63720703125
-97.0458984375
-100.7080078125
-99.79248046875
-102.5390625
-104.3701171875
-101.62353515625
-101.62353515625
-103.45458984375
-101.62353515625
-101.62353515625
-102.5390625
-99.79248046875
-96.13037109375
-97.96142578125
-99.79248046875
-101.62353515625
-100.7080078125
-98.876953125
-96.13037109375
-97.96142578125
-97.96142578125
-94.29931640625
-93.3837890625
-93.3837890625
-93.3837890625
-92.46826171875
-94.29931640625
-94.29931640625
-93.3837890625
-87.890625
-93.3837890625
-94.29931640625
-93.3837890625
-91.552734375
-92.46826171875
-88.80615234375
-89.7216796875
-90.63720703125
-88.80615234375
-89.7216796875
-89.7216796875
-87.890625
-85.14404296875
-85.14404296875
-85.14404296875
-84.228515625
-82.3974609375
-83.31298828125
-86.0595703125
-85.14404296875
-86.0595703125
-82.3974609375
-85.14404296875
-89.7216796875
-88.80615234375
-89.7216796875
-93.3837890625
-86.97509765625
-85.14404296875
-84.228515625
-86.97509765625
-86.0595703125
-85.14404296875
-81.48193359375
-87.890625
-86.97509765625
-86.0595703125
-86.97509765625
-85.14404296875
-85.14404296875
-86.0595703125
-90.63720703125
-89.7216796875
-91.552734375
-86.97509765625
-86.97509765625
-84.228515625
-87.890625
-88.80615234375
-89.7216796875
-88.80615234375
-93.3837890625
-90.63720703125
-88.80615234375
-91.552734375
-93.3837890625
-91.552734375
-98.876953125
-97.0458984375
-95.21484375
-95.21484375
-98.876953125
-97.0458984375
-97.0458984375
-96.13037109375
-98.876953125
-94.29931640625
-90.63720703125
-93.3837890625
-94.29931640625
-93.3837890625
-91.552734375
-94.29931640625
-97.96142578125
-96.13037109375
-100.7080078125
-100.7080078125
-97.96142578125
-97.0458984375
-95.21484375
-94.29931640625
-97.0458984375
-102.5390625
-99.79248046875
-101.62353515625
-100.7080078125
-97.96142578125
-99.79248046875
-97.96142578125
-96.13037109375
-95.21484375
-98.876953125
-97.96142578125
-97.0458984375
-99.79248046875
-99.79248046875
-95.21484375
-97.0458984375
-96.13037109375
-93.3837890625
-95.21484375
-96.13037109375
-97.0458984375
-94.29931640625
-93.3837890625
-92.46826171875
-95.21484375
-97.96142578125
-93.3837890625
-88.80615234375
-95.21484375
-98.876953125
-96.13037109375
-97.96142578125
-99.79248046875
-97.0458984375
-93.3837890625
-97.0458984375
-92.46826171875
-92.46826171875
-93.3837890625
-94.29931640625
-91.552734375
-95.21484375
-93.3837890625
-93.3837890625
-97.0458984375
-97.96142578125
-94.29931640625
-98.876953125
-95.21484375
-94.29931640625
-99.79248046875
-93.3837890625
-94.29931640625
-98.876953125
-95.21484375
-93.3837890625
-92.46826171875
-94.29931640625
-96.13037109375
-97.96142578125
-97.96142578125
-92.46826171875
-91.552734375
-89.7216796875
-90.63720703125
-93.3837890625
-91.552734375
-87.890625
-77.81982421875
-64.0869140625
-54.01611328125
-49.4384765625
-57.67822265625
-59.50927734375
-56.7626953125
-49.4384765625
-47.607421875
-37.53662109375
-31.1279296875
-21.97265625
-19.22607421875
-23.8037109375
-15.56396484375
-18.310546875
-21.05712890625
-30.21240234375
-30.21240234375
-21.97265625
-24.71923828125
-28.38134765625
-32.04345703125
-43.9453125
-51.26953125
-55.84716796875
-63.17138671875
-64.0869140625
-70.49560546875
-82.3974609375
-84.228515625
-86.97509765625
-97.0458984375
-98.876953125
-105.28564453125
-102.5390625
-104.3701171875
-106.201171875
-108.94775390625
-108.94775390625
-106.201171875
-108.94775390625
-111.6943359375
-105.28564453125
-106.201171875
-110.77880859375
-107.11669921875
-102.5390625
-104.3701171875
-106.201171875
-108.0322265625
-108.94775390625
-108.0322265625
-108.94775390625
-108.0322265625
-106.201171875
-109.86328125
-108.0322265625
-105.28564453125
-107.11669921875
-103.45458984375
-106.201171875
-111.6943359375
-108.0322265625
-106.201171875
-103.45458984375
-100.7080078125
-103.45458984375
-115.3564453125
-128.173828125
-135.498046875
-134.58251953125
-123.59619140625
-95.21484375
-59.50927734375
-10.07080078125
78.7353515625
195.00732421875
300.29296875
422.05810546875
549.31640625
647.27783203125
736.99951171875
851.4404296875
982.36083984375
1075.74462890625
1095.88623046875
1077.57568359375
936.58447265625
656.43310546875
338.7451171875
102.5390625
-69.580078125
-101.62353515625
-86.0595703125
-61.34033203125
-58.59375
-43.02978515625
-9.1552734375
6.40869140625
1.8310546875
-5.4931640625
-15.56396484375
-17.39501953125
-24.71923828125
-32.04345703125
-36.62109375
-38.4521484375
-47.607421875
-52.18505859375
-49.4384765625
-48.52294921875
-57.67822265625
-56.7626953125
-57.67822265625
-56.7626953125
-59.50927734375
-61.34033203125
-61.34033203125
-59.50927734375
-60.4248046875
-59.50927734375
-57.67822265625
-56.7626953125
-54.931640625
-59.50927734375
-61.34033203125
-57.67822265625
-56.7626953125
-58.59375
-53.1005859375
-53.1005859375
-51.26953125
-52.18505859375
-54.01611328125
-58.59375
-53.1005859375
-46.69189453125
-49.4384765625
-51.26953125
-51.26953125
-48.52294921875
-50.35400390625
-51.26953125
-47.607421875
-45.7763671875
-45.7763671875
-48.52294921875
-50.35400390625
-47.607421875
-43.02978515625
-39.36767578125
-37.53662109375
-33.87451171875
-30.21240234375
-30.21240234375
-30.21240234375
-28.38134765625
-30.21240234375
-31.1279296875
-28.38134765625
-26.55029296875
-22.88818359375
-21.97265625
-21.97265625
-20.1416015625
-19.22607421875
-12.8173828125
-13.73291015625
-10.07080078125
-10.07080078125
-9.1552734375
-9.1552734375
-9.1552734375
-5.4931640625
-0.91552734375
4.57763671875
6.40869140625
5.4931640625
13.73291015625
20.1416015625
18.310546875
20.1416015625
22.88818359375
29.296875
32.958984375
36.62109375
37.53662109375
36.62109375
40.283203125
43.02978515625
48.52294921875
49.4384765625
59.50927734375
62.255859375
65.91796875
68.66455078125
73.2421875
75.0732421875
77.81982421875
82.3974609375
86.97509765625
89.7216796875
88.80615234375
91.552734375
93.3837890625
96.13037109375
97.96142578125
98.876953125
96.13037109375
98.876953125
97.0458984375
97.96142578125
96.13037109375
90.63720703125
86.0595703125
79.65087890625
83.31298828125
83.31298828125
68.66455078125
60.4248046875
54.01611328125
46.69189453125
39.36767578125
29.296875
22.88818359375
15.56396484375
3.662109375
-0.91552734375
-4.57763671875
-8.23974609375
-18.310546875
-19.22607421875
-24.71923828125
-32.04345703125
-38.4521484375
-40.283203125
-44.86083984375
-47.607421875
-53.1005859375
-56.7626953125
-56.7626953125
-62.255859375
-67.7490234375
-64.0869140625
-63.17138671875
-68.66455078125
-74.15771484375
-70.49560546875
-71.4111328125
-72.32666015625
-71.4111328125
-75.0732421875
-72.32666015625
-74.15771484375
-77.81982421875
-75.0732421875
-80.56640625
-75.0732421875
-72.32666015625
-75.98876953125
-75.98876953125
-72.32666015625
-70.49560546875
-70.49560546875
-72.32666015625
-69.580078125
-68.66455078125
-66.83349609375
-67.7490234375
-66.83349609375
-68.66455078125
-65.00244140625
-65.91796875
-67.7490234375
-67.7490234375
-65.91796875
-64.0869140625
-68.66455078125
-66.83349609375
-67.7490234375
-65.91796875
-63.17138671875
-61.34033203125
-62.255859375
-63.17138671875
-62.255859375
-64.0869140625
-65.00244140625
-63.17138671875
-63.17138671875
-56.7626953125
-54.01611328125
-50.35400390625
-52.18505859375
-55.84716796875
-52.18505859375
-54.01611328125
-54.01611328125
-52.18505859375
-46.69189453125
-54.931640625
-55.84716796875
-50.35400390625
-51.26953125
-50.35400390625
-48.52294921875
-51.26953125
-54.01611328125
-52.18505859375
-52.18505859375
-54.931640625
-53.1005859375
-53.1005859375
-54.01611328125
-54.01611328125
-54.931640625
-55.84716796875
-56.7626953125
-56.7626953125
-54.931640625
-55.84716796875
-59.50927734375
-56.7626953125
-52.18505859375
-53.1005859375
-53.1005859375
-55.84716796875
-57.67822265625
-58.59375
-55.84716796875
-56.7626953125
-55.84716796875
-51.26953125
-56.7626953125
-57.67822265625
-58.59375
-58.59375
-54.01611328125
-59.50927734375
-61.34033203125
-65.91796875
-69.580078125
-68.66455078125
-65.00244140625
-65.00244140625
-63.17138671875
-67.7490234375
-65.91796875
-65.91796875
-64.0869140625
-62.255859375
-63.17138671875
-65.91796875
-65.00244140625
-64.0869140625
-62.255859375
-66.83349609375
-69.580078125
-69.580078125
-68.66455078125
-68.66455078125
-66.83349609375
-66.83349609375
-70.49560546875
-70.49560546875
-66.83349609375
-67.7490234375
-72.32666015625
-68.66455078125
-66.83349609375
-69.580078125
-72.32666015625
-70.49560546875
-69.580078125
-73.2421875
-72.32666015625
-71.4111328125
-71.4111328125
-65.00244140625
-68.66455078125
-70.49560546875
-71.4111328125
-67.7490234375
-65.91796875
-66.83349609375
-69.580078125
-69.580078125
-68.66455078125
-72.32666015625
-71.4111328125
-72.32666015625
-71.4111328125
-70.49560546875
-69.580078125
-69.580078125
-68.66455078125
-71.4111328125
-70.49560546875
-74.15771484375
-75.0732421875
-73.2421875
-72.32666015625
-74.15771484375
-70.49560546875
-64.0869140625
-67.7490234375
-69.580078125
-66.83349609375
-69.580078125
-68.66455078125
-65.91796875
-68.66455078125
-71.4111328125
-73.2421875
-72.32666015625
-69.580078125
-72.32666015625
-73.2421875
-72.32666015625
-70.49560546875
-72.32666015625
-75.98876953125
-69.580078125
-73.2421875
-75.0732421875
-71.4111328125
-66.83349609375
-68.66455078125
-74.15771484375
-72.32666015625
-74.15771484375
-69.580078125
-69.580078125
-70.49560546875
-65.00244140625
-59.50927734375
-54.931640625
-49.4384765625
-42.1142578125
-33.87451171875
-27.4658203125
-30.21240234375
-32.958984375
-32.958984375
-25.634765625
-14.6484375
-10.986328125
-2.74658203125
6.40869140625
8.23974609375
6.40869140625
8.23974609375
2.74658203125
-1.8310546875
-4.57763671875
-4.57763671875
0
-3.662109375
-6.40869140625
-6.40869140625
-13.73291015625
-25.634765625
-35.70556640625
-41.19873046875
-39.36767578125
-45.7763671875
-52.18505859375
-57.67822265625
-63.17138671875
-69.580078125
-76.904296875
-78.7353515625
-81.48193359375
-79.65087890625
-76.904296875
-76.904296875
-78.7353515625
-81.48193359375
-82.3974609375
-80.56640625
-84.228515625
-81.48193359375
-80.56640625
-79.65087890625
-83.31298828125
-84.228515625
-80.56640625
-81.48193359375
-86.0595703125
-86.97509765625
-87.890625
-86.97509765625
-84.228515625
-81.48193359375
-78.7353515625
-75.98876953125
-79.65087890625
-80.56640625
-80.56640625
-78.7353515625
-77.81982421875
-81.48193359375
-83.31298828125
-82.3974609375
-87.890625
-99.79248046875
-106.201171875
-116.27197265625
-119.93408203125
-106.201171875
-79.65087890625
-41.19873046875
10.986328125
94.29931640625
202.33154296875
312.19482421875
431.21337890625
553.89404296875
650.0244140625
736.99951171875
850.52490234375
977.783203125
1078.4912109375
1113.28125
1097.71728515625
968.6279296875
697.6318359375
390.0146484375
160.21728515625
-21.05712890625
-63.17138671875
-54.01611328125
-33.87451171875
-29.296875
-9.1552734375
21.97265625
33.87451171875
32.04345703125
22.88818359375
11.90185546875
4.57763671875
0
-11.90185546875
-18.310546875
-16.4794921875
-15.56396484375
-24.71923828125
-27.4658203125
-26.55029296875
-29.296875
-31.1279296875
-32.04345703125
-30.21240234375
-31.1279296875
-29.296875
-29.296875
-30.21240234375
-30.21240234375
-30.21240234375
-31.1279296875
-32.958984375
-32.04345703125
-30.21240234375
-26.55029296875
-29.296875
-27.4658203125
-27.4658203125
-28.38134765625
-28.38134765625
-27.4658203125
-25.634765625
-25.634765625
-21.05712890625
-23.8037109375
-21.97265625
-21.97265625
-21.05712890625
-21.05712890625
-19.22607421875
-21.05712890625
-17.39501953125
-16.4794921875
-16.4794921875
-20.1416015625
-18.310546875
-16.4794921875
-10.986328125
-9.1552734375
-9.1552734375
-12.8173828125
-8.23974609375
-1.8310546875
-0.91552734375
-1.8310546875
2.74658203125
4.57763671875
0.91552734375
3.662109375
2.74658203125
8.23974609375
10.07080078125
10.986328125
13.73291015625
12.8173828125
18.310546875
17.39501953125
19.22607421875
20.1416015625
26.55029296875
30.21240234375
32.04345703125
33.87451171875
30.21240234375
34.7900390625
40.283203125
37.53662109375
40.283203125
43.9453125
47.607421875
48.52294921875
54.01611328125
57.67822265625
58.59375
62.255859375
67.7490234375
71.4111328125
74.15771484375
75.98876953125
79.65087890625
83.31298828125
89.7216796875
87.890625
91.552734375
99.79248046875
103.45458984375
106.201171875
106.201171875
109.86328125
114.44091796875
119.0185546875
121.76513671875
122.6806640625
125.42724609375
125.42724609375
127.25830078125
129.08935546875
131.8359375
135.498046875
134.58251953125
131.8359375
128.173828125
124.51171875
124.51171875
114.44091796875
109.86328125
103.45458984375
98.876953125
91.552734375
81.48193359375
75.98876953125
67.7490234375
57.67822265625
53.1005859375
48.52294921875
37.53662109375
30.21240234375
21.05712890625
16.4794921875
10.07080078125
0
-3.662109375
-9.1552734375
-12.8173828125
-15.56396484375
-19.22607421875
-24.71923828125
-29.296875
-30.21240234375
-35.70556640625
-41.19873046875
-43.02978515625
-47.607421875
-44.86083984375
-43.9453125
-44.86083984375
-48.52294921875
-52.18505859375
-51.26953125
-52.18505859375
-54.01611328125
-54.01611328125
-50.35400390625
-47.607421875
-51.26953125
-51.26953125
-52.18505859375
-53.1005859375
-48.52294921875
-44.86083984375
-49.4384765625
-54.01611328125
-52.18505859375
-50.35400390625
-51.26953125
-48.52294921875
-47.607421875
-48.52294921875
-51.26953125
-53.1005859375
-50.35400390625
-52.18505859375
-55.84716796875
-53.1005859375
-49.4384765625
-48.52294921875
-46.69189453125
-46.69189453125
-51.26953125
-49.4384765625
-49.4384765625
-48.52294921875
-46.69189453125
-46.69189453125
-45.7763671875
-48.52294921875
-48.52294921875
-46.69189453125
-46.69189453125
-47.607421875
-43.02978515625
-41.19873046875
-41.19873046875
-41.19873046875
-39.36767578125
-40.283203125
-37.53662109375
-35.70556640625
-40.283203125
-41.19873046875
-39.36767578125
-37.53662109375
-36.62109375
-39.36767578125
-39.36767578125
-38.4521484375
-38.4521484375
-35.70556640625
-35.70556640625
-39.36767578125
-38.4521484375
-32.04345703125
-32.04345703125
-38.4521484375
-39.36767578125
-39.36767578125
-40.283203125
-39.36767578125
-35.70556640625
-40.283203125
-43.02978515625
-43.9453125
-42.1142578125
-43.02978515625
-45.7763671875
-44.86083984375
-43.9453125
-43.9453125
-41.19873046875
-43.9453125
-45.7763671875
-45.7763671875
-43.9453125
-43.02978515625
-44.86083984375
-45.7763671875
-47.607421875
-50.35400390625
-48.52294921875
-47.607421875
-47.607421875
-48.52294921875
-50.35400390625
-49.4384765625
-51.26953125
-52.18505859375
-51.26953125
-53.1005859375
-49.4384765625
-48.52294921875
-52.18505859375
-55.84716796875
-54.931640625
-53.1005859375
-52.18505859375
-53.1005859375
-53.1005859375
-52.18505859375
-54.01611328125
-54.931640625
-56.7626953125
-54.931640625
-54.931640625
-53.1005859375
-52.18505859375
-55.84716796875
-54.01611328125
-52.18505859375
-54.931640625
-56.7626953125
-57.67822265625
-63.17138671875
-62.255859375
-63.17138671875
-60.4248046875
-56.7626953125
-54.01611328125
-54.931640625
-59.50927734375
-61.34033203125
-55.84716796875
-54.931640625
-57.67822265625
-55.84716796875
-55.84716796875
-57.67822265625
-63.17138671875
-63.17138671875
-60.4248046875
-59.50927734375
-57.67822265625
-57.67822265625
-61.34033203125
-61.34033203125
-57.67822265625
-61.34033203125
-62.255859375
-62.255859375
-61.34033203125
-61.34033203125
-62.255859375
-63.17138671875
-61.34033203125
-59.50927734375
-62.255859375
-63.17138671875
-59.50927734375
-57.67822265625
-60.4248046875
-60.4248046875
-61.34033203125
-60.4248046875
-57.67822265625
-65.91796875
-65.91796875
-60.4248046875
-57.67822265625
-60.4248046875
-64.0869140625
-64.0869140625
-61.34033203125
-64.0869140625
-62.255859375
-66.83349609375
-65.00244140625
-64.0869140625
-65.00244140625
-64.0869140625
-62.255859375
-62.255859375
-65.91796875
-65.00244140625
-63.17138671875
-57.67822265625
-60.4248046875
-68.66455078125
-66.83349609375
-63.17138671875
-61.34033203125
-57.67822265625
-59.50927734375
-62.255859375
-59.50927734375
-54.01611328125
-45.7763671875
-37.53662109375
-27.4658203125
-22.88818359375
-23.8037109375
-29.296875
-32.04345703125
-26.55029296875
-11.90185546875
-4.57763671875
0.91552734375
14.6484375
20.1416015625
18.310546875
21.97265625
11.90185546875
8.23974609375
1.8310546875
0
5.4931640625
6.40869140625
0.91552734375
-1.8310546875
-10.986328125
-22.88818359375
-28.38134765625
-37.53662109375
-36.62109375
-43.9453125
-46.69189453125
-53.1005859375
-60.4248046875
-67.7490234375
-73.2421875
-78.7353515625
-81.48193359375
-79.65087890625
-80.56640625
-79.65087890625
-80.56640625
-81.48193359375
-80.56640625
-78.7353515625
-84.228515625
-81.48193359375
-83.31298828125
-80.56640625
-82.3974609375
-84.228515625
-87.890625
-86.0595703125
-81.48193359375
-83.31298828125
-84.228515625
-84.228515625
-85.14404296875
-84.228515625
-83.31298828125
-79.65087890625
-80.56640625
-80.56640625
-80.56640625
-79.65087890625
-80.56640625
-80.56640625
-82.3974609375
-87.890625
-86.0595703125
-90.63720703125
-100.7080078125
-108.0322265625
-119.0185546875
-113.525390625
-102.5390625
-80.56640625
-36.62109375
11.90185546875
104.3701171875
218.81103515625
324.0966796875
443.115234375
565.7958984375
657.3486328125
748.9013671875
867.00439453125
997.00927734375
1089.4775390625
1116.02783203125
1090.39306640625
945.73974609375
654.60205078125
353.3935546875
122.6806640625
-52.18505859375
-78.7353515625
-61.34033203125
-44.86083984375
-43.02978515625
-20.1416015625
10.986328125
22.88818359375
19.22607421875
14.6484375
7.32421875
-3.662109375
-12.8173828125
-18.310546875
-27.4658203125
-33.87451171875
-33.87451171875
-37.53662109375
-40.283203125
-42.1142578125
-38.4521484375
-38.4521484375
-43.02978515625
-46.69189453125
-45.7763671875
-48.52294921875
-50.35400390625
-47.607421875
-43.02978515625
-43.02978515625
-47.607421875
-48.52294921875
-50.35400390625
-49.4384765625
-44.86083984375
-43.02978515625
-47.607421875
-47.607421875
-48.52294921875
-45.7763671875
-47.607421875
-48.52294921875
-48.52294921875
-47.607421875
-46.69189453125
-46.69189453125
-43.02978515625
-41.19873046875
-40.283203125
-40.283203125
-43.02978515625
-42.1142578125
-38.4521484375
-39.36767578125
-35.70556640625
-37.53662109375
-38.4521484375
-35.70556640625
-33.87451171875
-36.62109375
-31.1279296875
-30.21240234375
-27.4658203125
-27.4658203125
-29.296875
-26.55029296875
-25.634765625
-24.71923828125
-20.1416015625
-20.1416015625
-18.310546875
-20.1416015625
-18.310546875
-14.6484375
-10.986328125
-9.1552734375
-8.23974609375
-7.32421875
-5.4931640625
0.91552734375
0.91552734375
-2.74658203125
0
5.4931640625
6.40869140625
4.57763671875
7.32421875
10.986328125
13.73291015625
21.05712890625
21.97265625
24.71923828125
30.21240234375
32.958984375
33.87451171875
34.7900390625
40.283203125
43.9453125
49.4384765625
51.26953125
54.01611328125
56.7626953125
58.59375
59.50927734375
70.49560546875
76.904296875
76.904296875
77.81982421875
80.56640625
86.0595703125
90.63720703125
95.21484375
97.96142578125
104.3701171875
102.5390625
100.7080078125
105.28564453125
102.5390625
100.7080078125
100.7080078125
104.3701171875
105.28564453125
98.876953125
97.96142578125
91.552734375
85.14404296875
83.31298828125
77.81982421875
66.83349609375
63.17138671875
48.52294921875
38.4521484375
29.296875
20.1416015625
16.4794921875
7.32421875
0.91552734375
-5.4931640625
-11.90185546875
-18.310546875
-29.296875
-35.70556640625
-40.283203125
-40.283203125
-44.86083984375
-47.607421875
-52.18505859375
-54.931640625
-59.50927734375
-62.255859375
-65.91796875
-67.7490234375
-65.00244140625
-69.580078125
-72.32666015625
-75.98876953125
-79.65087890625
-81.48193359375
-85.14404296875
-81.48193359375
-80.56640625
-82.3974609375
-81.48193359375
-79.65087890625
-78.7353515625
-80.56640625
-85.14404296875
-86.0595703125
-83.31298828125
-85.14404296875
-85.14404296875
-80.56640625
-76.904296875
-77.81982421875
-76.904296875
-80.56640625
-78.7353515625
-78.7353515625
-80.56640625
-77.81982421875
-75.98876953125
-80.56640625
-79.65087890625
-75.98876953125
-71.4111328125
-77.81982421875
-75.98876953125
-80.56640625
-83.31298828125
-76.904296875
-75.0732421875
-76.904296875
-77.81982421875
-78.7353515625
-75.0732421875
-75.98876953125
-69.580078125
-75.0732421875
-68.66455078125
-68.66455078125
-70.49560546875
-74.15771484375
-75.98876953125
-75.0732421875
-68.66455078125
-68.66455078125
-71.4111328125
-73.2421875
-72.32666015625
-70.49560546875
-69.580078125
-72.32666015625
-75.0732421875
-71.4111328125
-75.98876953125
-75.0732421875
-67.7490234375
-75.0732421875
-72.32666015625
-74.15771484375
-76.904296875
-76.904296875
-78.7353515625
-75.0732421875
-75.98876953125
-73.2421875
-75.0732421875
-71.4111328125
-75.0732421875
-74.15771484375
-74.15771484375
-72.32666015625
-78.7353515625
-80.56640625
-75.98876953125
-76.904296875
-85.14404296875
-86.0595703125
-82.3974609375
-86.0595703125
-85.14404296875
-85.14404296875
-80.56640625
-77.81982421875
-75.98876953125
-82.3974609375
-84.228515625
-82.3974609375
-85.14404296875
-84.228515625
-82.3974609375
-89.7216796875
-89.7216796875
-90.63720703125
-88.80615234375
-90.63720703125
-86.0595703125
-87.890625
-91.552734375
-90.63720703125
-86.0595703125
-89.7216796875
-90.63720703125
-95.21484375
-97.96142578125
-97.96142578125
-96.13037109375
-91.552734375
-87.890625
-85.14404296875
-85.14404296875
-87.890625
-94.29931640625
-100.7080078125
-92.46826171875
-87.890625
-87.890625
-100.7080078125
-99.79248046875
-93.3837890625
-88.80615234375
-91.552734375
-96.13037109375
-97.0458984375
-93.3837890625
-87.890625
-96.13037109375
-100.7080078125
-99.79248046875
-97.96142578125
-97.0458984375
-101.62353515625
-100.7080078125
-95.21484375
-100.7080078125
-98.876953125
-94.29931640625
-96.13037109375
-103.45458984375
-100.7080078125
-97.0458984375
-105.28564453125
-102.5390625
-97.0458984375
-96.13037109375
-97.0458984375
-102.5390625
-100.7080078125
-102.5390625
-101.62353515625
-104.3701171875
-102.5390625
-104.3701171875
-104.3701171875
-101.62353515625
-98.876953125
-91.552734375
-96.13037109375
-100.7080078125
-101.62353515625
-105.28564453125
-101.62353515625
-96.13037109375
-103.45458984375
-100.7080078125
-103.45458984375
-102.5390625
-95.21484375
-103.45458984375
-107.11669921875
-99.79248046875
-98.876953125
-102.5390625
-97.0458984375
-90.63720703125
-99.79248046875
-99.79248046875
-95.21484375
-94.29931640625
-86.97509765625
-80.56640625
-72.32666015625
-70.49560546875
-74.15771484375
-74.15771484375
-69.580078125
-58.59375
-49.4384765625
-47.607421875
-39.36767578125
-21.05712890625
-24.71923828125
-24.71923828125
-29.296875
-29.296875
-29.296875
-40.283203125
-47.607421875
-44.86083984375
-49.4384765625
-48.52294921875
-50.35400390625
-59.50927734375
-71.4111328125
-78.7353515625
-88.80615234375
-84.228515625
-84.228515625
-99.79248046875
-103.45458984375
-98.876953125
-106.201171875
-111.6943359375
-117.1875
-119.93408203125
-121.76513671875
-122.6806640625
-121.76513671875
-122.6806640625
-122.6806640625
-118.10302734375
-124.51171875
-119.93408203125
-119.93408203125
-124.51171875
-127.25830078125
-122.6806640625
-127.25830078125
-127.25830078125
-130.92041015625
-126.3427734375
-121.76513671875
-126.3427734375
-125.42724609375
-121.76513671875
-120.849609375
-120.849609375
-123.59619140625
-119.0185546875
-111.6943359375
-111.6943359375
-111.6943359375
-119.0185546875
-119.0185546875
-122.6806640625
-128.173828125
-130.0048828125
-131.8359375
-145.56884765625
-156.55517578125
-162.04833984375
-149.23095703125
-122.6806640625
-92.46826171875
-46.69189453125
26.55029296875
148.3154296875
269.1650390625
392.76123046875
529.1748046875
639.0380859375
721.435546875
813.90380859375
948.486328125
1059.26513671875
1097.71728515625
1101.37939453125
1011.65771484375
775.45166015625
419.3115234375
128.173828125
-76.904296875
-151.9775390625
-122.6806640625
-94.29931640625
-76.904296875
-74.15771484375
-61.34033203125
-32.04345703125
-17.39501953125
-16.4794921875
-29.296875
-41.19873046875
-46.69189453125
-49.4384765625
-52.18505859375
-60.4248046875
-60.4248046875
-60.4248046875
-64.0869140625
-65.00244140625
-66.83349609375
-72.32666015625
-74.15771484375
-75.98876953125
-71.4111328125
-70.49560546875
-76.904296875
-83.31298828125
-75.0732421875
-75.98876953125
-76.904296875
-71.4111328125
-73.2421875
-69.580078125
-71.4111328125
-72.32666015625
-69.580078125
-71.4111328125
-73.2421875
-65.00244140625
-67.7490234375
-71.4111328125
-75.0732421875
-74.15771484375
-65.00244140625
-65.91796875
-65.00244140625
-65.00244140625
-62.255859375
-63.17138671875
-65.00244140625
-65.91796875
-64.0869140625
-65.00244140625
-60.4248046875
-62.255859375
-57.67822265625
-57.67822265625
-53.1005859375
-56.7626953125
-49.4384765625
-42.1142578125
-46.69189453125
-49.4384765625
-44.86083984375
-44.86083984375
-43.02978515625
-44.86083984375
-39.36767578125
-37.53662109375
-33.87451171875
-35.70556640625
-36.62109375
-30.21240234375
-22.88818359375
-27.4658203125
-26.55029296875
-24.71923828125
-21.97265625
-22.88818359375
-28.38134765625
-25.634765625
-21.97265625
-23.8037109375
-21.97265625
-15.56396484375
-3.662109375
-4.57763671875
-3.662109375
-0.91552734375
-0.91552734375
0.91552734375
0.91552734375
4.57763671875
10.07080078125
13.73291015625
18.310546875
19.22607421875
22.88818359375
26.55029296875
34.7900390625
35.70556640625
37.53662109375
41.19873046875
36.62109375
42.1142578125
45.7763671875
46.69189453125
48.52294921875
51.26953125
53.1005859375
55.84716796875
58.59375
57.67822265625
61.34033203125
61.34033203125
60.4248046875
62.255859375
64.0869140625
65.00244140625
54.931640625
58.59375
56.7626953125
50.35400390625
49.4384765625
49.4384765625
41.19873046875
34.7900390625
29.296875
25.634765625
14.6484375
6.40869140625
2.74658203125
-3.662109375
-11.90185546875
-12.8173828125
-21.05712890625
-24.71923828125
-30.21240234375
-33.87451171875
-43.9453125
-51.26953125
-57.67822265625
-61.34033203125
-60.4248046875
-65.00244140625
-67.7490234375
-71.4111328125
-73.2421875
-75.98876953125
-81.48193359375
-88.80615234375
-86.97509765625
-90.63720703125
-94.29931640625
-91.552734375
-90.63720703125
-90.63720703125
-93.3837890625
-93.3837890625
-91.552734375
-90.63720703125
-94.29931640625
-97.96142578125
-100.7080078125
-104.3701171875
-101.62353515625
-99.79248046875
-102.5390625
-98.876953125
-103.45458984375
-95.21484375
-90.63720703125
-91.552734375
-95.21484375
-91.552734375
-91.552734375
-90.63720703125
-97.0458984375
-97.0458984375
-89.7216796875
-87.890625
-93.3837890625
-92.46826171875
-87.890625
-87.890625
-89.7216796875
-87.890625
-91.552734375
-93.3837890625
-88.80615234375
-82.3974609375
-80.56640625
-86.0595703125
-90.63720703125
-86.97509765625
-84.228515625
-84.228515625
-83.31298828125
-74.15771484375
-76.904296875
-75.0732421875
-75.0732421875
-78.7353515625
-71.4111328125
-66.83349609375
-76.904296875
-78.7353515625
-81.48193359375
-83.31298828125
-80.56640625
-82.3974609375
-77.81982421875
-69.580078125
-69.580078125
-71.4111328125
-72.32666015625
-74.15771484375
-75.0732421875
-75.98876953125
-79.65087890625
-82.3974609375
-78.7353515625
-75.0732421875
-77.81982421875
-79.65087890625
-75.98876953125
-76.904296875
-76.904296875
-77.81982421875
-76.904296875
-87.890625
-89.7216796875
-80.56640625
-81.48193359375
-83.31298828125
-82.3974609375
-87.890625
-88.80615234375
-86.0595703125
-87.890625
-88.80615234375
-82.3974609375
-76.904296875
-82.3974609375
-84.228515625
-83.31298828125
-84.228515625
-86.97509765625
-85.14404296875
-86.0595703125
-84.228515625
-89.7216796875
-89.7216796875
-87.890625
-86.97509765625
-94.29931640625
-94.29931640625
-92.46826171875
-92.46826171875
-90.63720703125
-96.13037109375
-97.96142578125
-96.13037109375
-101.62353515625
-100.7080078125
-97.0458984375
-94.29931640625
-99.79248046875
-95.21484375
-97.0458984375
-101.62353515625
-101.62353515625
-98.876953125
-97.0458984375
-95.21484375
-100.7080078125
-97.0458984375
-96.13037109375
-98.876953125
-97.96142578125
-100.7080078125
-105.28564453125
-101.62353515625
-95.21484375
-94.29931640625
-98.876953125
-103.45458984375
-101.62353515625
-101.62353515625
-98.876953125
-97.0458984375
-96.13037109375
-98.876953125
-95.21484375
-100.7080078125
-99.79248046875
-98.876953125
-99.79248046875
-93.3837890625
-93.3837890625
-100.7080078125
-103.45458984375
-101.62353515625
-101.62353515625
-97.0458984375
-97.0458984375
-97.0458984375
-98.876953125
-101.62353515625
-98.876953125
-97.96142578125
-99.79248046875
-104.3701171875
-102.5390625
-94.29931640625
-90.63720703125
-97.0458984375
-98.876953125
-103.45458984375
-98.876953125
-93.3837890625
-93.3837890625
-94.29931640625
-99.79248046875
-96.13037109375
-92.46826171875
-95.21484375
-89.7216796875
-93.3837890625
-92.46826171875
-95.21484375
-94.29931640625
-90.63720703125
-84.228515625
-76.904296875
-71.4111328125
-59.50927734375
-56.7626953125
-61.34033203125
-64.0869140625
-55.84716796875
-47.607421875
-35.70556640625
-32.04345703125
-21.05712890625
-18.310546875
-23.8037109375
-27.4658203125
-22.88818359375
-25.634765625
-28.38134765625
-34.7900390625
-33.87451171875
-32.04345703125
-36.62109375
-33.87451171875
-43.9453125
-50.35400390625
-53.1005859375
-64.0869140625
-75.98876953125
-75.0732421875
-76.904296875
-86.0595703125
-92.46826171875
-95.21484375
-107.11669921875
-108.0322265625
-106.201171875
-114.44091796875
-113.525390625
-107.11669921875
-108.94775390625
-115.3564453125
-109.86328125
-106.201171875
-107.11669921875
-112.60986328125
-111.6943359375
-109.86328125
-110.77880859375
-108.0322265625
-108.0322265625
-107.11669921875
-116.27197265625
-111.6943359375
-110.77880859375
-117.1875
-104.3701171875
-96.13037109375
-103.45458984375
-109.86328125
-107.11669921875
-108.94775390625
-108.0322265625
-108.0322265625
-110.77880859375
-108.94775390625
-105.28564453125
-108.0322265625
-107.11669921875
-116.27197265625
-125.42724609375
-136.41357421875
-149.23095703125
-138.24462890625
-119.0185546875
-86.0595703125
-45.7763671875
16.4794921875
128.173828125
246.27685546875
353.3935546875
485.2294921875
610.65673828125
702.20947265625
793.76220703125
920.10498046875
1048.27880859375
1114.19677734375
1121.52099609375
1069.3359375
877.0751953125
547.4853515625
236.2060546875
5.4931640625
-111.6943359375
-104.3701171875
-76.904296875
-53.1005859375
-57.67822265625
-41.19873046875
-14.6484375
-2.74658203125
-3.662109375
-10.07080078125
-21.05712890625
-24.71923828125
-28.38134765625
-32.958984375
-37.53662109375
-42.1142578125
-51.26953125
-49.4384765625
-49.4384765625
-54.931640625
-57.67822265625
-60.4248046875
-58.59375
-59.50927734375
-58.59375
-58.59375
-61.34033203125
-55.84716796875
-56.7626953125
-60.4248046875
-59.50927734375
-54.01611328125
-57.67822265625
-59.50927734375
-62.255859375
-59.50927734375
-57.67822265625
-61.34033203125
-63.17138671875
-61.34033203125
-58.59375
-53.1005859375
-54.931640625
-51.26953125
-51.26953125
-51.26953125
-47.607421875
-47.607421875
-48.52294921875
-49.4384765625
-50.35400390625
-50.35400390625
-43.9453125
-47.607421875
-47.607421875
-42.1142578125
-39.36767578125
-40.283203125
-38.4521484375
-34.7900390625
-32.958984375
-30.21240234375
-29.296875
-29.296875
-32.958984375
-29.296875
-25.634765625
-23.8037109375
-21.97265625
-19.22607421875
-14.6484375
-9.1552734375
-13.73291015625
-14.6484375
-13.73291015625
-7.32421875
-9.1552734375
-7.32421875
-10.986328125
-3.662109375
0
4.57763671875
8.23974609375
7.32421875
8.23974609375
14.6484375
14.6484375
16.4794921875
21.05712890625
20.1416015625
19.22607421875
23.8037109375
27.4658203125
32.958984375
37.53662109375
42.1142578125
44.86083984375
43.9453125
42.1142578125
47.607421875
53.1005859375
58.59375
62.255859375
63.17138671875
67.7490234375
76.904296875
77.81982421875
75.98876953125
75.98876953125
77.81982421875
77.81982421875
86.0595703125
98.876953125
97.0458984375
94.29931640625
95.21484375
97.96142578125
101.62353515625
98.876953125
93.3837890625
94.29931640625
97.0458984375
97.96142578125
87.890625
82.3974609375
78.7353515625
71.4111328125
67.7490234375
55.84716796875
48.52294921875
40.283203125
32.04345703125
26.55029296875
15.56396484375
7.32421875
3.662109375
-2.74658203125
-9.1552734375
-10.986328125
-9.1552734375
-17.39501953125
-19.22607421875
-17.39501953125
-28.38134765625
-32.04345703125
-39.36767578125
-45.7763671875
-53.1005859375
-52.18505859375
-50.35400390625
-55.84716796875
-60.4248046875
-60.4248046875
-61.34033203125
-60.4248046875
-63.17138671875
-60.4248046875
-66.83349609375
-65.00244140625
-65.00244140625
-63.17138671875
-69.580078125
-66.83349609375
-65.00244140625
-68.66455078125
-70.49560546875
-69.580078125
-67.7490234375
-65.00244140625
-67.7490234375
-68.66455078125
-66.83349609375
-62.255859375
-60.4248046875
-67.7490234375
-67.7490234375
-69.580078125
-66.83349609375
-65.00244140625
-64.0869140625
-60.4248046875
-57.67822265625
-59.50927734375
-55.84716796875
-54.931640625
-55.84716796875
-57.67822265625
-58.59375
-58.59375
-54.01611328125
-56.7626953125
-57.67822265625
-54.931640625
-54.931640625
-53.1005859375
-53.1005859375
-50.35400390625
-53.1005859375
-48.52294921875
-53.1005859375
-53.1005859375
-53.1005859375
-46.69189453125
-51.26953125
-54.01611328125
-47.607421875
-43.9453125
-48.52294921875
-48.52294921875
-49.4384765625
-47.607421875
-43.02978515625
-43.02978515625
-41.19873046875
-42.1142578125
-46.69189453125
-48.52294921875
-45.7763671875
-48.52294921875
-47.607421875
-46.69189453125
-47.607421875
-46.69189453125
-47.607421875
-49.4384765625
-48.52294921875
-47.607421875
-47.607421875
-48.52294921875
-50.35400390625
-48.52294921875
-49.4384765625
-47.607421875
-53.1005859375
-55.84716796875
-55.84716796875
-53.1005859375
-53.1005859375
-54.931640625
-51.26953125
-51.26953125
-55.84716796875
-54.931640625
-57.67822265625
-56.7626953125
-56.7626953125
-59.50927734375
-58.59375
-55.84716796875
-58.59375
-58.59375
-56.7626953125
-60.4248046875
-58.59375
-59.50927734375
-65.00244140625
-63.17138671875
-57.67822265625
-59.50927734375
-65.00244140625
-60.4248046875
-63.17138671875
-68.66455078125
-70.49560546875
-69.580078125
-66.83349609375
-65.91796875
-65.91796875
-68.66455078125
-67.7490234375
-63.17138671875
-64.0869140625
-66.83349609375
-68.66455078125
-69.580078125
-69.580078125
-66.83349609375
-69.580078125
-66.83349609375
-66.83349609375
-67.7490234375
-69.580078125
-71.4111328125
-69.580078125
-65.00244140625
-65.91796875
-67.7490234375
-69.580078125
-66.83349609375
-70.49560546875
-69.580078125
-69.580078125
-69.580078125
-68.66455078125
-71.4111328125
-69.580078125
-68.66455078125
-71.4111328125
-71.4111328125
-74.15771484375
-75.98876953125
-72.32666015625
-67.7490234375
-73.2421875
-77.81982421875
-75.0732421875
-75.0732421875
-77.81982421875
-79.65087890625
-79.65087890625
-82.3974609375
-79.65087890625
-75.0732421875
-79.65087890625
-83.31298828125
-83.31298828125
-79.65087890625
-78.7353515625
-77.81982421875
-75.0732421875
-76.904296875
-75.98876953125
-72.32666015625
-74.15771484375
-73.2421875
-73.2421875
-78.7353515625
-75.0732421875
-71.4111328125
-75.0732421875
-74.15771484375
-74.15771484375
-80.56640625
-80.56640625
-76.904296875
-69.580078125
-66.83349609375
-73.2421875
-75.98876953125
-75.98876953125
-75.98876953125
-73.2421875
-71.4111328125
-71.4111328125
-73.2421875
-74.15771484375
-73.2421875
-67.7490234375
-74.15771484375
-71.4111328125
-73.2421875
-74.15771484375
-70.49560546875
-66.83349609375
-61.34033203125
-51.26953125
-40.283203125
-32.958984375
-34.7900390625
-31.1279296875
-36.62109375
-40.283203125
-35.70556640625
-20.1416015625
-13.73291015625
-9.1552734375
-1.8310546875
3.662109375
2.74658203125
1.8310546875
-0.91552734375
-9.1552734375
-9.1552734375
-11.90185546875
-4.57763671875
-4.57763671875
-8.23974609375
-16.4794921875
-19.22607421875
-29.296875
-36.62109375
-42.1142578125
-43.02978515625
-45.7763671875
-49.4384765625
-58.59375
-64.0869140625
-71.4111328125
-77.81982421875
-79.65087890625
-83.31298828125
-83.31298828125
-78.7353515625
-81.48193359375
-81.48193359375
-85.14404296875
-87.890625
-85.14404296875
-80.56640625
-79.65087890625
-85.14404296875
-85.14404296875
-86.97509765625
-85.14404296875
-84.228515625
-85.14404296875
-83.31298828125
-82.3974609375
-83.31298828125
-82.3974609375
-83.31298828125
-83.31298828125
-82.3974609375
-83.31298828125
-84.228515625
-85.14404296875
-83.31298828125
-80.56640625
-78.7353515625
-81.48193359375
-82.3974609375
-84.228515625
-85.14404296875
-97.0458984375
-107.11669921875
-109.86328125
-113.525390625
-103.45458984375
-83.31298828125
-50.35400390625
0
80.56640625
187.68310546875
297.54638671875
414.73388671875
535.58349609375
637.20703125
733.33740234375
842.28515625
970.458984375
1075.74462890625
1116.02783203125
1106.87255859375
1008.9111328125
758.056640625
440.36865234375
202.33154296875
9.1552734375
-58.59375
-61.34033203125
-43.02978515625
-38.4521484375
-17.39501953125
14.6484375
30.21240234375
25.634765625
23.8037109375
16.4794921875
6.40869140625
-1.8310546875
-7.32421875
-10.986328125
-11.90185546875
-19.22607421875
-25.634765625
-27.4658203125
-31.1279296875
-30.21240234375
-26.55029296875
-31.1279296875
-33.87451171875
-34.7900390625
-32.04345703125
-35.70556640625
-34.7900390625
-36.62109375
-34.7900390625
-32.958984375
-35.70556640625
-33.87451171875
-34.7900390625
-32.04345703125
-33.87451171875
-32.958984375
-31.1279296875
-30.21240234375
-31.1279296875
-33.87451171875
-30.21240234375
-25.634765625
-26.55029296875
-24.71923828125
-21.97265625
-21.05712890625
-25.634765625
-29.296875
-28.38134765625
-24.71923828125
-23.8037109375
-17.39501953125
-15.56396484375
-18.310546875
-17.39501953125
-13.73291015625
-10.07080078125
-10.07080078125
-9.1552734375
-7.32421875
-9.1552734375
-4.57763671875
-4.57763671875
-2.74658203125
-0.91552734375
-3.662109375
-1.8310546875
3.662109375
6.40869140625
4.57763671875
7.32421875
6.40869140625
9.1552734375
9.1552734375
13.73291015625
12.8173828125
16.4794921875
17.39501953125
19.22607421875
23.8037109375
26.55029296875
30.21240234375
30.21240234375
34.7900390625
34.7900390625
38.4521484375
43.02978515625
43.9453125
43.9453125
48.52294921875
51.26953125
54.01611328125
56.7626953125
61.34033203125
62.255859375
62.255859375
65.00244140625
69.580078125
76.904296875
84.228515625
86.97509765625
97.0458984375
99.79248046875
102.5390625
101.62353515625
105.28564453125
109.86328125
111.6943359375
114.44091796875
117.1875
119.93408203125
125.42724609375
129.08935546875
131.8359375
132.75146484375
136.41357421875
138.24462890625
138.24462890625
134.58251953125
135.498046875
134.58251953125
133.6669921875
130.0048828125
124.51171875
121.76513671875
117.1875
108.94775390625
99.79248046875
92.46826171875
84.228515625
76.904296875
66.83349609375
57.67822265625
47.607421875
41.19873046875
34.7900390625
24.71923828125
21.05712890625
18.310546875
7.32421875
-1.8310546875
-1.8310546875
-4.57763671875
-10.07080078125
-13.73291015625
-13.73291015625
-16.4794921875
-23.8037109375
-27.4658203125
-34.7900390625
-38.4521484375
-43.9453125
-43.9453125
-42.1142578125
-46.69189453125
-50.35400390625
-47.607421875
-46.69189453125
-50.35400390625
-51.26953125
-47.607421875
-48.52294921875
-49.4384765625
-51.26953125
-50.35400390625
-51.26953125
-46.69189453125
-49.4384765625
-50.35400390625
-47.607421875
-48.52294921875
-48.52294921875
-50.35400390625
-51.26953125
-52.18505859375
-49.4384765625
-47.607421875
-47.607421875
-53.1005859375
-53.1005859375
-51.26953125
-48.52294921875
-47.607421875
-45.7763671875
-43.02978515625
-43.9453125
-44.86083984375
-44.86083984375
-47.607421875
-44.86083984375
-43.9453125
-43.02978515625
-43.9453125
-42.1142578125
-44.86083984375
-41.19873046875
-42.1142578125
-43.02978515625
-46.69189453125
-48.52294921875
-43.02978515625
-41.19873046875
-39.36767578125
-36.62109375
-34.7900390625
-43.02978515625
-39.36767578125
-41.19873046875
-42.1142578125
-43.9453125
-42.1142578125
-43.02978515625
-46.69189453125
-43.9453125
-43.9453125
-43.02978515625
-42.1142578125
-42.1142578125
-43.02978515625
-42.1142578125
-43.9453125
-43.9453125
-43.9453125
-43.02978515625
-42.1142578125
-43.9453125
-42.1142578125
-44.86083984375
-45.7763671875
-43.9453125
-43.9453125
-43.02978515625
-43.02978515625
-43.02978515625
-43.02978515625
-45.7763671875
-46.69189453125
-42.1142578125
-40.283203125
-44.86083984375
-49.4384765625
-46.69189453125
-42.1142578125
-46.69189453125
-49.4384765625
-49.4384765625
-47.607421875
-47.607421875
-43.9453125
-44.86083984375
-50.35400390625
-52.18505859375
-48.52294921875
-52.18505859375
-51.26953125
-50.35400390625
-51.26953125
-54.01611328125
-57.67822265625
-54.01611328125
-51.26953125
-50.35400390625
-54.931640625
-54.931640625
-55.84716796875
-55.84716796875
-57.67822265625
-59.50927734375
-60.4248046875
-61.34033203125
-64.0869140625
-66.83349609375
-60.4248046875
-55.84716796875
-58.59375
-57.67822265625
-62.255859375
-66.83349609375
-65.00244140625
-64.0869140625
-63.17138671875
-66.83349609375
-65.91796875
-61.34033203125
-63.17138671875
-63.17138671875
-63.17138671875
-63.17138671875
-64.0869140625
-61.34033203125
-63.17138671875
-65.91796875
-70.49560546875
-69.580078125
-65.91796875
-63.17138671875
-61.34033203125
-61.34033203125
-60.4248046875
-61.34033203125
-55.84716796875
-60.4248046875
-64.0869140625
-63.17138671875
-65.00244140625
-65.00244140625
-59.50927734375
-65.00244140625
-66.83349609375
-65.00244140625
-65.00244140625
-65.00244140625
-62.255859375
-65.00244140625
-62.255859375
-60.4248046875
-62.255859375
-64.0869140625
-64.0869140625
-64.0869140625
-67.7490234375
-67.7490234375
-65.91796875
-62.255859375
-64.0869140625
-60.4248046875
-62.255859375
-62.255859375
-60.4248046875
-60.4248046875
-62.255859375
-61.34033203125
-63.17138671875
-66.83349609375
-64.0869140625
-62.255859375
-66.83349609375
-65.91796875
-62.255859375
-62.255859375
-66.83349609375
-66.83349609375
-65.00244140625
-64.0869140625
-63.17138671875
-62.255859375
-65.00244140625
-65.91796875
-61.34033203125
-59.50927734375
-63.17138671875
-62.255859375
-61.34033203125
-59.50927734375
-59.50927734375
-54.931640625
-51.26953125
-40.283203125
-28.38134765625
-19.22607421875
-22.88818359375
-24.71923828125
-29.296875
-27.4658203125
-15.56396484375
-7.32421875
-5.4931640625
5.4931640625
17.39501953125
12.8173828125
16.4794921875
14.6484375
0.91552734375
3.662109375
0
-0.91552734375
1.8310546875
0.91552734375
-1.8310546875
-6.40869140625
-20.1416015625
-28.38134765625
-33.87451171875
-37.53662109375
-41.19873046875
-41.19873046875
-45.7763671875
-56.7626953125
-61.34033203125
-68.66455078125
-71.4111328125
-74.15771484375
-77.81982421875
-76.904296875
-76.904296875
-77.81982421875
-76.904296875
-75.0732421875
-76.904296875
-78.7353515625
-77.81982421875
-74.15771484375
-75.0732421875
-76.904296875
-80.56640625
-76.904296875
-77.81982421875
-77.81982421875
-75.98876953125
-78.7353515625
-78.7353515625
-79.65087890625
-76.904296875
-78.7353515625
-80.56640625
-79.65087890625
-77.81982421875
-75.0732421875
-76.904296875
-75.98876953125
-75.98876953125
-75.0732421875
-75.98876953125
-75.0732421875
-78.7353515625
-88.80615234375
-96.13037109375
-104.3701171875
-109.86328125
-101.62353515625
-85.14404296875
-49.4384765625
-1.8310546875
78.7353515625
192.2607421875
292.96875
403.74755859375
523.681640625
624.3896484375
714.111328125
816.650390625
942.07763671875
1054.6875
1106.87255859375
1103.21044921875
1015.31982421875
781.8603515625
467.83447265625
223.388671875
16.4794921875
-63.17138671875
-58.59375
-36.62109375
-32.04345703125
-16.4794921875
13.73291015625
33.87451171875
35.70556640625
33.87451171875
19.22607421875
8.23974609375
0
-4.57763671875
-8.23974609375
-11.90185546875
-17.39501953125
-21.97265625
-20.1416015625
-19.22607421875
-15.56396484375
-19.22607421875
-20.1416015625
-19.22607421875
-21.05712890625
-20.1416015625
-21.97265625
-21.97265625
-24.71923828125
-23.8037109375
-25.634765625
-27.4658203125
-24.71923828125
-25.634765625
-24.71923828125
-25.634765625
-21.97265625
-23.8037109375
-26.55029296875
-27.4658203125
-28.38134765625
-22.88818359375
-21.97265625
-20.1416015625
-21.97265625
-19.22607421875
-21.05712890625
-22.88818359375
-17.39501953125
-16.4794921875
-15.56396484375
-10.986328125
-11.90185546875
-14.6484375
-14.6484375
-12.8173828125
-10.07080078125
-9.1552734375
-8.23974609375
-9.1552734375
-11.90185546875
-6.40869140625
-8.23974609375
-6.40869140625
0
0.91552734375
0.91552734375
0.91552734375
0.91552734375
1.8310546875
6.40869140625
9.1552734375
10.986328125
11.90185546875
9.1552734375
10.986328125
12.8173828125
18.310546875
22.88818359375
23.8037109375
23.8037109375
24.71923828125
26.55029296875
28.38134765625
29.296875
26.55029296875
34.7900390625
41.19873046875
42.1142578125
42.1142578125
43.02978515625
48.52294921875
50.35400390625
53.1005859375
59.50927734375
64.0869140625
69.580078125
70.49560546875
73.2421875
76.904296875
81.48193359375
84.228515625
85.14404296875
88.80615234375
90.63720703125
99.79248046875
99.79248046875
105.28564453125
108.94775390625
110.77880859375
112.60986328125
118.10302734375
121.76513671875
126.3427734375
126.3427734375
130.0048828125
131.8359375
133.6669921875
133.6669921875
133.6669921875
131.8359375
130.0048828125
128.173828125
124.51171875
119.0185546875
115.3564453125
107.11669921875
97.96142578125
91.552734375
86.97509765625
79.65087890625
74.15771484375
67.7490234375
58.59375
51.26953125
43.02978515625
32.958984375
21.97265625
14.6484375
13.73291015625
13.73291015625
3.662109375
-3.662109375
-12.8173828125
-17.39501953125
-21.97265625
-23.8037109375
-30.21240234375
-34.7900390625
-34.7900390625
-42.1142578125
-42.1142578125
-42.1142578125
-49.4384765625
-51.26953125
-53.1005859375
-52.18505859375
-54.01611328125
-54.931640625
-56.7626953125
-55.84716796875
-54.931640625
-55.84716796875
-57.67822265625
-54.931640625
-60.4248046875
-61.34033203125
-61.34033203125
-58.59375
-59.50927734375
-60.4248046875
-58.59375
-60.4248046875
-59.50927734375
-55.84716796875
-57.67822265625
-56.7626953125
-59.50927734375
-60.4248046875
-59.50927734375
-57.67822265625
-60.4248046875
-56.7626953125
-56.7626953125
-62.255859375
-56.7626953125
-57.67822265625
-60.4248046875
-59.50927734375
-54.931640625
-52.18505859375
-51.26953125
-51.26953125
-53.1005859375
-54.01611328125
-53.1005859375
-46.69189453125
-47.607421875
-50.35400390625
-51.26953125
-54.01611328125
-52.18505859375
-48.52294921875
-54.01611328125
-54.01611328125
-53.1005859375
-52.18505859375
-49.4384765625
-45.7763671875
-47.607421875
-52.18505859375
-48.52294921875
-49.4384765625
-46.69189453125
-43.02978515625
-47.607421875
-47.607421875
-45.7763671875
-52.18505859375
-53.1005859375
-53.1005859375
-54.931640625
-54.01611328125
-53.1005859375
-54.01611328125
-51.26953125
-54.01611328125
-52.18505859375
-54.01611328125
-56.7626953125
-56.7626953125
-57.67822265625
-59.50927734375
-57.67822265625
-57.67822265625
-55.84716796875
-61.34033203125
-63.17138671875
-61.34033203125
-59.50927734375
-59.50927734375
-63.17138671875
-65.00244140625
-65.91796875
-69.580078125
-69.580078125
-62.255859375
-68.66455078125
-70.49560546875
-68.66455078125
-71.4111328125
-72.32666015625
-66.83349609375
-64.0869140625
-66.83349609375
-65.00244140625
-63.17138671875
-67.7490234375
-69.580078125
-72.32666015625
-70.49560546875
-71.4111328125
-72.32666015625
-67.7490234375
-69.580078125
-66.83349609375
-72.32666015625
-73.2421875
-73.2421875
-73.2421875
-73.2421875
-73.2421875
-71.4111328125
-76.904296875
-78.7353515625
-79.65087890625
-75.0732421875
-68.66455078125
-71.4111328125
-73.2421875
-71.4111328125
-70.49560546875
-71.4111328125
-75.98876953125
-75.0732421875
-73.2421875
-75.0732421875
-77.81982421875
-75.98876953125
-70.49560546875
-74.15771484375
-80.56640625
-79.65087890625
-75.98876953125
-70.49560546875
-68.66455078125
-73.2421875
-76.904296875
-75.98876953125
-79.65087890625
-78.7353515625
-72.32666015625
-75.0732421875
-77.81982421875
-76.904296875
-77.81982421875
-78.7353515625
-76.904296875
-76.904296875
-78.7353515625
-80.56640625
-80.56640625
-77.81982421875
-75.98876953125
-75.0732421875
-74.15771484375
-75.98876953125
-74.15771484375
-74.15771484375
-77.81982421875
-76.904296875
-79.65087890625
-77.81982421875
-84.228515625
-83.31298828125
-86.0595703125
-86.0595703125
-77.81982421875
-74.15771484375
-76.904296875
-83.31298828125
-86.97509765625
-82.3974609375
-84.228515625
-89.7216796875
-90.63720703125
-86.0595703125
-85.14404296875
-81.48193359375
-80.56640625
-81.48193359375
-81.48193359375
-86.0595703125
-89.7216796875
-82.3974609375
-78.7353515625
-77.81982421875
-69.580078125
-56.7626953125
-51.26953125
-53.1005859375
-53.1005859375
-54.931640625
-44.86083984375
-44.86083984375
-32.04345703125
-28.38134765625
-16.4794921875
-11.90185546875
-12.8173828125
-10.07080078125
-16.4794921875
-17.39501953125
-21.05712890625
-21.05712890625
-24.71923828125
-28.38134765625
-28.38134765625
-25.634765625
-36.62109375
-43.9453125
-48.52294921875
-63.17138671875
-71.4111328125
-70.49560546875
-82.3974609375
-86.97509765625
-88.80615234375
-88.80615234375
-93.3837890625
-101.62353515625
-103.45458984375
-107.11669921875
-108.0322265625
-107.11669921875
-101.62353515625
-107.11669921875
-106.201171875
-106.201171875
-103.45458984375
-108.0322265625
-108.0322265625
-101.62353515625
-105.28564453125
-106.201171875
-104.3701171875
-108.0322265625
-105.28564453125
-103.45458984375
-108.94775390625
-108.94775390625
-100.7080078125
-99.79248046875
-101.62353515625
-106.201171875
-104.3701171875
-104.3701171875
-100.7080078125
-102.5390625
-108.0322265625
-108.0322265625
-105.28564453125
-104.3701171875
-108.0322265625
-119.0185546875
-125.42724609375
-134.58251953125
-146.484375
-141.90673828125
-123.59619140625
-96.13037109375
-49.4384765625
9.1552734375
115.3564453125
228.8818359375
346.0693359375
477.9052734375
605.16357421875
702.20947265625
792.8466796875
914.61181640625
1047.36328125
1123.35205078125
1133.4228515625
1088.56201171875
906.3720703125
585.9375
268.24951171875
28.38134765625
-108.94775390625
-108.0322265625
-79.65087890625
-56.7626953125
-59.50927734375
-45.7763671875
-11.90185546875
6.40869140625
1.8310546875
-8.23974609375
-16.4794921875
-25.634765625
-31.1279296875
-40.283203125
-39.36767578125
-42.1142578125
-45.7763671875
-49.4384765625
-54.01611328125
-56.7626953125
-55.84716796875
-60.4248046875
-61.34033203125
-55.84716796875
-54.01611328125
-56.7626953125
-49.4384765625
-51.26953125
-60.4248046875
-58.59375
-57.67822265625
-56.7626953125
-56.7626953125
-56.7626953125
-54.931640625
-49.4384765625
-54.931640625
-53.1005859375
-51.26953125
-54.01611328125
-55.84716796875
-45.7763671875
-43.9453125
-46.69189453125
-50.35400390625
-49.4384765625
-40.283203125
-46.69189453125
-47.607421875
-44.86083984375
-43.02978515625
-46.69189453125
-44.86083984375
-48.52294921875
-40.283203125
-32.958984375
-31.1279296875
-31.1279296875
-32.04345703125
-30.21240234375
-30.21240234375
-31.1279296875
-23.8037109375
-21.97265625
-24.71923828125
-25.634765625
-25.634765625
-23.8037109375
-23.8037109375
-20.1416015625
-21.05712890625
-18.310546875
-15.56396484375
-10.07080078125
-13.73291015625
-14.6484375
-14.6484375
-6.40869140625
-0.91552734375
-1.8310546875
-6.40869140625
-4.57763671875
0
0.91552734375
5.4931640625
9.1552734375
10.986328125
14.6484375
17.39501953125
18.310546875
17.39501953125
20.1416015625
21.05712890625
28.38134765625
34.7900390625
37.53662109375
41.19873046875
38.4521484375
46.69189453125
43.9453125
41.19873046875
51.26953125
54.01611328125
55.84716796875
59.50927734375
65.00244140625
67.7490234375
70.49560546875
73.2421875
75.98876953125
72.32666015625
82.3974609375
80.56640625
82.3974609375
88.80615234375
92.46826171875
94.29931640625
93.3837890625
91.552734375
92.46826171875
87.890625
87.890625
88.80615234375
75.98876953125
72.32666015625
71.4111328125
66.83349609375
66.83349609375
54.931640625
48.52294921875
47.607421875
39.36767578125
31.1279296875
19.22607421875
9.1552734375
0
-10.986328125
-13.73291015625
-10.986328125
-22.88818359375
-28.38134765625
-34.7900390625
-34.7900390625
-40.283203125
-42.1142578125
-44.86083984375
-46.69189453125
-52.18505859375
-52.18505859375
-59.50927734375
-60.4248046875
-68.66455078125
-62.255859375
-68.66455078125
-76.904296875
-77.81982421875
-72.32666015625
-72.32666015625
-68.66455078125
-76.904296875
-75.0732421875
-83.31298828125
-79.65087890625
-78.7353515625
-83.31298828125
-86.97509765625
-87.890625
-79.65087890625
-80.56640625
-77.81982421875
-81.48193359375
-80.56640625
-79.65087890625
-78.7353515625
-85.14404296875
-87.890625
-81.48193359375
-77.81982421875
-75.98876953125
-74.15771484375
-74.15771484375
-74.15771484375
-74.15771484375
-73.2421875
-75.98876953125
-76.904296875
-75.0732421875
-74.15771484375
-72.32666015625
-72.32666015625
-67.7490234375
-68.66455078125
-66.83349609375
-70.49560546875
-65.91796875
-59.50927734375
-69.580078125
-75.0732421875
-66.83349609375
-66.83349609375
-59.50927734375
-74.15771484375
-68.66455078125
-65.00244140625
-67.7490234375
-67.7490234375
-69.580078125
-65.91796875
-70.49560546875
-73.2421875
-60.4248046875
-56.7626953125
-62.255859375
-66.83349609375
-70.49560546875
-64.0869140625
-62.255859375
-65.91796875
-73.2421875
-69.580078125
-67.7490234375
-63.17138671875
-70.49560546875
-72.32666015625
-67.7490234375
-65.91796875
-66.83349609375
-67.7490234375
-68.66455078125
-65.91796875
-66.83349609375
-71.4111328125
-69.580078125
-63.17138671875
-67.7490234375
-69.580078125
-67.7490234375
-73.2421875
-68.66455078125
-69.580078125
-66.83349609375
-69.580078125
-71.4111328125
-73.2421875
-76.904296875
-76.904296875
-82.3974609375
-80.56640625
-81.48193359375
-79.65087890625
-79.65087890625
-82.3974609375
-83.31298828125
-86.97509765625
-81.48193359375
-79.65087890625
-84.228515625
-83.31298828125
-75.0732421875
-83.31298828125
-86.97509765625
-88.80615234375
-86.0595703125
-84.228515625
-77.81982421875
-81.48193359375
-81.48193359375
-86.0595703125
-85.14404296875
-87.890625
-82.3974609375
-84.228515625
-91.552734375
-97.0458984375
-90.63720703125
-84.228515625
-88.80615234375
-86.97509765625
-86.0595703125
-86.97509765625
-87.890625
-91.552734375
-91.552734375
-86.0595703125
-86.0595703125
-91.552734375
-87.890625
-82.3974609375
-92.46826171875
-90.63720703125
-88.80615234375
-89.7216796875
-91.552734375
-90.63720703125
-87.890625
-87.890625
-87.890625
-91.552734375
-89.7216796875
-88.80615234375
-88.80615234375
-91.552734375
-87.890625
-86.97509765625
-86.97509765625
-91.552734375
-94.29931640625
-92.46826171875
-92.46826171875
-89.7216796875
-91.552734375
-86.97509765625
-95.21484375
-97.96142578125
-97.96142578125
-90.63720703125
-93.3837890625
-88.80615234375
-80.56640625
-82.3974609375
-87.890625
-88.80615234375
-86.0595703125
-87.890625
-77.81982421875
-76.904296875
-66.83349609375
-58.59375
-53.1005859375
-60.4248046875
-60.4248046875
-55.84716796875
-43.9453125
-29.296875
-26.55029296875
-17.39501953125
-16.4794921875
-20.1416015625
-13.73291015625
-12.8173828125
-21.97265625
-21.05712890625
-25.634765625
-23.8037109375
-22.88818359375
-24.71923828125
-27.4658203125
-36.62109375
-46.69189453125
-56.7626953125
-61.34033203125
-67.7490234375
-69.580078125
-75.98876953125
-79.65087890625
-84.228515625
-87.890625
-91.552734375
-97.96142578125
-103.45458984375
-101.62353515625
-100.7080078125
-95.21484375
-102.5390625
-110.77880859375
-107.11669921875
-105.28564453125
-99.79248046875
-101.62353515625
-105.28564453125
-107.11669921875
-104.3701171875
-108.0322265625
-106.201171875
-107.11669921875
-109.86328125
-109.86328125
-105.28564453125
-102.5390625
-99.79248046875
-97.96142578125
-107.11669921875
-107.11669921875
-107.11669921875
-104.3701171875
-105.28564453125
-108.94775390625
-104.3701171875
-102.5390625
-102.5390625
-102.5390625
-103.45458984375
-115.3564453125
-127.25830078125
-141.90673828125
-147.39990234375
-140.07568359375
-127.25830078125
-100.7080078125
-65.00244140625
-4.57763671875
90.63720703125
221.5576171875
346.0693359375
474.2431640625
606.0791015625
707.70263671875
778.1982421875
880.7373046875
1013.48876953125
1090.39306640625
1110.53466796875
1089.4775390625
942.07763671875
636.29150390625
271.91162109375
22.88818359375
-125.42724609375
-132.75146484375
-96.13037109375
-66.83349609375
-67.7490234375
-68.66455078125
-47.607421875
-25.634765625
-16.4794921875
-14.6484375
-24.71923828125
-29.296875
-35.70556640625
-47.607421875
-53.1005859375
-52.18505859375
-54.931640625
-53.1005859375
-55.84716796875
-57.67822265625
-58.59375
-60.4248046875
-60.4248046875
-63.17138671875
-67.7490234375
-70.49560546875
-66.83349609375
-65.00244140625
-62.255859375
-65.00244140625
-65.91796875
-65.00244140625
-69.580078125
-65.91796875
-62.255859375
-59.50927734375
-66.83349609375
-62.255859375
-65.91796875
-60.4248046875
-58.59375
-57.67822265625
-58.59375
-60.4248046875
-63.17138671875
-58.59375
-54.931640625
-52.18505859375
-58.59375
-57.67822265625
-54.01611328125
-54.01611328125
-52.18505859375
-55.84716796875
-49.4384765625
-45.7763671875
-49.4384765625
-47.607421875
-47.607421875
-46.69189453125
-47.607421875
-41.19873046875
-39.36767578125
-43.02978515625
-38.4521484375
-33.87451171875
-32.04345703125
-29.296875
-29.296875
-33.87451171875
-32.958984375
-29.296875
-25.634765625
-22.88818359375
-20.1416015625
-19.22607421875
-19.22607421875
-18.310546875
-20.1416015625
-14.6484375
-12.8173828125
-14.6484375
-8.23974609375
-10.986328125
-7.32421875
-3.662109375
1.8310546875
0
4.57763671875
6.40869140625
4.57763671875
14.6484375
15.56396484375
15.56396484375
18.310546875
23.8037109375
30.21240234375
35.70556640625
35.70556640625
40.283203125
39.36767578125
36.62109375
43.02978515625
43.02978515625
54.01611328125
57.67822265625
47.607421875
54.01611328125
56.7626953125
59.50927734375
59.50927734375
62.255859375
65.00244140625
63.17138671875
66.83349609375
69.580078125
75.0732421875
67.7490234375
65.91796875
65.91796875
69.580078125
68.66455078125
68.66455078125
61.34033203125
56.7626953125
51.26953125
46.69189453125
40.283203125
33.87451171875
30.21240234375
26.55029296875
17.39501953125
10.07080078125
5.4931640625
3.662109375
-6.40869140625
-14.6484375
-19.22607421875
-24.71923828125
-26.55029296875
-31.1279296875
-41.19873046875
-42.1142578125
-44.86083984375
-50.35400390625
-52.18505859375
-54.931640625
-63.17138671875
-65.00244140625
-67.7490234375
-66.83349609375
-71.4111328125
-74.15771484375
-76.904296875
-78.7353515625
-76.904296875
-76.904296875
-76.904296875
-75.0732421875
-78.7353515625
-82.3974609375
-78.7353515625
-83.31298828125
-83.31298828125
-83.31298828125
-78.7353515625
-78.7353515625
-78.7353515625
-81.48193359375
-83.31298828125
-76.904296875
-75.98876953125
-75.0732421875
-75.98876953125
-72.32666015625
-74.15771484375
-70.49560546875
-72.32666015625
-79.65087890625
-75.0732421875
-72.32666015625
-70.49560546875
-71.4111328125
-69.580078125
-70.49560546875
-65.91796875
-66.83349609375
-72.32666015625
-70.49560546875
-66.83349609375
-65.91796875
-68.66455078125
-68.66455078125
-65.91796875
-64.0869140625
-66.83349609375
-61.34033203125
-62.255859375
-61.34033203125
-60.4248046875
-63.17138671875
-62.255859375
-61.34033203125
-57.67822265625
-58.59375
-61.34033203125
-60.4248046875
-62.255859375
-58.59375
-60.4248046875
-62.255859375
-58.59375
-62.255859375
-63.17138671875
-62.255859375
-57.67822265625
-55.84716796875
-55.84716796875
-54.931640625
-57.67822265625
-55.84716796875
-53.1005859375
-54.931640625
-55.84716796875
-59.50927734375
-55.84716796875
-55.84716796875
-63.17138671875
-61.34033203125
-54.931640625
-55.84716796875
-57.67822265625
-58.59375
-65.91796875
-63.17138671875
-65.00244140625
-64.0869140625
-65.91796875
-64.0869140625
-65.91796875
-62.255859375
-60.4248046875
-65.91796875
-65.91796875
-65.91796875
-66.83349609375
-67.7490234375
-67.7490234375
-69.580078125
-70.49560546875
-71.4111328125
-67.7490234375
-68.66455078125
-73.2421875
-71.4111328125
-68.66455078125
-72.32666015625
-70.49560546875
-72.32666015625
-69.580078125
-65.00244140625
-65.91796875
-68.66455078125
-71.4111328125
-72.32666015625
-73.2421875
-69.580078125
-70.49560546875
-71.4111328125
-73.2421875
-71.4111328125
-72.32666015625
-69.580078125
-70.49560546875
-78.7353515625
-76.904296875
-75.98876953125
-78.7353515625
-76.904296875
-73.2421875
-74.15771484375
-76.904296875
-79.65087890625
-76.904296875
-75.0732421875
-75.98876953125
-75.0732421875
-77.81982421875
-76.904296875
-78.7353515625
-78.7353515625
-78.7353515625
-81.48193359375
-79.65087890625
-81.48193359375
-77.81982421875
-76.904296875
-76.904296875
-75.98876953125
-74.15771484375
-75.0732421875
-73.2421875
-76.904296875
-77.81982421875
-72.32666015625
-73.2421875
-75.98876953125
-81.48193359375
-77.81982421875
-75.98876953125
-77.81982421875
-79.65087890625
-77.81982421875
-80.56640625
-75.98876953125
-76.904296875
-75.98876953125
-76.904296875
-77.81982421875
-79.65087890625
-80.56640625
-74.15771484375
-74.15771484375
-77.81982421875
-77.81982421875
-70.49560546875
-72.32666015625
-75.98876953125
-77.81982421875
-73.2421875
-67.7490234375
-61.34033203125
-55.84716796875
-47.607421875
-36.62109375
-39.36767578125
-41.19873046875
-44.86083984375
-43.02978515625
-32.04345703125
-24.71923828125
-19.22607421875
-6.40869140625
-1.8310546875
-0.91552734375
-5.4931640625
0.91552734375
-6.40869140625
-16.4794921875
-18.310546875
-21.05712890625
-14.6484375
-14.6484375
-18.310546875
-19.22607421875
-28.38134765625
-39.36767578125
-44.86083984375
-54.931640625
-58.59375
-60.4248046875
-62.255859375
-68.66455078125
-75.0732421875
-74.15771484375
-81.48193359375
-83.31298828125
-86.0595703125
-93.3837890625
-91.552734375
-88.80615234375
-89.7216796875
-84.228515625
-85.14404296875
-86.97509765625
-92.46826171875
-94.29931640625
-89.7216796875
-88.80615234375
-91.552734375
-90.63720703125
-92.46826171875
-94.29931640625
-88.80615234375
-92.46826171875
-92.46826171875
-90.63720703125
-87.890625
-82.3974609375
-83.31298828125
-87.890625
-88.80615234375
-87.890625
-88.80615234375
-86.97509765625
-90.63720703125
-90.63720703125
-90.63720703125
-87.890625
-98.876953125
-104.3701171875
-116.27197265625
-123.59619140625
-122.6806640625
-108.0322265625
-76.904296875
-35.70556640625
18.310546875
119.0185546875
231.62841796875
346.0693359375
470.5810546875
597.83935546875
687.56103515625
781.8603515625
898.13232421875
1029.052734375
1114.19677734375
1129.7607421875
1101.37939453125
948.486328125
649.10888671875
335.99853515625
100.7080078125
-59.50927734375
-80.56640625
-58.59375
-37.53662109375
-36.62109375
-19.22607421875
6.40869140625
20.1416015625
21.97265625
19.22607421875
7.32421875
-2.74658203125
-10.986328125
-14.6484375
-20.1416015625
-23.8037109375
-26.55029296875
-30.21240234375
-32.958984375
-34.7900390625
-35.70556640625
-33.87451171875
-35.70556640625
-36.62109375
-39.36767578125
-41.19873046875
-41.19873046875
-43.02978515625
-39.36767578125
-36.62109375
-35.70556640625
-34.7900390625
-37.53662109375
-36.62109375
-38.4521484375
-39.36767578125
-35.70556640625
-36.62109375
-32.958984375
-32.958984375
-32.04345703125
-32.04345703125
-31.1279296875
-33.87451171875
-30.21240234375
-31.1279296875
-27.4658203125
-28.38134765625
-27.4658203125
-28.38134765625
-27.4658203125
-21.97265625
-22.88818359375
-21.97265625
-18.310546875
-19.22607421875
-16.4794921875
-10.07080078125
-20.1416015625
-17.39501953125
-9.1552734375
-10.07080078125
-10.986328125
-12.8173828125
-7.32421875
-7.32421875
-6.40869140625
-2.74658203125
-3.662109375
-0.91552734375
2.74658203125
3.662109375
9.1552734375
5.4931640625
7.32421875
11.90185546875
12.8173828125
10.986328125
14.6484375
20.1416015625
21.05712890625
22.88818359375
25.634765625
31.1279296875
32.958984375
34.7900390625
39.36767578125
42.1142578125
43.9453125
46.69189453125
51.26953125
52.18505859375
53.1005859375
58.59375
63.17138671875
65.00244140625
68.66455078125
74.15771484375
76.904296875
77.81982421875
80.56640625
81.48193359375
91.552734375
99.79248046875
99.79248046875
104.3701171875
108.0322265625
111.6943359375
111.6943359375
116.27197265625
124.51171875
125.42724609375
129.08935546875
131.8359375
131.8359375
130.0048828125
130.92041015625
133.6669921875
133.6669921875
137.3291015625
136.41357421875
133.6669921875
128.173828125
122.6806640625
119.0185546875
115.3564453125
110.77880859375
103.45458984375
95.21484375
90.63720703125
82.3974609375
75.98876953125
68.66455078125
60.4248046875
51.26953125
43.9453125
34.7900390625
27.4658203125
20.1416015625
14.6484375
6.40869140625
2.74658203125
-3.662109375
-6.40869140625
-9.1552734375
-12.8173828125
-18.310546875
-21.05712890625
-25.634765625
-27.4658203125
-25.634765625
-32.04345703125
-32.958984375
-37.53662109375
-36.62109375
-39.36767578125
-39.36767578125
-41.19873046875
-43.9453125
-43.02978515625
-44.86083984375
-45.7763671875
-43.9453125
-44.86083984375
-43.02978515625
-43.9453125
-43.02978515625
-43.9453125
-42.1142578125
-43.02978515625
-42.1142578125
-42.1142578125
-43.9453125
-41.19873046875
-41.19873046875
-39.36767578125
-39.36767578125
-39.36767578125
-40.283203125
-39.36767578125
-36.62109375
-39.36767578125
-40.283203125
-38.4521484375
-37.53662109375
-36.62109375
-34.7900390625
-35.70556640625
-35.70556640625
-32.04345703125
-26.55029296875
-27.4658203125
-29.296875
-33.87451171875
-30.21240234375
-31.1279296875
-32.04345703125
-31.1279296875
-26.55029296875
-26.55029296875
-27.4658203125
-26.55029296875
-25.634765625
-21.97265625
-22.88818359375
-21.05712890625
-25.634765625
-27.4658203125
-28.38134765625
-28.38134765625
-25.634765625
-27.4658203125
-27.4658203125
-24.71923828125
-24.71923828125
-23.8037109375
-30.21240234375
-28.38134765625
-28.38134765625
-26.55029296875
-23.8037109375
-28.38134765625
-28.38134765625
-29.296875
-27.4658203125
-25.634765625
-27.4658203125
-25.634765625
-24.71923828125
-24.71923828125
-25.634765625
-24.71923828125
-24.71923828125
-26.55029296875
-28.38134765625
-25.634765625
-27.4658203125
-27.4658203125
-30.21240234375
-29.296875
-28.38134765625
-28.38134765625
-28.38134765625
-34.7900390625
-32.958984375
-33.87451171875
-33.87451171875
-38.4521484375
-39.36767578125
-36.62109375
-34.7900390625
-35.70556640625
-36.62109375
-37.53662109375
-37.53662109375
-39.36767578125
-42.1142578125
-42.1142578125
-41.19873046875
-41.19873046875
-36.62109375
-37.53662109375
-40.283203125
-38.4521484375
-37.53662109375
-35.70556640625
-39.36767578125
-41.19873046875
-45.7763671875
-43.9453125
-42.1142578125
-39.36767578125
-38.4521484375
-40.283203125
-42.1142578125
-44.86083984375
-43.9453125
-46.69189453125
-47.607421875
-46.69189453125
-43.02978515625
-43.02978515625
-43.9453125
-43.9453125
-43.02978515625
-42.1142578125
-41.19873046875
-43.9453125
-43.02978515625
-43.9453125
-43.9453125
-43.02978515625
-42.1142578125
-42.1142578125
-41.19873046875
-40.283203125
-43.9453125
-45.7763671875
-43.02978515625
-44.86083984375
-44.86083984375
-43.9453125
-47.607421875
-47.607421875
-47.607421875
-43.9453125
-45.7763671875
-48.52294921875
-49.4384765625
-47.607421875
-48.52294921875
-46.69189453125
-49.4384765625
-49.4384765625
-50.35400390625
-48.52294921875
-44.86083984375
-45.7763671875
-46.69189453125
-45.7763671875
-47.607421875
-47.607421875
-47.607421875
-48.52294921875
-50.35400390625
-46.69189453125
-48.52294921875
-49.4384765625
-50.35400390625
-52.18505859375
-53.1005859375
-46.69189453125
-42.1142578125
-44.86083984375
-38.4521484375
-30.21240234375
-25.634765625
-15.56396484375
-7.32421875
-3.662109375
-5.4931640625
-10.986328125
-11.90185546875
-1.8310546875
3.662109375
10.07080078125
15.56396484375
27.4658203125
26.55029296875
22.88818359375
21.05712890625
19.22607421875
13.73291015625
14.6484375
14.6484375
21.05712890625
14.6484375
8.23974609375
10.07080078125
7.32421875
-3.662109375
-11.90185546875
-17.39501953125
-24.71923828125
-32.04345703125
-32.04345703125
-36.62109375
-47.607421875
-50.35400390625
-58.59375
-58.59375
-60.4248046875
-59.50927734375
-63.17138671875
-61.34033203125
-62.255859375
-65.00244140625
-64.0869140625
-64.0869140625
-64.0869140625
-60.4248046875
-65.00244140625
-67.7490234375
-66.83349609375
-69.580078125
-65.91796875
-65.91796875
-65.00244140625
-64.0869140625
-66.83349609375
-68.66455078125
-66.83349609375
-63.17138671875
-67.7490234375
-63.17138671875
-62.255859375
-65.00244140625
-65.00244140625
-63.17138671875
-65.91796875
-64.0869140625
-62.255859375
-65.00244140625
-67.7490234375
-74.15771484375
-85.14404296875
-90.63720703125
-96.13037109375
-90.63720703125
-69.580078125
-39.36767578125
4.57763671875
76.904296875
181.2744140625
288.39111328125
402.83203125
526.42822265625
631.7138671875
720.52001953125
829.4677734375
957.6416015625
1072.998046875
1132.50732421875
1132.50732421875
1056.5185546875
839.53857421875
522.76611328125
269.1650390625
54.01611328125
-45.7763671875
-52.18505859375
-25.634765625
-21.05712890625
-9.1552734375
22.88818359375
45.7763671875
49.4384765625
44.86083984375
34.7900390625
22.88818359375
15.56396484375
10.07080078125
1.8310546875
-1.8310546875
-1.8310546875
-5.4931640625
-13.73291015625
-16.4794921875
-13.73291015625
-17.39501953125
-21.97265625
-23.8037109375
-21.97265625
-17.39501953125
-15.56396484375
-15.56396484375
-16.4794921875
-17.39501953125
-21.97265625
-18.310546875
-17.39501953125
-14.6484375
-11.90185546875
-13.73291015625
-15.56396484375
-16.4794921875
-13.73291015625
-11.90185546875
-10.986328125
-14.6484375
-13.73291015625
-9.1552734375
-9.1552734375
-13.73291015625
-10.07080078125
-10.986328125
-10.07080078125
-10.986328125
-10.986328125
-10.07080078125
-9.1552734375
-4.57763671875
-1.8310546875
-4.57763671875
-1.8310546875
-1.8310546875
2.74658203125
0.91552734375
1.8310546875
3.662109375
1.8310546875
3.662109375
5.4931640625
9.1552734375
13.73291015625
14.6484375
13.73291015625
18.310546875
17.39501953125
17.39501953125
21.97265625
22.88818359375
25.634765625
23.8037109375
28.38134765625
29.296875
31.1279296875
30.21240234375
29.296875
32.958984375
34.7900390625
33.87451171875
38.4521484375
44.86083984375
49.4384765625
55.84716796875
56.7626953125
55.84716796875
64.0869140625
69.580078125
67.7490234375
70.49560546875
72.32666015625
76.904296875
82.3974609375
88.80615234375
94.29931640625
96.13037109375
98.876953125
104.3701171875
107.11669921875
111.6943359375
117.1875
118.10302734375
118.10302734375
122.6806640625
129.08935546875
131.8359375
129.08935546875
131.8359375
134.58251953125
139.16015625
140.9912109375
146.484375
148.3154296875
150.146484375
146.484375
149.23095703125
144.6533203125
142.822265625
144.6533203125
140.9912109375
138.24462890625
130.92041015625
125.42724609375
117.1875
106.201171875
99.79248046875
95.21484375
84.228515625
72.32666015625
69.580078125
64.0869140625
54.931640625
46.69189453125
37.53662109375
33.87451171875
27.4658203125
21.05712890625
11.90185546875
3.662109375
2.74658203125
-2.74658203125
-9.1552734375
-15.56396484375
-16.4794921875
-17.39501953125
-22.88818359375
-28.38134765625
-33.87451171875
-32.958984375
-31.1279296875
-32.04345703125
-33.87451171875
-34.7900390625
-35.70556640625
-35.70556640625
-37.53662109375
-37.53662109375
-38.4521484375
-42.1142578125
-41.19873046875
-43.02978515625
-44.86083984375
-43.02978515625
-36.62109375
-36.62109375
-39.36767578125
-39.36767578125
-40.283203125
-42.1142578125
-40.283203125
-40.283203125
-42.1142578125
-42.1142578125
-40.283203125
-38.4521484375
-37.53662109375
-37.53662109375
-36.62109375
-34.7900390625
-35.70556640625
-38.4521484375
-37.53662109375
-34.7900390625
-32.958984375
-31.1279296875
-32.958984375
-31.1279296875
-28.38134765625
-27.4658203125
-24.71923828125
-26.55029296875
-24.71923828125
-25.634765625
-21.97265625
-20.1416015625
-22.88818359375
-22.88818359375
-24.71923828125
-18.310546875
-18.310546875
-19.22607421875
-21.97265625
-20.1416015625
-18.310546875
-19.22607421875
-19.22607421875
-19.22607421875
-20.1416015625
-24.71923828125
-21.97265625
-17.39501953125
-18.310546875
-19.22607421875
-20.1416015625
-19.22607421875
-16.4794921875
-20.1416015625
-21.97265625
-21.05712890625
-21.97265625
-21.05712890625
-17.39501953125
-19.22607421875
-20.1416015625
-26.55029296875
-25.634765625
-27.4658203125
-24.71923828125
-24.71923828125
-24.71923828125
-22.88818359375
-21.05712890625
-20.1416015625
-21.97265625
-23.8037109375
-22.88818359375
-19.22607421875
-21.05712890625
-21.97265625
-23.8037109375
-23.8037109375
-21.97265625
-22.88818359375
-24.71923828125
-30.21240234375
-26.55029296875
-27.4658203125
-32.04345703125
-32.04345703125
-33.87451171875
-33.87451171875
-32.04345703125
-28.38134765625
-27.4658203125
-32.04345703125
-32.04345703125
-33.87451171875
-32.958984375
-34.7900390625
-34.7900390625
-33.87451171875
-34.7900390625
-37.53662109375
-35.70556640625
-33.87451171875
-32.958984375
-35.70556640625
-34.7900390625
-34.7900390625
-32.04345703125
-32.958984375
-37.53662109375
-40.283203125
-41.19873046875
-36.62109375
-40.283203125
-39.36767578125
-42.1142578125
-36.62109375
-37.53662109375
-37.53662109375
-36.62109375
-35.70556640625
-32.958984375
-32.958984375
-33.87451171875
-36.62109375
-35.70556640625
-35.70556640625
-37.53662109375
-41.19873046875
-43.02978515625
-42.1142578125
-42.1142578125
-39.36767578125
-37.53662109375
-37.53662109375
-38.4521484375
-37.53662109375
-41.19873046875
-39.36767578125
-39.36767578125
-36.62109375
-37.53662109375
-37.53662109375
-41.19873046875
-37.53662109375
-38.4521484375
-39.36767578125
-41.19873046875
-38.4521484375
-35.70556640625
-39.36767578125
-42.1142578125
-40.283203125
-39.36767578125
-41.19873046875
-42.1142578125
-35.70556640625
-38.4521484375
-41.19873046875
-42.1142578125
-42.1142578125
-38.4521484375
-38.4521484375
-38.4521484375
-40.283203125
-41.19873046875
-39.36767578125
-43.02978515625
-46.69189453125
-43.02978515625
-40.283203125
-38.4521484375
-32.958984375
-31.1279296875
-33.87451171875
-40.283203125
-33.87451171875
-27.4658203125
-12.8173828125
3.662109375
8.23974609375
4.57763671875
3.662109375
-4.57763671875
-8.23974609375
0.91552734375
12.8173828125
21.05712890625
32.958984375
43.9453125
38.4521484375
33.87451171875
33.87451171875
30.21240234375
27.4658203125
25.634765625
25.634765625
32.04345703125
29.296875
21.05712890625
16.4794921875
6.40869140625
1.8310546875
-2.74658203125
-8.23974609375
-11.90185546875
-17.39501953125
-24.71923828125
-32.958984375
-34.7900390625
-41.19873046875
-49.4384765625
-50.35400390625
-53.1005859375
-52.18505859375
-53.1005859375
-54.01611328125
-54.01611328125
-55.84716796875
-53.1005859375
-55.84716796875
-59.50927734375
-59.50927734375
-57.67822265625
-55.84716796875
-56.7626953125
-58.59375
-57.67822265625
-58.59375
-58.59375
-57.67822265625
-54.01611328125
-57.67822265625
-59.50927734375
-55.84716796875
-56.7626953125
-56.7626953125
-60.4248046875
-54.931640625
-55.84716796875
-54.931640625
-52.18505859375
-53.1005859375
-54.01611328125
-50.35400390625
-54.01611328125
-61.34033203125
-66.83349609375
-74.15771484375
-86.97509765625
-91.552734375
-75.0732421875
-50.35400390625
-16.4794921875
37.53662109375
126.3427734375
238.95263671875
343.32275390625
461.42578125
581.35986328125
676.57470703125
773.62060546875
886.23046875
1015.31982421875
1116.943359375
1146.240234375
1123.35205078125
990.6005859375
713.19580078125
408.3251953125
178.52783203125
-5.4931640625
-42.1142578125
-31.1279296875
-8.23974609375
-6.40869140625
14.6484375
46.69189453125
57.67822265625
56.7626953125
51.26953125
43.02978515625
30.21240234375
18.310546875
14.6484375
9.1552734375
4.57763671875
4.57763671875
-0.91552734375
-1.8310546875
-2.74658203125
-5.4931640625
-7.32421875
-9.1552734375
-10.07080078125
-9.1552734375
-9.1552734375
-7.32421875
-8.23974609375
-4.57763671875
-0.91552734375
-2.74658203125
-2.74658203125
-4.57763671875
-3.662109375
-6.40869140625
-8.23974609375
-6.40869140625
-3.662109375
-4.57763671875
-6.40869140625
-3.662109375
-2.74658203125
-1.8310546875
-4.57763671875
-3.662109375
-1.8310546875
-2.74658203125
-2.74658203125
0
0
4.57763671875
2.74658203125
2.74658203125
2.74658203125
3.662109375
3.662109375
3.662109375
6.40869140625
7.32421875
8.23974609375
8.23974609375
12.8173828125
13.73291015625
16.4794921875
17.39501953125
14.6484375
20.1416015625
26.55029296875
27.4658203125
23.8037109375
27.4658203125
26.55029296875
30.21240234375
30.21240234375
30.21240234375
32.958984375
34.7900390625
39.36767578125
40.283203125
43.02978515625
43.02978515625
45.7763671875
47.607421875
48.52294921875
49.4384765625
49.4384765625
52.18505859375
56.7626953125
61.34033203125
64.0869140625
67.7490234375
70.49560546875
74.15771484375
77.81982421875
80.56640625
86.0595703125
86.97509765625
87.890625
89.7216796875
94.29931640625
102.5390625
106.201171875
108.0322265625
111.6943359375
112.60986328125
113.525390625
120.849609375
123.59619140625
128.173828125
132.75146484375
133.6669921875
135.498046875
138.24462890625
140.9912109375
142.822265625
148.3154296875
150.146484375
147.39990234375
152.89306640625
151.9775390625
149.23095703125
150.146484375
145.56884765625
142.822265625
137.3291015625
130.0048828125
124.51171875
119.0185546875
116.27197265625
106.201171875
102.5390625
92.46826171875
83.31298828125
72.32666015625
64.0869140625
56.7626953125
54.931640625
45.7763671875
39.36767578125
34.7900390625
24.71923828125
17.39501953125
12.8173828125
9.1552734375
8.23974609375
4.57763671875
-2.74658203125
-7.32421875
-7.32421875
-10.986328125
-10.07080078125
-12.8173828125
-15.56396484375
-19.22607421875
-21.97265625
-23.8037109375
-21.05712890625
-20.1416015625
-23.8037109375
-28.38134765625
-26.55029296875
-26.55029296875
-27.4658203125
-26.55029296875
-27.4658203125
-30.21240234375
-30.21240234375
-29.296875
-29.296875
-29.296875
-30.21240234375
-25.634765625
-26.55029296875
-26.55029296875
-24.71923828125
-23.8037109375
-24.71923828125
-24.71923828125
-24.71923828125
-23.8037109375
-25.634765625
-24.71923828125
-26.55029296875
-28.38134765625
-23.8037109375
-22.88818359375
-27.4658203125
-26.55029296875
-20.1416015625
-17.39501953125
-17.39501953125
-16.4794921875
-17.39501953125
-17.39501953125
-16.4794921875
-13.73291015625
-12.8173828125
-12.8173828125
-13.73291015625
-12.8173828125
-12.8173828125
-13.73291015625
-8.23974609375
-10.986328125
-12.8173828125
-10.986328125
-10.07080078125
-5.4931640625
-9.1552734375
-9.1552734375
-8.23974609375
-10.986328125
-10.986328125
-11.90185546875
-11.90185546875
-7.32421875
-5.4931640625
-5.4931640625
-6.40869140625
-10.07080078125
-9.1552734375
-7.32421875
-8.23974609375
-9.1552734375
-12.8173828125
-12.8173828125
-9.1552734375
-11.90185546875
-10.986328125
-10.986328125
-10.986328125
-12.8173828125
-15.56396484375
-14.6484375
-9.1552734375
-8.23974609375
-11.90185546875
-12.8173828125
-16.4794921875
-15.56396484375
-14.6484375
-13.73291015625
-15.56396484375
-16.4794921875
-16.4794921875
-19.22607421875
-20.1416015625
-21.05712890625
-19.22607421875
-13.73291015625
-19.22607421875
-19.22607421875
-17.39501953125
-22.88818359375
-24.71923828125
-24.71923828125
-20.1416015625
-21.05712890625
-19.22607421875
-21.97265625
-22.88818359375
-27.4658203125
-26.55029296875
-24.71923828125
-28.38134765625
-29.296875
-27.4658203125
-27.4658203125
-30.21240234375
-28.38134765625
-29.296875
-27.4658203125
-26.55029296875
-26.55029296875
-25.634765625
-23.8037109375
-25.634765625
-27.4658203125
-24.71923828125
-25.634765625
-30.21240234375
-28.38134765625
-31.1279296875
-28.38134765625
-26.55029296875
-29.296875
-31.1279296875
-31.1279296875
-31.1279296875
-30.21240234375
-30.21240234375
-33.87451171875
-32.958984375
-31.1279296875
-27.4658203125
-28.38134765625
-28.38134765625
-25.634765625
-29.296875
-33.87451171875
-32.958984375
-32.958984375
-32.958984375
-34.7900390625
-33.87451171875
-30.21240234375
-32.04345703125
-27.4658203125
-32.04345703125
-33.87451171875
-29.296875
-32.04345703125
-30.21240234375
-30.21240234375
-28.38134765625
-29.296875
-33.87451171875
-30.21240234375
-31.1279296875
-32.04345703125
-35.70556640625
-33.87451171875
-37.53662109375
-36.62109375
-32.04345703125
-30.21240234375
-33.87451171875
-32.04345703125
-32.958984375
-32.04345703125
-30.21240234375
-32.958984375
-36.62109375
-35.70556640625
-41.19873046875
-37.53662109375
-36.62109375
-36.62109375
-38.4521484375
-37.53662109375
-37.53662109375
-36.62109375
-31.1279296875
-33.87451171875
-33.87451171875
-33.87451171875
-33.87451171875
-33.87451171875
-31.1279296875
-21.97265625
-11.90185546875
0
-2.74658203125
-1.8310546875
-6.40869140625
-5.4931640625
-4.57763671875
4.57763671875
12.8173828125
18.310546875
31.1279296875
38.4521484375
37.53662109375
34.7900390625
33.87451171875
30.21240234375
25.634765625
21.97265625
23.8037109375
23.8037109375
22.88818359375
18.310546875
12.8173828125
4.57763671875
-5.4931640625
-9.1552734375
-12.8173828125
-16.4794921875
-23.8037109375
-28.38134765625
-34.7900390625
-43.9453125
-50.35400390625
-53.1005859375
-54.931640625
-56.7626953125
-56.7626953125
-56.7626953125
-55.84716796875
-55.84716796875
-60.4248046875
-61.34033203125
-63.17138671875
-60.4248046875
-57.67822265625
-60.4248046875
-59.50927734375
-60.4248046875
-61.34033203125
-59.50927734375
-59.50927734375
-65.00244140625
-68.66455078125
-65.91796875
-65.91796875
-65.00244140625
-61.34033203125
-61.34033203125
-62.255859375
-56.7626953125
-56.7626953125
-58.59375
-57.67822265625
-62.255859375
-57.67822265625
-54.01611328125
-54.931640625
-62.255859375
-65.00244140625
-75.0732421875
-86.97509765625
-95.21484375
-100.7080078125
-92.46826171875
-61.34033203125
-22.88818359375
26.55029296875
108.0322265625
220.64208984375
335.0830078125
457.763671875
587.7685546875
697.6318359375
787.353515625
897.216796875
1031.79931640625
1139.83154296875
1179.19921875
1161.80419921875
1047.36328125
786.43798828125
453.18603515625
196.83837890625
-13.73291015625
-67.7490234375
-46.69189453125
-17.39501953125
-17.39501953125
-9.1552734375
23.8037109375
43.9453125
47.607421875
39.36767578125
29.296875
15.56396484375
12.8173828125
8.23974609375
-1.8310546875
-8.23974609375
-10.07080078125
-17.39501953125
-16.4794921875
-19.22607421875
-20.1416015625
-21.97265625
-24.71923828125
-24.71923828125
-23.8037109375
-20.1416015625
-21.97265625
-20.1416015625
-21.97265625
-24.71923828125
-23.8037109375
-21.05712890625
-20.1416015625
-21.05712890625
-21.05712890625
-21.97265625
-26.55029296875
-27.4658203125
-21.97265625
-15.56396484375
-12.8173828125
-17.39501953125
-21.97265625
-22.88818359375
-21.05712890625
-17.39501953125
-16.4794921875
-13.73291015625
-13.73291015625
-18.310546875
-18.310546875
-21.05712890625
-15.56396484375
-12.8173828125
-13.73291015625
-10.986328125
-16.4794921875
-11.90185546875
-10.07080078125
-11.90185546875
-9.1552734375
-5.4931640625
-3.662109375
-5.4931640625
0
1.8310546875
0
2.74658203125
0.91552734375
3.662109375
3.662109375
6.40869140625
8.23974609375
8.23974609375
13.73291015625
12.8173828125
16.4794921875
19.22607421875
27.4658203125
29.296875
25.634765625
21.97265625
25.634765625
25.634765625
30.21240234375
33.87451171875
38.4521484375
40.283203125
40.283203125
41.19873046875
44.86083984375
48.52294921875
54.01611328125
57.67822265625
61.34033203125
60.4248046875
62.255859375
66.83349609375
66.83349609375
70.49560546875
75.98876953125
81.48193359375
86.0595703125
86.97509765625
91.552734375
94.29931640625
99.79248046875
101.62353515625
102.5390625
108.0322265625
110.77880859375
114.44091796875
111.6943359375
122.6806640625
125.42724609375
127.25830078125
128.173828125
130.92041015625
127.25830078125
124.51171875
122.6806640625
130.0048828125
123.59619140625
119.0185546875
117.1875
113.525390625
108.0322265625
97.96142578125
90.63720703125
77.81982421875
69.580078125
68.66455078125
61.34033203125
54.931640625
43.02978515625
40.283203125
29.296875
23.8037109375
15.56396484375
5.4931640625
2.74658203125
2.74658203125
-3.662109375
-11.90185546875
-13.73291015625
-18.310546875
-24.71923828125
-29.296875
-29.296875
-36.62109375
-36.62109375
-39.36767578125
-42.1142578125
-47.607421875
-49.4384765625
-51.26953125
-53.1005859375
-45.7763671875
-49.4384765625
-54.931640625
-58.59375
-54.01611328125
-56.7626953125
-51.26953125
-45.7763671875
-51.26953125
-59.50927734375
-54.931640625
-52.18505859375
-56.7626953125
-56.7626953125
-58.59375
-57.67822265625
-53.1005859375
-52.18505859375
-56.7626953125
-55.84716796875
-54.931640625
-54.01611328125
-54.931640625
-54.931640625
-55.84716796875
-55.84716796875
-54.931640625
-53.1005859375
-54.01611328125
-56.7626953125
-52.18505859375
-55.84716796875
-55.84716796875
-55.84716796875
-57.67822265625
-53.1005859375
-48.52294921875
-48.52294921875
-47.607421875
-52.18505859375
-47.607421875
-47.607421875
-47.607421875
-43.9453125
-51.26953125
-53.1005859375
-50.35400390625
-49.4384765625
-47.607421875
-46.69189453125
-49.4384765625
-46.69189453125
-50.35400390625
-50.35400390625
-48.52294921875
-48.52294921875
-48.52294921875
-45.7763671875
-43.9453125
-50.35400390625
-46.69189453125
-47.607421875
-48.52294921875
-50.35400390625
-52.18505859375
-50.35400390625
-48.52294921875
-48.52294921875
-49.4384765625
-51.26953125
-50.35400390625
-52.18505859375
-58.59375
-54.931640625
-54.931640625
-52.18505859375
-53.1005859375
-52.18505859375
-54.01611328125
-58.59375
-55.84716796875
-55.84716796875
-53.1005859375
-55.84716796875
-49.4384765625
-46.69189453125
-54.01611328125
-62.255859375
-57.67822265625
-57.67822265625
-60.4248046875
-59.50927734375
-60.4248046875
-61.34033203125
-62.255859375
-67.7490234375
-65.91796875
-61.34033203125
-62.255859375
-65.00244140625
-65.00244140625
-64.0869140625
-65.91796875
-67.7490234375
-64.0869140625
-65.91796875
-67.7490234375
-66.83349609375
-66.83349609375
-70.49560546875
-68.66455078125
-72.32666015625
-73.2421875
-75.0732421875
-76.904296875
-72.32666015625
-72.32666015625
-66.83349609375
-71.4111328125
-79.65087890625
-71.4111328125
-76.904296875
-78.7353515625
-75.0732421875
-78.7353515625
-79.65087890625
-79.65087890625
-74.15771484375
-75.98876953125
-81.48193359375
-84.228515625
-84.228515625
-81.48193359375
-79.65087890625
-80.56640625
-79.65087890625
-79.65087890625
-85.14404296875
-82.3974609375
-83.31298828125
-86.0595703125
-84.228515625
-84.228515625
-86.0595703125
-85.14404296875
-85.14404296875
-83.31298828125
-82.3974609375
-85.14404296875
-86.97509765625
-84.228515625
-81.48193359375
-80.56640625
-86.0595703125
-92.46826171875
-81.48193359375
-78.7353515625
-80.56640625
-80.56640625
-84.228515625
-87.890625
-88.80615234375
-86.0595703125
-86.0595703125
-87.890625
-85.14404296875
-86.0595703125
-82.3974609375
-83.31298828125
-82.3974609375
-83.31298828125
-83.31298828125
-86.0595703125
-88.80615234375
-82.3974609375
-83.31298828125
-87.890625
-86.0595703125
-82.3974609375
-81.48193359375
-74.15771484375
-68.66455078125
-56.7626953125
-47.607421875
-50.35400390625
-53.1005859375
-45.7763671875
-34.7900390625
-26.55029296875
-19.22607421875
-21.05712890625
-12.8173828125
-10.07080078125
-10.07080078125
-8.23974609375
-10.986328125
-17.39501953125
-21.05712890625
-22.88818359375
-21.97265625
-20.1416015625
-27.4658203125
-30.21240234375
-32.04345703125
-41.19873046875
-49.4384765625
-60.4248046875
-66.83349609375
-64.0869140625
-68.66455078125
-73.2421875
-83.31298828125
-86.97509765625
-95.21484375
-96.13037109375
-92.46826171875
-93.3837890625
-91.552734375
-90.63720703125
-94.29931640625
-98.876953125
-100.7080078125
-97.96142578125
-101.62353515625
-102.5390625
-102.5390625
-100.7080078125
-102.5390625
-102.5390625
-106.201171875
-104.3701171875
-101.62353515625
-98.876953125
-101.62353515625
-103.45458984375
-107.11669921875
-104.3701171875
-101.62353515625
-97.0458984375
-94.29931640625
-97.0458984375
-97.0458984375
-99.79248046875
-104.3701171875
-98.876953125
-98.876953125
-95.21484375
-99.79248046875
-103.45458984375
-107.11669921875
-117.1875
-130.0048828125
-138.24462890625
-126.3427734375
-102.5390625
-69.580078125
-17.39501953125
46.69189453125
158.38623046875
279.23583984375
397.3388671875
532.8369140625
652.77099609375
732.421875
819.39697265625
942.9931640625
1061.09619140625
1111.4501953125
1112.36572265625
1043.701171875
831.298828125
473.32763671875
162.9638671875
-54.01611328125
-145.56884765625
-118.10302734375
-82.3974609375
-65.00244140625
-71.4111328125
-54.01611328125
-26.55029296875
-6.40869140625
3.662109375
-5.4931640625
-24.71923828125
-32.958984375
-35.70556640625
-43.02978515625
-49.4384765625
-48.52294921875
-51.26953125
-55.84716796875
-58.59375
-57.67822265625
-60.4248046875
-58.59375
-57.67822265625
-58.59375
-59.50927734375
-59.50927734375
-59.50927734375
-60.4248046875
-61.34033203125
-59.50927734375
-56.7626953125
-55.84716796875
-60.4248046875
-62.255859375
-60.4248046875
-54.931640625
-56.7626953125
-55.84716796875
-56.7626953125
-58.59375
-57.67822265625
-58.59375
-57.67822265625
-65.00244140625
-60.4248046875
-56.7626953125
-54.01611328125
-57.67822265625
-58.59375
-54.01611328125
-52.18505859375
-47.607421875
-44.86083984375
-46.69189453125
-43.02978515625
-44.86083984375
-45.7763671875
-43.9453125
-44.86083984375
-47.607421875
-43.9453125
-42.1142578125
-39.36767578125
-35.70556640625
-34.7900390625
-30.21240234375
-32.958984375
-32.958984375
-32.04345703125
-31.1279296875
-24.71923828125
-25.634765625
-24.71923828125
-22.88818359375
-17.39501953125
-16.4794921875
-11.90185546875
-12.8173828125
-17.39501953125
-10.986328125
-5.4931640625
-5.4931640625
-5.4931640625
-3.662109375
-4.57763671875
-2.74658203125
2.74658203125
10.07080078125
8.23974609375
10.986328125
11.90185546875
15.56396484375
20.1416015625
21.05712890625
21.05712890625
25.634765625
34.7900390625
39.36767578125
41.19873046875
40.283203125
41.19873046875
49.4384765625
49.4384765625
50.35400390625
52.18505859375
56.7626953125
60.4248046875
62.255859375
65.00244140625
67.7490234375
70.49560546875
72.32666015625
74.15771484375
76.904296875
77.81982421875
75.98876953125
74.15771484375
77.81982421875
75.98876953125
71.4111328125
71.4111328125
70.49560546875
66.83349609375
65.00244140625
61.34033203125
52.18505859375
51.26953125
47.607421875
41.19873046875
37.53662109375
32.958984375
26.55029296875
20.1416015625
9.1552734375
3.662109375
0
-9.1552734375
-14.6484375
-21.97265625
-20.1416015625
-28.38134765625
-31.1279296875
-39.36767578125
-41.19873046875
-43.02978515625
-53.1005859375
-55.84716796875
-59.50927734375
-59.50927734375
-60.4248046875
-65.91796875
-63.17138671875
-72.32666015625
-73.2421875
-74.15771484375
-74.15771484375
-70.49560546875
-72.32666015625
-75.98876953125
-74.15771484375
-74.15771484375
-74.15771484375
-76.904296875
-75.98876953125
-75.98876953125
-73.2421875
-70.49560546875
-71.4111328125
-74.15771484375
-75.98876953125
-77.81982421875
-80.56640625
-75.98876953125
-74.15771484375
-73.2421875
-75.0732421875
-72.32666015625
-74.15771484375
-71.4111328125
-71.4111328125
-74.15771484375
-72.32666015625
-70.49560546875
-68.66455078125
-69.580078125
-70.49560546875
-64.0869140625
-66.83349609375
-65.91796875
-66.83349609375
-67.7490234375
-65.00244140625
-59.50927734375
-62.255859375
-61.34033203125
-60.4248046875
-58.59375
-61.34033203125
-60.4248046875
-60.4248046875
-58.59375
-55.84716796875
-59.50927734375
-60.4248046875
-56.7626953125
-54.931640625
-48.52294921875
-53.1005859375
-54.931640625
-55.84716796875
-57.67822265625
-58.59375
-54.01611328125
-54.01611328125
-52.18505859375
-54.931640625
-58.59375
-55.84716796875
-56.7626953125
-60.4248046875
-57.67822265625
-56.7626953125
-58.59375
-60.4248046875
-59.50927734375
-58.59375
-63.17138671875
-58.59375
-59.50927734375
-65.91796875
-65.91796875
-65.00244140625
-64.0869140625
-65.00244140625
-61.34033203125
-62.255859375
-59.50927734375
-63.17138671875
-65.00244140625
-65.00244140625
-65.91796875
-66.83349609375
-64.0869140625
-65.91796875
-70.49560546875
-66.83349609375
-66.83349609375
-68.66455078125
-66.83349609375
-66.83349609375
-68.66455078125
-73.2421875
-74.15771484375
-75.0732421875
-73.2421875
-72.32666015625
-69.580078125
-74.15771484375
-74.15771484375
-70.49560546875
-70.49560546875
-67.7490234375
-68.66455078125
-72.32666015625
-73.2421875
-71.4111328125
-70.49560546875
-69.580078125
-68.66455078125
-76.904296875
-74.15771484375
-73.2421875
-72.32666015625
-73.2421875
-81.48193359375
-84.228515625
-83.31298828125
-75.0732421875
-73.2421875
-71.4111328125
-75.98876953125
-72.32666015625
-71.4111328125
-71.4111328125
-75.98876953125
-77.81982421875
-75.0732421875
-71.4111328125
-77.81982421875
-79.65087890625
-79.65087890625
-80.56640625
-77.81982421875
-75.0732421875
-75.98876953125
-76.904296875
-79.65087890625
-75.0732421875
-76.904296875
-77.81982421875
-78.7353515625
-76.904296875
-75.98876953125
-75.0732421875
-76.904296875
-79.65087890625
-80.56640625
-76.904296875
-73.2421875
-76.904296875
-77.81982421875
-80.56640625
-77.81982421875
-72.32666015625
-76.904296875
-83.31298828125
-78.7353515625
-77.81982421875
-75.0732421875
-75.98876953125
-77.81982421875
-74.15771484375
-73.2421875
-74.15771484375
-74.15771484375
-75.98876953125
-79.65087890625
-78.7353515625
-78.7353515625
-82.3974609375
-79.65087890625
-76.904296875
-79.65087890625
-80.56640625
-80.56640625
-76.904296875
-73.2421875
-75.0732421875
-78.7353515625
-82.3974609375
-78.7353515625
-78.7353515625
-75.98876953125
-75.98876953125
-76.904296875
-76.904296875
-78.7353515625
-75.0732421875
-68.66455078125
-63.17138671875
-56.7626953125
-48.52294921875
-41.19873046875
-37.53662109375
-41.19873046875
-46.69189453125
-40.283203125
-25.634765625
-18.310546875
-15.56396484375
-5.4931640625
1.8310546875
0
4.57763671875
1.8310546875
-11.90185546875
-14.6484375
-10.07080078125
-10.07080078125
-14.6484375
-16.4794921875
-21.05712890625
-23.8037109375
-31.1279296875
-36.62109375
-41.19873046875
-48.52294921875
-51.26953125
-56.7626953125
-60.4248046875
-67.7490234375
-75.0732421875
-81.48193359375
-82.3974609375
-86.0595703125
-86.97509765625
-85.14404296875
-84.228515625
-85.14404296875
-86.97509765625
-87.890625
-84.228515625
-85.14404296875
-86.97509765625
-84.228515625
-86.97509765625
-86.97509765625
-85.14404296875
-87.890625
-88.80615234375
-90.63720703125
-89.7216796875
-87.890625
-86.0595703125
-84.228515625
-81.48193359375
-82.3974609375
-85.14404296875
-83.31298828125
-86.0595703125
-87.890625
-87.890625
-84.228515625
-83.31298828125
-86.0595703125
-87.890625
-91.552734375
-95.21484375
-104.3701171875
-113.525390625
-119.93408203125
-119.93408203125
-100.7080078125
-74.15771484375
-36.62109375
19.22607421875
108.0322265625
219.7265625
331.4208984375
455.01708984375
584.1064453125
682.06787109375
775.45166015625
898.13232421875
1029.96826171875
1119.68994140625
1136.16943359375
1109.619140625
969.54345703125
685.72998046875
365.29541015625
126.3427734375
-50.35400390625
-75.98876953125
-60.4248046875
-35.70556640625
-33.87451171875
-16.4794921875
12.8173828125
25.634765625
23.8037109375
23.8037109375
8.23974609375
-1.8310546875
-8.23974609375
-15.56396484375
-22.88818359375
-24.71923828125
-28.38134765625
-33.87451171875
-37.53662109375
-35.70556640625
-36.62109375
-37.53662109375
-34.7900390625
-32.958984375
-35.70556640625
-36.62109375
-39.36767578125
-39.36767578125
-37.53662109375
-38.4521484375
-39.36767578125
-40.283203125
-40.283203125
-34.7900390625
-34.7900390625
-34.7900390625
-34.7900390625
-35.70556640625
-33.87451171875
-33.87451171875
-32.958984375
-32.958984375
-32.04345703125
-31.1279296875
-32.958984375
-30.21240234375
-28.38134765625
-29.296875
-28.38134765625
-25.634765625
-25.634765625
-27.4658203125
-29.296875
-25.634765625
-21.97265625
-20.1416015625
-15.56396484375
-17.39501953125
-15.56396484375
-14.6484375
-12.8173828125
-12.8173828125
-10.986328125
-9.1552734375
-10.07080078125
-5.4931640625
-1.8310546875
0.91552734375
0
-1.8310546875
0
2.74658203125
0
3.662109375
4.57763671875
8.23974609375
12.8173828125
13.73291015625
15.56396484375
19.22607421875
17.39501953125
15.56396484375
22.88818359375
25.634765625
25.634765625
30.21240234375
32.04345703125
32.958984375
34.7900390625
33.87451171875
43.02978515625
47.607421875
49.4384765625
51.26953125
53.1005859375
56.7626953125
62.255859375
65.91796875
69.580078125
73.2421875
79.65087890625
82.3974609375
86.97509765625
87.890625
92.46826171875
98.876953125
97.96142578125
99.79248046875
107.11669921875
110.77880859375
118.10302734375
117.1875
119.0185546875
123.59619140625
126.3427734375
128.173828125
130.92041015625
130.0048828125
130.92041015625
132.75146484375
131.8359375
130.0048828125
126.3427734375
121.76513671875
119.0185546875
117.1875
110.77880859375
100.7080078125
95.21484375
84.228515625
77.81982421875
69.580078125
62.255859375
56.7626953125
46.69189453125
41.19873046875
33.87451171875
25.634765625
19.22607421875
12.8173828125
2.74658203125
-0.91552734375
-8.23974609375
-10.07080078125
-12.8173828125
-19.22607421875
-23.8037109375
-27.4658203125
-29.296875
-34.7900390625
-38.4521484375
-42.1142578125
-40.283203125
-37.53662109375
-43.9453125
-51.26953125
-51.26953125
-54.01611328125
-54.931640625
-51.26953125
-48.52294921875
-50.35400390625
-53.1005859375
-54.01611328125
-54.01611328125
-56.7626953125
-53.1005859375
-53.1005859375
-55.84716796875
-57.67822265625
-55.84716796875
-57.67822265625
-54.01611328125
-53.1005859375
-53.1005859375
-55.84716796875
-54.931640625
-55.84716796875
-56.7626953125
-55.84716796875
-55.84716796875
-55.84716796875
-54.931640625
-54.931640625
-55.84716796875
-54.931640625
-53.1005859375
-50.35400390625
-51.26953125
-46.69189453125
-46.69189453125
-42.1142578125
-44.86083984375
-45.7763671875
-43.9453125
-45.7763671875
-45.7763671875
-44.86083984375
-43.02978515625
-43.9453125
-43.02978515625
-42.1142578125
-42.1142578125
-43.02978515625
-45.7763671875
-44.86083984375
-45.7763671875
-44.86083984375
-44.86083984375
-43.9453125
-41.19873046875
-43.02978515625
-43.9453125
-42.1142578125
-42.1142578125
-41.19873046875
-38.4521484375
-40.283203125
-41.19873046875
-40.283203125
-39.36767578125
-39.36767578125
-41.19873046875
-38.4521484375
-42.1142578125
-40.283203125
-38.4521484375
-40.283203125
-43.9453125
-43.9453125
-44.86083984375
-43.02978515625
-43.02978515625
-43.9453125
-43.02978515625
-43.02978515625
-45.7763671875
-45.7763671875
-45.7763671875
-43.9453125
-44.86083984375
-45.7763671875
-43.9453125
-44.86083984375
-49.4384765625
-51.26953125
-51.26953125
-52.18505859375
-52.18505859375
-54.931640625
-53.1005859375
-53.1005859375
-54.931640625
-52.18505859375
-50.35400390625
-54.01611328125
-54.01611328125
-53.1005859375
-54.01611328125
-52.18505859375
-54.01611328125
-55.84716796875
-54.931640625
-55.84716796875
-53.1005859375
-52.18505859375
-58.59375
-60.4248046875
-59.50927734375
-62.255859375
-58.59375
-56.7626953125
-56.7626953125
-61.34033203125
-55.84716796875
-56.7626953125
-63.17138671875
-60.4248046875
-59.50927734375
-60.4248046875
-62.255859375
-61.34033203125
-63.17138671875
-65.91796875
-65.91796875
-65.91796875
-60.4248046875
-60.4248046875
-59.50927734375
-62.255859375
-63.17138671875
-64.0869140625
-65.00244140625
-68.66455078125
-66.83349609375
-66.83349609375
-68.66455078125
-70.49560546875
-71.4111328125
-68.66455078125
-67.7490234375
-69.580078125
-66.83349609375
-64.0869140625
-65.00244140625
-63.17138671875
-61.34033203125
-64.0869140625
-68.66455078125
-67.7490234375
-65.91796875
-64.0869140625
-64.0869140625
-63.17138671875
-63.17138671875
-67.7490234375
-67.7490234375
-66.83349609375
-67.7490234375
-65.00244140625
-69.580078125
-68.66455078125
-66.83349609375
-67.7490234375
-66.83349609375
-71.4111328125
-70.49560546875
-69.580078125
-71.4111328125
-67.7490234375
-66.83349609375
-69.580078125
-69.580078125
-73.2421875
-74.15771484375
-73.2421875
-72.32666015625
-73.2421875
-73.2421875
-73.2421875
-69.580078125
-72.32666015625
-70.49560546875
-71.4111328125
-70.49560546875
-73.2421875
-67.7490234375
-65.00244140625
-67.7490234375
-67.7490234375
-69.580078125
-73.2421875
-70.49560546875
-70.49560546875
-64.0869140625
-64.0869140625
-64.0869140625
-65.00244140625
-62.255859375
-58.59375
-43.9453125
-33.87451171875
-29.296875
-32.958984375
-34.7900390625
-31.1279296875
-26.55029296875
-17.39501953125
-10.986328125
0
8.23974609375
8.23974609375
2.74658203125
0.91552734375
0
-0.91552734375
-4.57763671875
-11.90185546875
-8.23974609375
-7.32421875
-6.40869140625
-9.1552734375
-18.310546875
-28.38134765625
-32.958984375
-40.283203125
-42.1142578125
-43.9453125
-51.26953125
-57.67822265625
-64.0869140625
-71.4111328125
-76.904296875
-82.3974609375
-85.14404296875
-86.0595703125
-88.80615234375
-89.7216796875
-88.80615234375
-87.890625
-85.14404296875
-84.228515625
-86.0595703125
-86.97509765625
-89.7216796875
-88.80615234375
-88.80615234375
-88.80615234375
-86.0595703125
-84.228515625
-86.97509765625
-82.3974609375
-83.31298828125
-86.0595703125
-86.97509765625
-81.48193359375
-82.3974609375
-83.31298828125
-82.3974609375
-81.48193359375
-88.80615234375
-88.80615234375
-86.0595703125
-83.31298828125
-81.48193359375
-86.97509765625
-88.80615234375
-93.3837890625
-97.96142578125
-108.94775390625
-115.3564453125
-117.1875
-101.62353515625
-67.7490234375
-30.21240234375
26.55029296875
125.42724609375
238.037109375
350.64697265625
470.5810546875
588.68408203125
678.40576171875
778.1982421875
892.63916015625
1024.47509765625
1109.619140625
1127.01416015625
1094.05517578125
929.26025390625
628.0517578125
336.9140625
112.60986328125
-44.86083984375
-71.4111328125
-54.931640625
-39.36767578125
-35.70556640625
-10.986328125
13.73291015625
22.88818359375
24.71923828125
18.310546875
7.32421875
-1.8310546875
-10.07080078125
-16.4794921875
-20.1416015625
-25.634765625
-28.38134765625
-33.87451171875
-35.70556640625
-38.4521484375
-39.36767578125
-42.1142578125
-36.62109375
-34.7900390625
-32.958984375
-36.62109375
-35.70556640625
-36.62109375
-38.4521484375
-39.36767578125
-40.283203125
-41.19873046875
-43.9453125
-46.69189453125
-43.9453125
-41.19873046875
-39.36767578125
-38.4521484375
-36.62109375
-33.87451171875
-37.53662109375
-38.4521484375
-35.70556640625
-35.70556640625
-40.283203125
-35.70556640625
-34.7900390625
-32.958984375
-29.296875
-26.55029296875
-23.8037109375
-26.55029296875
-28.38134765625
-26.55029296875
-23.8037109375
-24.71923828125
-23.8037109375
-20.1416015625
-23.8037109375
-21.05712890625
-21.97265625
-20.1416015625
-20.1416015625
-17.39501953125
-15.56396484375
-13.73291015625
-15.56396484375
-10.07080078125
-6.40869140625
-6.40869140625
-6.40869140625
-7.32421875
-5.4931640625
-4.57763671875
-2.74658203125
0.91552734375
2.74658203125
4.57763671875
2.74658203125
8.23974609375
15.56396484375
19.22607421875
21.97265625
17.39501953125
21.05712890625
24.71923828125
27.4658203125
29.296875
33.87451171875
36.62109375
37.53662109375
37.53662109375
39.36767578125
45.7763671875
48.52294921875
50.35400390625
54.931640625
56.7626953125
60.4248046875
65.00244140625
70.49560546875
77.81982421875
84.228515625
86.97509765625
86.97509765625
89.7216796875
93.3837890625
95.21484375
100.7080078125
106.201171875
108.0322265625
110.77880859375
110.77880859375
116.27197265625
119.93408203125
121.76513671875
122.6806640625
122.6806640625
123.59619140625
123.59619140625
119.93408203125
118.10302734375
117.1875
114.44091796875
111.6943359375
105.28564453125
102.5390625
99.79248046875
91.552734375
86.0595703125
76.904296875
69.580078125
59.50927734375
49.4384765625
39.36767578125
32.04345703125
24.71923828125
18.310546875
11.90185546875
3.662109375
-2.74658203125
-7.32421875
-15.56396484375
-24.71923828125
-28.38134765625
-32.958984375
-33.87451171875
-36.62109375
-38.4521484375
-43.02978515625
-44.86083984375
-47.607421875
-50.35400390625
-55.84716796875
-57.67822265625
-58.59375
-60.4248046875
-56.7626953125
-62.255859375
-63.17138671875
-61.34033203125
-60.4248046875
-59.50927734375
-64.0869140625
-65.00244140625
-61.34033203125
-67.7490234375
-65.00244140625
-65.91796875
-65.00244140625
-68.66455078125
-65.91796875
-65.91796875
-64.0869140625
-63.17138671875
-60.4248046875
-65.00244140625
-66.83349609375
-61.34033203125
-58.59375
-62.255859375
-65.91796875
-64.0869140625
-65.00244140625
-64.0869140625
-64.0869140625
-62.255859375
-60.4248046875
-62.255859375
-59.50927734375
-61.34033203125
-61.34033203125
-59.50927734375
-59.50927734375
-56.7626953125
-50.35400390625
-54.01611328125
-53.1005859375
-52.18505859375
-51.26953125
-52.18505859375
-53.1005859375
-51.26953125
-50.35400390625
-48.52294921875
-50.35400390625
-52.18505859375
-52.18505859375
-51.26953125
-47.607421875
-48.52294921875
-47.607421875
-48.52294921875
-50.35400390625
-50.35400390625
-49.4384765625
-46.69189453125
-50.35400390625
-54.931640625
-54.01611328125
-54.01611328125
-53.1005859375
-54.01611328125
-51.26953125
-49.4384765625
-48.52294921875
-46.69189453125
-49.4384765625
-44.86083984375
-50.35400390625
-50.35400390625
-46.69189453125
-43.9453125
-49.4384765625
-47.607421875
-50.35400390625
-51.26953125
-52.18505859375
-52.18505859375
-53.1005859375
-58.59375
-55.84716796875
-54.01611328125
-52.18505859375
-57.67822265625
-58.59375
-59.50927734375
-58.59375
-60.4248046875
-61.34033203125
-60.4248046875
-61.34033203125
-63.17138671875
-64.0869140625
-65.00244140625
-67.7490234375
-67.7490234375
-64.0869140625
-65.00244140625
-65.00244140625
-65.00244140625
-68.66455078125
-68.66455078125
-66.83349609375
-67.7490234375
-68.66455078125
-65.91796875
-66.83349609375
-69.580078125
-69.580078125
-72.32666015625
-74.15771484375
-73.2421875
-69.580078125
-66.83349609375
-67.7490234375
-65.00244140625
-68.66455078125
-67.7490234375
-71.4111328125
-72.32666015625
-68.66455078125
-69.580078125
-73.2421875
-74.15771484375
-72.32666015625
-70.49560546875
-68.66455078125
-68.66455078125
-68.66455078125
-68.66455078125
-70.49560546875
-67.7490234375
-66.83349609375
-65.00244140625
-67.7490234375
-69.580078125
-70.49560546875
-67.7490234375
-65.00244140625
-65.91796875
-69.580078125
-67.7490234375
-68.66455078125
-73.2421875
-72.32666015625
-75.0732421875
-75.0732421875
-71.4111328125
-74.15771484375
-69.580078125
-70.49560546875
-66.83349609375
-71.4111328125
-72.32666015625
-73.2421875
-68.66455078125
-69.580078125
-68.66455078125
-70.49560546875
-73.2421875
-72.32666015625
-71.4111328125
-72.32666015625
-72.32666015625
-70.49560546875
-71.4111328125
-72.32666015625
-72.32666015625
-74.15771484375
-73.2421875
-74.15771484375
-73.2421875
-73.2421875
-69.580078125
-69.580078125
-70.49560546875
-70.49560546875
-75.0732421875
-76.904296875
-75.98876953125
-73.2421875
-73.2421875
-70.49560546875
-71.4111328125
-75.0732421875
-72.32666015625
-74.15771484375
-74.15771484375
-72.32666015625
-72.32666015625
-77.81982421875
-79.65087890625
-80.56640625
-76.904296875
-74.15771484375
-74.15771484375
-71.4111328125
-69.580078125
-71.4111328125
-65.91796875
-68.66455078125
-65.91796875
-53.1005859375
-42.1142578125
-40.283203125
-38.4521484375
-38.4521484375
-43.02978515625
-46.69189453125
-31.1279296875
-22.88818359375
-20.1416015625
-7.32421875
-1.8310546875
-7.32421875
-3.662109375
-5.4931640625
-12.8173828125
-13.73291015625
-20.1416015625
-16.4794921875
-9.1552734375
-15.56396484375
-23.8037109375
-29.296875
-34.7900390625
-43.02978515625
-50.35400390625
-56.7626953125
-59.50927734375
-65.91796875
-70.49560546875
-70.49560546875
-77.81982421875
-88.80615234375
-96.13037109375
-97.96142578125
-97.0458984375
-98.876953125
-97.96142578125
-96.13037109375
-97.96142578125
-102.5390625
-102.5390625
-102.5390625
-103.45458984375
-103.45458984375
-101.62353515625
-99.79248046875
-101.62353515625
-107.11669921875
-105.28564453125
-104.3701171875
-106.201171875
-106.201171875
-108.94775390625
-103.45458984375
-105.28564453125
-106.201171875
-108.94775390625
-106.201171875
-109.86328125
-104.3701171875
-106.201171875
-107.11669921875
-108.0322265625
-104.3701171875
-99.79248046875
-101.62353515625
-109.86328125
-115.3564453125
-119.93408203125
-127.25830078125
-134.58251953125
-128.173828125
-108.0322265625
-79.65087890625
-32.04345703125
43.02978515625
148.3154296875
261.8408203125
382.6904296875
512.6953125
619.81201171875
702.20947265625
805.6640625
940.24658203125
1057.43408203125
1116.02783203125
1117.85888671875
1040.0390625
815.73486328125
494.384765625
231.62841796875
0.91552734375
-97.96142578125
-94.29931640625
-65.00244140625
-53.1005859375
-50.35400390625
-26.55029296875
-0.91552734375
6.40869140625
3.662109375
-11.90185546875
-21.97265625
-29.296875
-38.4521484375
-45.7763671875
-50.35400390625
-50.35400390625
-48.52294921875
-55.84716796875
-59.50927734375
-62.255859375
-60.4248046875
-63.17138671875
-66.83349609375
-65.00244140625
-68.66455078125
-66.83349609375
-70.49560546875
-73.2421875
-70.49560546875
-72.32666015625
-68.66455078125
-70.49560546875
-70.49560546875
-70.49560546875
-66.83349609375
-68.66455078125
-69.580078125
-66.83349609375
-66.83349609375
-66.83349609375
-69.580078125
-72.32666015625
-74.15771484375
-69.580078125
-68.66455078125
-63.17138671875
-61.34033203125
-64.0869140625
-61.34033203125
-64.0869140625
-60.4248046875
-59.50927734375
-59.50927734375
-57.67822265625
-58.59375
-58.59375
-54.931640625
-58.59375
-56.7626953125
-54.01611328125
-54.931640625
-55.84716796875
-50.35400390625
-49.4384765625
-47.607421875
-46.69189453125
-46.69189453125
-41.19873046875
-45.7763671875
-45.7763671875
-37.53662109375
-37.53662109375
-37.53662109375
-34.7900390625
-36.62109375
-35.70556640625
-34.7900390625
-33.87451171875
-28.38134765625
-26.55029296875
-29.296875
-29.296875
-20.1416015625
-14.6484375
-16.4794921875
-17.39501953125
-10.07080078125
-8.23974609375
-5.4931640625
-1.8310546875
3.662109375
3.662109375
10.986328125
12.8173828125
13.73291015625
12.8173828125
21.97265625
21.97265625
25.634765625
32.04345703125
36.62109375
37.53662109375
41.19873046875
45.7763671875
47.607421875
47.607421875
53.1005859375
57.67822265625
63.17138671875
64.0869140625
63.17138671875
68.66455078125
71.4111328125
75.0732421875
81.48193359375
86.0595703125
91.552734375
91.552734375
90.63720703125
89.7216796875
87.890625
88.80615234375
81.48193359375
83.31298828125
80.56640625
75.0732421875
73.2421875
61.34033203125
54.01611328125
44.86083984375
43.9453125
33.87451171875
21.97265625
14.6484375
10.07080078125
0
-3.662109375
-13.73291015625
-21.97265625
-28.38134765625
-33.87451171875
-41.19873046875
-48.52294921875
-49.4384765625
-55.84716796875
-64.0869140625
-66.83349609375
-69.580078125
-74.15771484375
-78.7353515625
-79.65087890625
-77.81982421875
-83.31298828125
-88.80615234375
-89.7216796875
-87.890625
-86.97509765625
-90.63720703125
-86.0595703125
-89.7216796875
-94.29931640625
-101.62353515625
-101.62353515625
-98.876953125
-97.96142578125
-95.21484375
-95.21484375
-99.79248046875
-102.5390625
-106.201171875
-100.7080078125
-92.46826171875
-92.46826171875
-91.552734375
-96.13037109375
-100.7080078125
-98.876953125
-96.13037109375
-92.46826171875
-96.13037109375
-93.3837890625
-91.552734375
-97.0458984375
-93.3837890625
-89.7216796875
-87.890625
-86.0595703125
-86.97509765625
-93.3837890625
-93.3837890625
-93.3837890625
-92.46826171875
-89.7216796875
-87.890625
-90.63720703125
-91.552734375
-93.3837890625
-89.7216796875
-89.7216796875
-91.552734375
-94.29931640625
-92.46826171875
-90.63720703125
-89.7216796875
-89.7216796875
-89.7216796875
-86.0595703125
-86.97509765625
-92.46826171875
-94.29931640625
-90.63720703125
-91.552734375
-93.3837890625
-91.552734375
-91.552734375
-92.46826171875
-95.21484375
-91.552734375
-90.63720703125
-88.80615234375
-90.63720703125
-85.14404296875
-85.14404296875
-86.0595703125
-94.29931640625
-93.3837890625
-97.96142578125
-96.13037109375
-93.3837890625
-94.29931640625
-91.552734375
-89.7216796875
-92.46826171875
-90.63720703125
-91.552734375
-93.3837890625
-95.21484375
-95.21484375
-95.21484375
-99.79248046875
-104.3701171875
-102.5390625
-102.5390625
-100.7080078125
-101.62353515625
-98.876953125
-99.79248046875
-98.876953125
-104.3701171875
-102.5390625
-105.28564453125
-109.86328125
-105.28564453125
-103.45458984375
-108.0322265625
-109.86328125
-108.0322265625
-107.11669921875
-107.11669921875
-111.6943359375
-109.86328125
-109.86328125
-109.86328125
-110.77880859375
-114.44091796875
-110.77880859375
-108.0322265625
-106.201171875
-108.0322265625
-111.6943359375
-114.44091796875
-118.10302734375
-117.1875
-116.27197265625
-118.10302734375
-116.27197265625
-114.44091796875
-113.525390625
-118.10302734375
-117.1875
-118.10302734375
-119.0185546875
-113.525390625
-113.525390625
-115.3564453125
-113.525390625
-113.525390625
-115.3564453125
-117.1875
-119.0185546875
-124.51171875
-122.6806640625
-124.51171875
-122.6806640625
-123.59619140625
-120.849609375
-118.10302734375
-119.0185546875
-122.6806640625
-120.849609375
-121.76513671875
-123.59619140625
-119.0185546875
-120.849609375
-122.6806640625
-119.0185546875
-121.76513671875
-123.59619140625
-119.0185546875
-120.849609375
-119.93408203125
-121.76513671875
-126.3427734375
-126.3427734375
-128.173828125
-123.59619140625
-117.1875
-119.93408203125
-120.849609375
-122.6806640625
-123.59619140625
-129.08935546875
-128.173828125
-129.08935546875
-124.51171875
-121.76513671875
-123.59619140625
-124.51171875
-119.93408203125
-121.76513671875
-118.10302734375
-116.27197265625
-120.849609375
-125.42724609375
-123.59619140625
-119.0185546875
-108.94775390625
-101.62353515625
-91.552734375
-87.890625
-91.552734375
-92.46826171875
-89.7216796875
-79.65087890625
-67.7490234375
-61.34033203125
-54.931640625
-48.52294921875
-47.607421875
-52.18505859375
-51.26953125
-54.01611328125
-55.84716796875
-62.255859375
-63.17138671875
-63.17138671875
-65.00244140625
-69.580078125
-67.7490234375
-74.15771484375
-83.31298828125
-91.552734375
-97.0458984375
-101.62353515625
-108.94775390625
-113.525390625
-124.51171875
-125.42724609375
-130.0048828125
-135.498046875
-135.498046875
-138.24462890625
-137.3291015625
-134.58251953125
-131.8359375
-135.498046875
-137.3291015625
-135.498046875
-136.41357421875
-139.16015625
-141.90673828125
-134.58251953125
-135.498046875
-137.3291015625
-140.07568359375
-140.07568359375
-139.16015625
-140.07568359375
-141.90673828125
-134.58251953125
-140.07568359375
-145.56884765625
-140.07568359375
-140.9912109375
-140.9912109375
-138.24462890625
-141.90673828125
-137.3291015625
-136.41357421875
-140.07568359375
-138.24462890625
-135.498046875
-133.6669921875
-138.24462890625
-151.9775390625
-162.04833984375
-173.03466796875
-176.69677734375
-178.52783203125
-157.470703125
-125.42724609375
-84.228515625
-23.8037109375
78.7353515625
202.33154296875
321.35009765625
452.2705078125
578.61328125
670.166015625
758.97216796875
877.99072265625
1011.65771484375
1078.4912109375
1089.4775390625
1041.8701171875
867.00439453125
546.56982421875
224.30419921875
-15.56396484375
-146.484375
-143.73779296875
-110.77880859375
-89.7216796875
-94.29931640625
-89.7216796875
-62.255859375
-47.607421875
-38.4521484375
-43.02978515625
-49.4384765625
-58.59375
-63.17138671875
-70.49560546875
-78.7353515625
-84.228515625
-82.3974609375
-78.7353515625
-85.14404296875
-88.80615234375
-91.552734375
-95.21484375
-91.552734375
-97.0458984375
-90.63720703125
-92.46826171875
-89.7216796875
-87.890625
-92.46826171875
-95.21484375
-95.21484375
-95.21484375
-95.21484375
-91.552734375
-91.552734375
-88.80615234375
-91.552734375
-89.7216796875
-86.97509765625
-86.0595703125
-88.80615234375
-80.56640625
-83.31298828125
-80.56640625
-84.228515625
-85.14404296875
-84.228515625
-84.228515625
-77.81982421875
-83.31298828125
-80.56640625
-77.81982421875
-78.7353515625
-79.65087890625
-78.7353515625
-76.904296875
-76.904296875
-76.904296875
-73.2421875
-69.580078125
-67.7490234375
-66.83349609375
-66.83349609375
-65.91796875
-65.00244140625
-65.91796875
-65.91796875
-65.00244140625
-62.255859375
-54.931640625
-54.931640625
-54.01611328125
-44.86083984375
-47.607421875
-46.69189453125
-47.607421875
-43.9453125
-43.9453125
-43.02978515625
-39.36767578125
-39.36767578125
-31.1279296875
-26.55029296875
-25.634765625
-28.38134765625
-27.4658203125
-21.97265625
-19.22607421875
-17.39501953125
-20.1416015625
-14.6484375
-7.32421875
-10.07080078125
-2.74658203125
3.662109375
4.57763671875
6.40869140625
8.23974609375
12.8173828125
16.4794921875
17.39501953125
19.22607421875
26.55029296875
32.958984375
38.4521484375
35.70556640625
35.70556640625
38.4521484375
42.1142578125
45.7763671875
46.69189453125
54.01611328125
62.255859375
60.4248046875
59.50927734375
59.50927734375
59.50927734375
62.255859375
62.255859375
62.255859375
59.50927734375
57.67822265625
57.67822265625
56.7626953125
51.26953125
46.69189453125
39.36767578125
34.7900390625
26.55029296875
20.1416015625
13.73291015625
4.57763671875
-4.57763671875
-13.73291015625
-19.22607421875
-25.634765625
-28.38134765625
-32.04345703125
-38.4521484375
-43.02978515625
-54.01611328125
-54.01611328125
-57.67822265625
-63.17138671875
-67.7490234375
-73.2421875
-80.56640625
-84.228515625
-85.14404296875
-84.228515625
-88.80615234375
-93.3837890625
-97.96142578125
-97.0458984375
-98.876953125
-97.96142578125
-97.96142578125
-99.79248046875
-102.5390625
-107.11669921875
-107.11669921875
-108.0322265625
-108.0322265625
-105.28564453125
-110.77880859375
-114.44091796875
-113.525390625
-109.86328125
-108.0322265625
-110.77880859375
-114.44091796875
-112.60986328125
-110.77880859375
-111.6943359375
-112.60986328125
-112.60986328125
-114.44091796875
-115.3564453125
-116.27197265625
-110.77880859375
-111.6943359375
-111.6943359375
-108.94775390625
-108.0322265625
-107.11669921875
-105.28564453125
-103.45458984375
-98.876953125
-98.876953125
-99.79248046875
-96.13037109375
-96.13037109375
-97.0458984375
-97.96142578125
-94.29931640625
-94.29931640625
-97.0458984375
-94.29931640625
-94.29931640625
-93.3837890625
-93.3837890625
-94.29931640625
-95.21484375
-92.46826171875
-92.46826171875
-90.63720703125
-91.552734375
-93.3837890625
-93.3837890625
-92.46826171875
-93.3837890625
-92.46826171875
-88.80615234375
-90.63720703125
-88.80615234375
-89.7216796875
-89.7216796875
-90.63720703125
-89.7216796875
-91.552734375
-90.63720703125
-93.3837890625
-93.3837890625
-93.3837890625
-96.13037109375
-99.79248046875
-95.21484375
-90.63720703125
-86.0595703125
-90.63720703125
-90.63720703125
-88.80615234375
-89.7216796875
-90.63720703125
-91.552734375
-91.552734375
-93.3837890625
-97.0458984375
-96.13037109375
-92.46826171875
