ECG
-6.40869140625
-11.90185546875
-6.40869140625
-6.40869140625
-11.90185546875
-4.57763671875
-1.8310546875
-3.662109375
-10.07080078125
-1.8310546875
10.986328125
0.91552734375
-6.40869140625
-2.74658203125
0.91552734375
-5.4931640625
-0.91552734375
3.662109375
0.91552734375
5.4931640625
8.23974609375
8.23974609375
6.40869140625
2.74658203125
5.4931640625
6.40869140625
9.1552734375
3.662109375
9.1552734375
10.07080078125
10.986328125
9.1552734375
11.90185546875
13.73291015625
16.4794921875
16.4794921875
15.56396484375
16.4794921875
12.8173828125
15.56396484375
25.634765625
28.38134765625
21.97265625
28.38134765625
32.958984375
29.296875
27.4658203125
28.38134765625
34.7900390625
37.53662109375
32.958984375
40.283203125
40.283203125
43.02978515625
43.02978515625
44.86083984375
50.35400390625
48.52294921875
51.26953125
54.01611328125
57.67822265625
64.0869140625
64.0869140625
65.00244140625
69.580078125
71.4111328125
67.7490234375
73.2421875
84.228515625
81.48193359375
83.31298828125
88.80615234375
95.21484375
102.5390625
99.79248046875
110.77880859375
112.60986328125
106.201171875
112.60986328125
119.0185546875
119.93408203125
122.6806640625
127.25830078125
120.849609375
120.849609375
122.6806640625
128.173828125
128.173828125
130.92041015625
133.6669921875
133.6669921875
130.0048828125
122.6806640625
130.0048828125
129.08935546875
119.0185546875
114.44091796875
123.59619140625
119.93408203125
113.525390625
101.62353515625
93.3837890625
97.0458984375
90.63720703125
79.65087890625
61.34033203125
64.0869140625
58.59375
52.18505859375
47.607421875
39.36767578125
27.4658203125
23.8037109375
21.05712890625
12.8173828125
10.986328125
8.23974609375
8.23974609375
-2.74658203125
-6.40869140625
-7.32421875
-9.1552734375
-10.986328125
-10.07080078125
-18.310546875
-21.97265625
-17.39501953125
-17.39501953125
-21.97265625
-22.88818359375
-22.88818359375
-18.310546875
-18.310546875
-24.71923828125
-23.8037109375
-15.56396484375
-18.310546875
-22.88818359375
-24.71923828125
-23.8037109375
-21.97265625
-21.05712890625
-29.296875
-24.71923828125
-21.05712890625
-21.05712890625
-22.88818359375
-25.634765625
-19.22607421875
-21.05712890625
-24.71923828125
-21.97265625
-13.73291015625
-12.8173828125
-13.73291015625
-15.56396484375
-14.6484375
-19.22607421875
-16.4794921875
-12.8173828125
-17.39501953125
-12.8173828125
-13.73291015625
-19.22607421875
-14.6484375
-8.23974609375
-10.986328125
-13.73291015625
-12.8173828125
-10.07080078125
-11.90185546875
-20.1416015625
-20.1416015625
-15.56396484375
-24.71923828125
-17.39501953125
-9.1552734375
-19.22607421875
-19.22607421875
-18.310546875
-9.1552734375
-4.57763671875
-12.8173828125
-12.8173828125
-15.56396484375
-18.310546875
-17.39501953125
-27.4658203125
-30.21240234375
-26.55029296875
-26.55029296875
-22.88818359375
-17.39501953125
-20.1416015625
-21.97265625
-16.4794921875
-15.56396484375
-29.296875
-30.21240234375
-31.1279296875
-29.296875
-32.04345703125
-30.21240234375
-30.21240234375
-30.21240234375
-28.38134765625
-26.55029296875
-24.71923828125
-25.634765625
-30.21240234375
-31.1279296875
-31.1279296875
-30.21240234375
-36.62109375
-35.70556640625
-29.296875
-30.21240234375
-43.02978515625
-29.296875
-30.21240234375
-33.87451171875
-38.4521484375
-33.87451171875
-38.4521484375
-34.7900390625
-25.634765625
-30.21240234375
-39.36767578125
-30.21240234375
-35.70556640625
-42.1142578125
-44.86083984375
-42.1142578125
-41.19873046875
-45.7763671875
-36.62109375
-37.53662109375
-38.4521484375
-43.02978515625
-42.1142578125
-41.19873046875
-36.62109375
-36.62109375
-45.7763671875
-43.02978515625
-35.70556640625
-44.86083984375
-41.19873046875
-39.36767578125
-46.69189453125
-42.1142578125
-33.87451171875
-41.19873046875
-54.931640625
-48.52294921875
-47.607421875
-45.7763671875
-48.52294921875
-44.86083984375
-37.53662109375
-35.70556640625
-41.19873046875
-30.21240234375
-34.7900390625
-44.86083984375
-50.35400390625
-45.7763671875
-40.283203125
-41.19873046875
-50.35400390625
-46.69189453125
-45.7763671875
-45.7763671875
-53.1005859375
-38.4521484375
-36.62109375
-38.4521484375
-49.4384765625
-48.52294921875
-37.53662109375
-46.69189453125
-43.02978515625
-43.02978515625
-45.7763671875
-41.19873046875
-43.02978515625
-52.18505859375
-38.4521484375
-27.4658203125
-40.283203125
-46.69189453125
-39.36767578125
-49.4384765625
-52.18505859375
-43.02978515625
-31.1279296875
-46.69189453125
-77.81982421875
-28.38134765625
-16.4794921875
-45.7763671875
-37.53662109375
-34.7900390625
-45.7763671875
-46.69189453125
-35.70556640625
-40.283203125
-57.67822265625
-55.84716796875
-43.9453125
-43.02978515625
-52.18505859375
-43.02978515625
-39.36767578125
-37.53662109375
-39.36767578125
-51.26953125
-51.26953125
-57.67822265625
-33.87451171875
-30.21240234375
-43.9453125
-46.69189453125
-29.296875
-31.1279296875
-40.283203125
-33.87451171875
-32.04345703125
-33.87451171875
-34.7900390625
-34.7900390625
-38.4521484375
-39.36767578125
-54.931640625
-14.6484375
-14.6484375
-45.7763671875
-41.19873046875
-29.296875
-51.26953125
-47.607421875
-22.88818359375
-32.958984375
-32.04345703125
-32.958984375
-32.04345703125
-32.958984375
-31.1279296875
-30.21240234375
-30.21240234375
-29.296875
-36.62109375
-41.19873046875
-38.4521484375
-35.70556640625
-26.55029296875
-27.4658203125
-45.7763671875
-6.40869140625
-18.310546875
-41.19873046875
-29.296875
-29.296875
-37.53662109375
-39.36767578125
-31.1279296875
-36.62109375
-28.38134765625
-27.4658203125
-31.1279296875
-28.38134765625
-19.22607421875
-21.05712890625
-10.986328125
6.40869140625
8.23974609375
6.40869140625
8.23974609375
9.1552734375
0
3.662109375
17.39501953125
25.634765625
32.958984375
41.19873046875
43.02978515625
39.36767578125
43.02978515625
46.69189453125
33.87451171875
32.958984375
37.53662109375
46.69189453125
45.7763671875
39.36767578125
21.05712890625
18.310546875
10.986328125
7.32421875
-5.4931640625
-8.23974609375
-10.07080078125
-16.4794921875
-27.4658203125
-30.21240234375
-26.55029296875
-39.36767578125
-43.9453125
-36.62109375
-39.36767578125
-39.36767578125
-38.4521484375
-42.1142578125
-45.7763671875
-48.52294921875
-60.4248046875
-54.931640625
-43.9453125
-51.26953125
-49.4384765625
-47.607421875
-47.607421875
-45.7763671875
-50.35400390625
-55.84716796875
-47.607421875
-48.52294921875
-43.9453125
-47.607421875
-38.4521484375
-42.1142578125
-54.01611328125
-50.35400390625
-49.4384765625
-46.69189453125
-43.9453125
-43.02978515625
-49.4384765625
-52.18505859375
-56.7626953125
-60.4248046875
-73.2421875
-76.904296875
-77.81982421875
-88.80615234375
-85.14404296875
-71.4111328125
-35.70556640625
14.6484375
89.7216796875
190.4296875
296.630859375
412.90283203125
523.681640625
634.46044921875
729.67529296875
840.4541015625
974.12109375
1107.7880859375
1169.12841796875
1168.212890625
1109.619140625
894.47021484375
579.52880859375
322.265625
97.0458984375
-14.6484375
-31.1279296875
-20.1416015625
-17.39501953125
4.57763671875
32.04345703125
49.4384765625
49.4384765625
54.01611328125
47.607421875
34.7900390625
21.97265625
15.56396484375
18.310546875
14.6484375
2.74658203125
6.40869140625
3.662109375
-5.4931640625
-10.07080078125
-8.23974609375
-0.91552734375
-3.662109375
0.91552734375
-6.40869140625
-22.88818359375
-10.986328125
4.57763671875
4.57763671875
-4.57763671875
-7.32421875
-5.4931640625
-8.23974609375
-10.07080078125
1.8310546875
0.91552734375
0
-0.91552734375
-7.32421875
-0.91552734375
-2.74658203125
-1.8310546875
-3.662109375
-4.57763671875
1.8310546875
-3.662109375
-1.8310546875
1.8310546875
6.40869140625
9.1552734375
11.90185546875
7.32421875
-4.57763671875
2.74658203125
10.07080078125
13.73291015625
10.986328125
11.90185546875
14.6484375
13.73291015625
12.8173828125
9.1552734375
16.4794921875
15.56396484375
14.6484375
20.1416015625
24.71923828125
21.97265625
15.56396484375
19.22607421875
21.97265625
27.4658203125
24.71923828125
30.21240234375
33.87451171875
32.04345703125
30.21240234375
43.02978515625
39.36767578125
37.53662109375
44.86083984375
49.4384765625
48.52294921875
50.35400390625
47.607421875
47.607421875
49.4384765625
50.35400390625
48.52294921875
65.91796875
60.4248046875
61.34033203125
66.83349609375
65.91796875
60.4248046875
67.7490234375
91.552734375
94.29931640625
86.0595703125
88.80615234375
97.0458984375
104.3701171875
108.0322265625
105.28564453125
106.201171875
116.27197265625
122.6806640625
122.6806640625
121.76513671875
126.3427734375
130.0048828125
129.08935546875
133.6669921875
127.25830078125
134.58251953125
150.146484375
157.470703125
153.80859375
152.89306640625
155.6396484375
152.89306640625
159.3017578125
162.04833984375
162.04833984375
161.1328125
162.9638671875
155.6396484375
156.55517578125
162.04833984375
154.72412109375
150.146484375
151.06201171875
141.90673828125
143.73779296875
147.39990234375
129.08935546875
126.3427734375
114.44091796875
102.5390625
94.29931640625
90.63720703125
79.65087890625
75.0732421875
69.580078125
60.4248046875
54.931640625
43.9453125
43.9453125
45.7763671875
36.62109375
21.97265625
18.310546875
21.97265625
23.8037109375
17.39501953125
8.23974609375
3.662109375
4.57763671875
4.57763671875
0
-9.1552734375
-5.4931640625
-6.40869140625
-18.310546875
-11.90185546875
-9.1552734375
-10.07080078125
-2.74658203125
-0.91552734375
-10.986328125
-19.22607421875
-26.55029296875
-21.05712890625
-19.22607421875
-13.73291015625
-9.1552734375
-10.07080078125
-13.73291015625
-21.97265625
-17.39501953125
-12.8173828125
-5.4931640625
-3.662109375
-3.662109375
-4.57763671875
-6.40869140625
-9.1552734375
-14.6484375
-8.23974609375
-17.39501953125
-13.73291015625
0
-8.23974609375
-8.23974609375
-10.986328125
-9.1552734375
0.91552734375
-6.40869140625
1.8310546875
3.662109375
-0.91552734375
-5.4931640625
-9.1552734375
-13.73291015625
-2.74658203125
-2.74658203125
-2.74658203125
-4.57763671875
1.8310546875
1.8310546875
-0.91552734375
-4.57763671875
-13.73291015625
-8.23974609375
-3.662109375
-10.07080078125
-5.4931640625
-6.40869140625
-5.4931640625
-5.4931640625
-11.90185546875
-11.90185546875
-10.986328125
-9.1552734375
-13.73291015625
-12.8173828125
-10.986328125
-9.1552734375
-7.32421875
-2.74658203125
-14.6484375
-12.8173828125
-7.32421875
-12.8173828125
-11.90185546875
-17.39501953125
-15.56396484375
-10.986328125
-10.986328125
-9.1552734375
-8.23974609375
-13.73291015625
-14.6484375
-13.73291015625
-17.39501953125
-25.634765625
-22.88818359375
-17.39501953125
-10.07080078125
-15.56396484375
-18.310546875
-21.97265625
-18.310546875
-18.310546875
-22.88818359375
-29.296875
-24.71923828125
-23.8037109375
-21.05712890625
-25.634765625
-22.88818359375
-36.62109375
-37.53662109375
-23.8037109375
-21.05712890625
-39.36767578125
-34.7900390625
-32.958984375
-34.7900390625
-26.55029296875
-25.634765625
-33.87451171875
-36.62109375
-33.87451171875
-32.958984375
-35.70556640625
-26.55029296875
-23.8037109375
-31.1279296875
-32.958984375
-39.36767578125
-30.21240234375
-24.71923828125
-49.4384765625
-43.9453125
-26.55029296875
-33.87451171875
-35.70556640625
-39.36767578125
-39.36767578125
-38.4521484375
-40.283203125
-32.958984375
-34.7900390625
-32.958984375
-38.4521484375
-37.53662109375
-29.296875
-36.62109375
-45.7763671875
-39.36767578125
-38.4521484375
-35.70556640625
-39.36767578125
-34.7900390625
-32.958984375
-33.87451171875
-39.36767578125
-41.19873046875
-39.36767578125
-41.19873046875
-45.7763671875
-39.36767578125
-35.70556640625
-32.958984375
-42.1142578125
-44.86083984375
-39.36767578125
-47.607421875
-40.283203125
-35.70556640625
-40.283203125
-46.69189453125
-48.52294921875
-38.4521484375
-45.7763671875
-36.62109375
-35.70556640625
-40.283203125
-39.36767578125
-51.26953125
-43.9453125
-39.36767578125
-32.958984375
-35.70556640625
-45.7763671875
-49.4384765625
-46.69189453125
-43.02978515625
-41.19873046875
-33.87451171875
-34.7900390625
-37.53662109375
-50.35400390625
-47.607421875
-39.36767578125
-39.36767578125
-32.958984375
-39.36767578125
-43.02978515625
-44.86083984375
-56.7626953125
-50.35400390625
-52.18505859375
-47.607421875
-48.52294921875
-53.1005859375
-50.35400390625
-42.1142578125
-45.7763671875
-49.4384765625
-59.50927734375
-43.9453125
-43.9453125
-53.1005859375
-57.67822265625
-40.283203125
-31.1279296875
-38.4521484375
-51.26953125
-49.4384765625
-48.52294921875
-54.01611328125
-60.4248046875
-57.67822265625
-49.4384765625
-49.4384765625
-49.4384765625
-43.02978515625
-41.19873046875
-34.7900390625
-43.9453125
-52.18505859375
-50.35400390625
-49.4384765625
-50.35400390625
-42.1142578125
-43.9453125
-46.69189453125
-45.7763671875
-44.86083984375
-43.9453125
-49.4384765625
-43.02978515625
-43.02978515625
-46.69189453125
-53.1005859375
-48.52294921875
-42.1142578125
-43.9453125
-42.1142578125
-34.7900390625
-29.296875
-32.04345703125
-40.283203125
-32.958984375
-29.296875
-13.73291015625
-2.74658203125
-1.8310546875
-1.8310546875
-10.07080078125
-11.90185546875
-5.4931640625
-1.8310546875
8.23974609375
23.8037109375
32.958984375
30.21240234375
26.55029296875
19.22607421875
21.05712890625
21.05712890625
7.32421875
10.986328125
6.40869140625
-8.23974609375
-5.4931640625
1.8310546875
-4.57763671875
-12.8173828125
-23.8037109375
-21.05712890625
-29.296875
-31.1279296875
-37.53662109375
-45.7763671875
-43.02978515625
-52.18505859375
-55.84716796875
-53.1005859375
-60.4248046875
-55.84716796875
-54.01611328125
-60.4248046875
-64.0869140625
-71.4111328125
-65.91796875
-60.4248046875
-74.15771484375
-70.49560546875
-65.91796875
-65.91796875
-62.255859375
-63.17138671875
-61.34033203125
-59.50927734375
-63.17138671875
-60.4248046875
-62.255859375
-65.00244140625
-65.00244140625
-62.255859375
-45.7763671875
-49.4384765625
-62.255859375
-65.00244140625
-61.34033203125
-64.0869140625
-57.67822265625
-54.01611328125
-61.34033203125
-67.7490234375
-77.81982421875
-98.876953125
-110.77880859375
-109.86328125
-91.552734375
-77.81982421875
-44.86083984375
8.23974609375
87.890625
190.4296875
295.71533203125
412.90283203125
541.07666015625
650.93994140625
746.15478515625
869.7509765625
999.755859375
1110.53466796875
1160.888671875
1168.212890625
1080.322265625
834.04541015625
520.01953125
286.56005859375
65.00244140625
-41.19873046875
-45.7763671875
-17.39501953125
-12.8173828125
-10.986328125
21.05712890625
44.86083984375
44.86083984375
39.36767578125
37.53662109375
28.38134765625
17.39501953125
8.23974609375
-3.662109375
-2.74658203125
-6.40869140625
-13.73291015625
-20.1416015625
-15.56396484375
-15.56396484375
-10.07080078125
-15.56396484375
-10.07080078125
-16.4794921875
-21.05712890625
-23.8037109375
-20.1416015625
-15.56396484375
-10.986328125
-10.07080078125
-14.6484375
-25.634765625
-30.21240234375
-26.55029296875
-22.88818359375
-17.39501953125
-12.8173828125
-14.6484375
-19.22607421875
-23.8037109375
-15.56396484375
-3.662109375
-2.74658203125
-12.8173828125
-12.8173828125
-14.6484375
-15.56396484375
-11.90185546875
-6.40869140625
-11.90185546875
-13.73291015625
-18.310546875
-3.662109375
-0.91552734375
0.91552734375
0.91552734375
-1.8310546875
-3.662109375
-11.90185546875
-5.4931640625
6.40869140625
6.40869140625
-7.32421875
-5.4931640625
2.74658203125
-0.91552734375
3.662109375
9.1552734375
-7.32421875
2.74658203125
2.74658203125
10.07080078125
16.4794921875
10.986328125
14.6484375
19.22607421875
16.4794921875
20.1416015625
27.4658203125
22.88818359375
18.310546875
19.22607421875
22.88818359375
20.1416015625
26.55029296875
34.7900390625
41.19873046875
43.02978515625
44.86083984375
37.53662109375
44.86083984375
54.01611328125
53.1005859375
54.931640625
64.0869140625
69.580078125
59.50927734375
66.83349609375
75.0732421875
83.31298828125
74.15771484375
73.2421875
89.7216796875
90.63720703125
89.7216796875
87.890625
93.3837890625
106.201171875
119.93408203125
122.6806640625
113.525390625
112.60986328125
115.3564453125
112.60986328125
117.1875
121.76513671875
120.849609375
119.0185546875
137.3291015625
140.07568359375
139.16015625
149.23095703125
150.146484375
149.23095703125
151.06201171875
154.72412109375
150.146484375
139.16015625
140.07568359375
136.41357421875
137.3291015625
137.3291015625
128.173828125
121.76513671875
125.42724609375
119.93408203125
108.94775390625
100.7080078125
94.29931640625
86.0595703125
83.31298828125
75.98876953125
70.49560546875
54.01611328125
56.7626953125
59.50927734375
43.9453125
32.04345703125
22.88818359375
7.32421875
11.90185546875
23.8037109375
21.05712890625
12.8173828125
10.986328125
9.1552734375
0.91552734375
-12.8173828125
-16.4794921875
-12.8173828125
-17.39501953125
-20.1416015625
-16.4794921875
-19.22607421875
-22.88818359375
-32.958984375
-21.97265625
-21.97265625
-26.55029296875
-24.71923828125
-21.05712890625
-6.40869140625
-17.39501953125
-15.56396484375
-16.4794921875
-20.1416015625
-26.55029296875
-22.88818359375
-26.55029296875
-24.71923828125
-26.55029296875
-22.88818359375
-32.958984375
-22.88818359375
-13.73291015625
-9.1552734375
0
-7.32421875
-18.310546875
-26.55029296875
-18.310546875
-18.310546875
-26.55029296875
-26.55029296875
-19.22607421875
-10.986328125
-5.4931640625
-10.986328125
-0.91552734375
-4.57763671875
-12.8173828125
-10.986328125
-10.07080078125
-8.23974609375
-13.73291015625
-22.88818359375
-8.23974609375
2.74658203125
-7.32421875
-8.23974609375
-2.74658203125
-10.986328125
-17.39501953125
-9.1552734375
-20.1416015625
-16.4794921875
-22.88818359375
-14.6484375
-21.97265625
-17.39501953125
-21.05712890625
-5.4931640625
1.8310546875
-9.1552734375
-19.22607421875
-25.634765625
-21.05712890625
-12.8173828125
-12.8173828125
-18.310546875
-16.4794921875
-10.986328125
-20.1416015625
-21.97265625
-34.7900390625
-28.38134765625
-27.4658203125
-16.4794921875
-21.97265625
-33.87451171875
-32.04345703125
-16.4794921875
-13.73291015625
-16.4794921875
-23.8037109375
-32.958984375
-24.71923828125
-27.4658203125
-20.1416015625
-26.55029296875
-16.4794921875
-35.70556640625
-46.69189453125
-43.02978515625
-32.04345703125
-19.22607421875
-24.71923828125
-25.634765625
-31.1279296875
-30.21240234375
-33.87451171875
-33.87451171875
-32.04345703125
-36.62109375
-45.7763671875
-41.19873046875
-43.9453125
-44.86083984375
-38.4521484375
-40.283203125
-44.86083984375
-41.19873046875
-44.86083984375
-41.19873046875
-34.7900390625
-39.36767578125
-43.02978515625
-42.1142578125
-53.1005859375
-44.86083984375
-44.86083984375
-56.7626953125
-58.59375
-54.01611328125
-43.02978515625
-35.70556640625
-37.53662109375
-43.02978515625
-38.4521484375
-51.26953125
-49.4384765625
-37.53662109375
-45.7763671875
-43.02978515625
-43.02978515625
-41.19873046875
-47.607421875
-57.67822265625
-55.84716796875
-59.50927734375
-54.931640625
-50.35400390625
-44.86083984375
-44.86083984375
-43.02978515625
-43.9453125
-42.1142578125
-43.9453125
-52.18505859375
-53.1005859375
-47.607421875
-45.7763671875
-52.18505859375
-52.18505859375
-55.84716796875
-57.67822265625
-54.931640625
-43.02978515625
-54.931640625
-61.34033203125
-47.607421875
-61.34033203125
-60.4248046875
-48.52294921875
-44.86083984375
-53.1005859375
-44.86083984375
-42.1142578125
-46.69189453125
-45.7763671875
-44.86083984375
-52.18505859375
-46.69189453125
-41.19873046875
-46.69189453125
-50.35400390625
-45.7763671875
-43.9453125
-51.26953125
-45.7763671875
-46.69189453125
-49.4384765625
-43.9453125
-40.283203125
-38.4521484375
-36.62109375
-45.7763671875
-51.26953125
-46.69189453125
-49.4384765625
-53.1005859375
-43.9453125
-30.21240234375
-29.296875
-23.8037109375
-20.1416015625
-14.6484375
-10.07080078125
-10.07080078125
2.74658203125
3.662109375
9.1552734375
11.90185546875
14.6484375
17.39501953125
25.634765625
45.7763671875
38.4521484375
31.1279296875
15.56396484375
19.22607421875
29.296875
11.90185546875
0.91552734375
7.32421875
0.91552734375
0.91552734375
-4.57763671875
-14.6484375
-33.87451171875
-32.04345703125
-33.87451171875
-37.53662109375
-49.4384765625
-50.35400390625
-54.01611328125
-60.4248046875
-58.59375
-66.83349609375
-67.7490234375
-64.0869140625
-65.91796875
-64.0869140625
-54.931640625
-66.83349609375
-69.580078125
-71.4111328125
-73.2421875
-61.34033203125
-66.83349609375
-69.580078125
-67.7490234375
-61.34033203125
-55.84716796875
-57.67822265625
-65.91796875
-60.4248046875
-52.18505859375
-58.59375
-61.34033203125
-65.00244140625
-65.91796875
-66.83349609375
-55.84716796875
-59.50927734375
-61.34033203125
-65.91796875
-66.83349609375
-65.00244140625
-56.7626953125
-86.0595703125
-101.62353515625
-112.60986328125
-103.45458984375
-79.65087890625
-50.35400390625
-8.23974609375
39.36767578125
129.08935546875
265.5029296875
388.18359375
513.61083984375
644.53125
747.98583984375
834.9609375
951.23291015625
1087.646484375
1172.79052734375
1187.43896484375
1145.32470703125
982.36083984375
687.56103515625
367.12646484375
114.44091796875
-43.9453125
-69.580078125
-34.7900390625
-20.1416015625
-14.6484375
-18.310546875
-8.23974609375
17.39501953125
26.55029296875
27.4658203125
14.6484375
7.32421875
10.07080078125
6.40869140625
-8.23974609375
-11.90185546875
-13.73291015625
-14.6484375
-21.05712890625
-21.05712890625
-15.56396484375
-29.296875
-37.53662109375
-44.86083984375
-41.19873046875
-38.4521484375
-28.38134765625
-24.71923828125
-19.22607421875
-19.22607421875
-23.8037109375
-23.8037109375
-9.1552734375
-16.4794921875
-23.8037109375
-32.958984375
-36.62109375
-29.296875
-22.88818359375
-21.97265625
-18.310546875
-19.22607421875
-14.6484375
-10.986328125
-6.40869140625
-19.22607421875
-26.55029296875
-22.88818359375
-6.40869140625
-8.23974609375
-9.1552734375
-4.57763671875
-5.4931640625
-10.07080078125
-12.8173828125
-8.23974609375
-13.73291015625
-13.73291015625
-9.1552734375
-6.40869140625
-4.57763671875
-2.74658203125
-0.91552734375
2.74658203125
7.32421875
-5.4931640625
-4.57763671875
-2.74658203125
6.40869140625
4.57763671875
1.8310546875
7.32421875
10.07080078125
21.05712890625
19.22607421875
15.56396484375
16.4794921875
16.4794921875
21.97265625
23.8037109375
30.21240234375
30.21240234375
30.21240234375
34.7900390625
40.283203125
39.36767578125
40.283203125
40.283203125
44.86083984375
45.7763671875
43.02978515625
41.19873046875
54.931640625
62.255859375
68.66455078125
65.91796875
59.50927734375
59.50927734375
64.0869140625
68.66455078125
76.904296875
78.7353515625
81.48193359375
91.552734375
93.3837890625
89.7216796875
90.63720703125
97.0458984375
88.80615234375
88.80615234375
102.5390625
107.11669921875
107.11669921875
101.62353515625
104.3701171875
105.28564453125
108.94775390625
118.10302734375
115.3564453125
112.60986328125
114.44091796875
124.51171875
121.76513671875
120.849609375
123.59619140625
117.1875
120.849609375
115.3564453125
116.27197265625
115.3564453125
114.44091796875
110.77880859375
105.28564453125
100.7080078125
83.31298828125
84.228515625
82.3974609375
79.65087890625
61.34033203125
55.84716796875
51.26953125
47.607421875
47.607421875
36.62109375
18.310546875
19.22607421875
19.22607421875
4.57763671875
-1.8310546875
0
4.57763671875
1.8310546875
-5.4931640625
-12.8173828125
-18.310546875
-19.22607421875
-18.310546875
-21.05712890625
-32.04345703125
-30.21240234375
-33.87451171875
-31.1279296875
-36.62109375
-39.36767578125
-32.958984375
-39.36767578125
-42.1142578125
-32.958984375
-34.7900390625
-43.9453125
-48.52294921875
-48.52294921875
-38.4521484375
-40.283203125
-37.53662109375
-34.7900390625
-41.19873046875
-38.4521484375
-36.62109375
-32.958984375
-37.53662109375
-35.70556640625
-29.296875
-25.634765625
-23.8037109375
-37.53662109375
-37.53662109375
-38.4521484375
-33.87451171875
-26.55029296875
-32.958984375
-33.87451171875
-28.38134765625
-32.04345703125
-29.296875
-27.4658203125
-33.87451171875
-34.7900390625
-21.97265625
-29.296875
-32.04345703125
-24.71923828125
-27.4658203125
-29.296875
-28.38134765625
-29.296875
-31.1279296875
-30.21240234375
-23.8037109375
-28.38134765625
-36.62109375
-29.296875
-24.71923828125
-28.38134765625
-24.71923828125
-23.8037109375
-24.71923828125
-31.1279296875
-32.04345703125
-32.04345703125
-32.04345703125
-34.7900390625
-29.296875
-32.04345703125
-33.87451171875
-33.87451171875
-36.62109375
-32.958984375
-31.1279296875
-35.70556640625
-33.87451171875
-36.62109375
-37.53662109375
-45.7763671875
-46.69189453125
-44.86083984375
-41.19873046875
-29.296875
-32.958984375
-42.1142578125
-38.4521484375
-43.02978515625
-46.69189453125
-44.86083984375
-45.7763671875
-50.35400390625
-45.7763671875
-43.9453125
-44.86083984375
-47.607421875
-49.4384765625
-49.4384765625
-51.26953125
-56.7626953125
-47.607421875
-43.02978515625
-55.84716796875
-60.4248046875
-54.931640625
-53.1005859375
-47.607421875
-43.02978515625
-43.9453125
-43.9453125
-48.52294921875
-50.35400390625
-49.4384765625
-58.59375
-47.607421875
-51.26953125
-50.35400390625
-50.35400390625
-52.18505859375
-50.35400390625
-47.607421875
-52.18505859375
-63.17138671875
-56.7626953125
-51.26953125
-58.59375
-56.7626953125
-57.67822265625
-62.255859375
-48.52294921875
-47.607421875
-48.52294921875
-57.67822265625
-53.1005859375
-55.84716796875
-60.4248046875
-58.59375
-55.84716796875
-61.34033203125
-65.00244140625
-61.34033203125
-57.67822265625
-55.84716796875
-56.7626953125
-58.59375
-59.50927734375
-59.50927734375
-55.84716796875
-56.7626953125
-59.50927734375
-57.67822265625
-55.84716796875
-53.1005859375
-55.84716796875
-65.00244140625
-60.4248046875
-56.7626953125
-54.01611328125
-53.1005859375
-54.01611328125
-61.34033203125
-65.91796875
-52.18505859375
-55.84716796875
-54.01611328125
-48.52294921875
-58.59375
-62.255859375
-62.255859375
-68.66455078125
-64.0869140625
-56.7626953125
-59.50927734375
-55.84716796875
-59.50927734375
-70.49560546875
-52.18505859375
-35.70556640625
-43.02978515625
-44.86083984375
-31.1279296875
-19.22607421875
-21.05712890625
-29.296875
-23.8037109375
-23.8037109375
-10.986328125
-6.40869140625
-8.23974609375
-0.91552734375
3.662109375
6.40869140625
0
-3.662109375
-1.8310546875
6.40869140625
0
-1.8310546875
0.91552734375
-2.74658203125
-7.32421875
-7.32421875
-16.4794921875
-24.71923828125
-32.04345703125
-36.62109375
-39.36767578125
-51.26953125
-55.84716796875
-61.34033203125
-67.7490234375
-75.98876953125
-75.0732421875
-75.98876953125
-83.31298828125
-86.97509765625
-85.14404296875
-77.81982421875
-78.7353515625
-84.228515625
-85.14404296875
-83.31298828125
-84.228515625
-84.228515625
-83.31298828125
-88.80615234375
-91.552734375
-92.46826171875
-88.80615234375
-85.14404296875
-81.48193359375
-84.228515625
-86.0595703125
-80.56640625
-81.48193359375
-88.80615234375
-92.46826171875
-87.890625
-87.890625
-81.48193359375
-80.56640625
-82.3974609375
-90.63720703125
-81.48193359375
-80.56640625
-86.0595703125
-101.62353515625
-99.79248046875
-102.5390625
-109.86328125
-103.45458984375
-75.98876953125
-43.9453125
3.662109375
89.7216796875
209.65576171875
314.94140625
433.9599609375
567.626953125
678.40576171875
766.29638671875
872.49755859375
1014.404296875
1120.60546875
1152.64892578125
1142.578125
1025.390625
769.04296875
453.18603515625
199.5849609375
-12.8173828125
-75.0732421875
-73.2421875
-45.7763671875
-38.4521484375
-35.70556640625
-16.4794921875
5.4931640625
21.05712890625
12.8173828125
3.662109375
-6.40869140625
-18.310546875
-15.56396484375
-22.88818359375
-38.4521484375
-35.70556640625
-29.296875
-32.958984375
-39.36767578125
-42.1142578125
-44.86083984375
-48.52294921875
-43.9453125
-42.1142578125
-43.9453125
-44.86083984375
-44.86083984375
-43.9453125
-40.283203125
-38.4521484375
-43.9453125
-44.86083984375
-42.1142578125
-43.02978515625
-38.4521484375
-33.87451171875
-41.19873046875
-41.19873046875
-43.9453125
-41.19873046875
-34.7900390625
-39.36767578125
-45.7763671875
-43.9453125
-43.9453125
-38.4521484375
-39.36767578125
-43.9453125
-34.7900390625
-33.87451171875
-39.36767578125
-43.02978515625
-40.283203125
-36.62109375
-37.53662109375
-36.62109375
-32.04345703125
-28.38134765625
-30.21240234375
-25.634765625
-22.88818359375
-18.310546875
-17.39501953125
-25.634765625
-21.97265625
-24.71923828125
-20.1416015625
-17.39501953125
-13.73291015625
-10.986328125
-10.07080078125
-11.90185546875
-11.90185546875
-2.74658203125
-6.40869140625
-5.4931640625
-5.4931640625
-8.23974609375
1.8310546875
4.57763671875
2.74658203125
2.74658203125
9.1552734375
7.32421875
10.07080078125
17.39501953125
21.05712890625
17.39501953125
17.39501953125
27.4658203125
28.38134765625
31.1279296875
22.88818359375
23.8037109375
30.21240234375
39.36767578125
45.7763671875
53.1005859375
53.1005859375
56.7626953125
61.34033203125
64.0869140625
68.66455078125
71.4111328125
72.32666015625
76.904296875
83.31298828125
87.890625
90.63720703125
95.21484375
94.29931640625
92.46826171875
99.79248046875
103.45458984375
102.5390625
112.60986328125
114.44091796875
113.525390625
111.6943359375
126.3427734375
123.59619140625
119.0185546875
114.44091796875
112.60986328125
120.849609375
128.173828125
114.44091796875
103.45458984375
102.5390625
96.13037109375
91.552734375
92.46826171875
87.890625
78.7353515625
73.2421875
66.83349609375
56.7626953125
43.9453125
35.70556640625
30.21240234375
29.296875
21.05712890625
7.32421875
2.74658203125
4.57763671875
-7.32421875
-16.4794921875
-20.1416015625
-31.1279296875
-31.1279296875
-31.1279296875
-32.958984375
-35.70556640625
-43.9453125
-56.7626953125
-54.931640625
-53.1005859375
-55.84716796875
-61.34033203125
-55.84716796875
-59.50927734375
-61.34033203125
-61.34033203125
-61.34033203125
-57.67822265625
-58.59375
-59.50927734375
-59.50927734375
-59.50927734375
-60.4248046875
-63.17138671875
-54.931640625
-64.0869140625
-63.17138671875
-62.255859375
-60.4248046875
-60.4248046875
-62.255859375
-63.17138671875
-65.91796875
-66.83349609375
-71.4111328125
-61.34033203125
-54.931640625
-59.50927734375
-57.67822265625
-56.7626953125
-51.26953125
-54.01611328125
-57.67822265625
-53.1005859375
-52.18505859375
-52.18505859375
-54.01611328125
-50.35400390625
-58.59375
-56.7626953125
-54.01611328125
-51.26953125
-52.18505859375
-50.35400390625
-51.26953125
-58.59375
-54.931640625
-54.01611328125
-52.18505859375
-52.18505859375
-59.50927734375
-72.32666015625
-55.84716796875
-43.9453125
-44.86083984375
-45.7763671875
-54.01611328125
-55.84716796875
-50.35400390625
-54.01611328125
-54.931640625
-52.18505859375
-52.18505859375
-45.7763671875
-43.9453125
-50.35400390625
-51.26953125
-52.18505859375
-47.607421875
-52.18505859375
-52.18505859375
-56.7626953125
-51.26953125
-50.35400390625
-54.931640625
-53.1005859375
-51.26953125
-53.1005859375
-53.1005859375
-61.34033203125
-67.7490234375
-67.7490234375
-66.83349609375
-66.83349609375
-68.66455078125
-64.0869140625
-55.84716796875
-55.84716796875
-58.59375
-65.91796875
-72.32666015625
-65.91796875
-57.67822265625
-56.7626953125
-65.00244140625
-69.580078125
-65.91796875
-66.83349609375
-66.83349609375
-65.00244140625
-66.83349609375
-66.83349609375
-65.91796875
-69.580078125
-68.66455078125
-69.580078125
-70.49560546875
-69.580078125
-65.91796875
-70.49560546875
-71.4111328125
-72.32666015625
-72.32666015625
-75.0732421875
-78.7353515625
-72.32666015625
-74.15771484375
-82.3974609375
-76.904296875
-74.15771484375
-75.0732421875
-72.32666015625
-73.2421875
-75.98876953125
-85.14404296875
-85.14404296875
-73.2421875
-84.228515625
-77.81982421875
-68.66455078125
-81.48193359375
-77.81982421875
-67.7490234375
-74.15771484375
-78.7353515625
-80.56640625
-73.2421875
-75.98876953125
-75.98876953125
-75.0732421875
-67.7490234375
-68.66455078125
-76.904296875
-78.7353515625
-78.7353515625
-72.32666015625
-73.2421875
-75.98876953125
-76.904296875
-85.14404296875
-81.48193359375
-76.904296875
-77.81982421875
-77.81982421875
-72.32666015625
-70.49560546875
-71.4111328125
-76.904296875
-76.904296875
-75.98876953125
-73.2421875
-74.15771484375
-78.7353515625
-81.48193359375
-73.2421875
-68.66455078125
-69.580078125
-70.49560546875
-61.34033203125
-58.59375
-63.17138671875
-67.7490234375
-64.0869140625
-65.91796875
-69.580078125
-60.4248046875
-50.35400390625
-43.02978515625
-38.4521484375
-33.87451171875
-31.1279296875
-44.86083984375
-57.67822265625
-54.931640625
-38.4521484375
-27.4658203125
-15.56396484375
-5.4931640625
0
-1.8310546875
-1.8310546875
6.40869140625
-1.8310546875
-9.1552734375
-9.1552734375
-6.40869140625
-6.40869140625
-14.6484375
-19.22607421875
-21.05712890625
-28.38134765625
-37.53662109375
-40.283203125
-43.9453125
-56.7626953125
-61.34033203125
-64.0869140625
-72.32666015625
-82.3974609375
-89.7216796875
-93.3837890625
-91.552734375
-94.29931640625
-93.3837890625
-95.21484375
-95.21484375
-95.21484375
-89.7216796875
-88.80615234375
-91.552734375
-94.29931640625
-97.0458984375
-96.13037109375
-95.21484375
-97.0458984375
-92.46826171875
-97.0458984375
-98.876953125
-101.62353515625
-93.3837890625
-91.552734375
-94.29931640625
-97.96142578125
-95.21484375
-96.13037109375
-96.13037109375
-97.96142578125
-103.45458984375
-97.96142578125
-97.96142578125
-96.13037109375
-97.0458984375
-97.0458984375
-96.13037109375
-95.21484375
-107.11669921875
-121.76513671875
-128.173828125
-137.3291015625
-119.93408203125
-91.552734375
-59.50927734375
-11.90185546875
72.32666015625
186.767578125
298.4619140625
424.8046875
552.06298828125
651.85546875
755.31005859375
869.7509765625
998.84033203125
1108.70361328125
1148.0712890625
1146.240234375
1031.79931640625
770.8740234375
454.1015625
208.740234375
1.8310546875
-63.17138671875
-65.91796875
-44.86083984375
-45.7763671875
-28.38134765625
2.74658203125
18.310546875
22.88818359375
19.22607421875
8.23974609375
2.74658203125
0
-3.662109375
-12.8173828125
-23.8037109375
-27.4658203125
-31.1279296875
-36.62109375
-35.70556640625
-32.04345703125
-33.87451171875
-35.70556640625
-38.4521484375
-41.19873046875
-40.283203125
-40.283203125
-34.7900390625
-38.4521484375
-40.283203125
-43.02978515625
-42.1142578125
-38.4521484375
-36.62109375
-33.87451171875
-33.87451171875
-35.70556640625
-34.7900390625
-33.87451171875
-34.7900390625
-36.62109375
-36.62109375
-40.283203125
-36.62109375
-31.1279296875
-29.296875
-38.4521484375
-35.70556640625
-26.55029296875
-30.21240234375
-32.04345703125
-30.21240234375
-27.4658203125
-17.39501953125
-24.71923828125
-31.1279296875
-24.71923828125
-24.71923828125
-29.296875
-21.05712890625
-19.22607421875
-16.4794921875
-20.1416015625
-12.8173828125
-11.90185546875
-10.986328125
-12.8173828125
-9.1552734375
-4.57763671875
-7.32421875
-7.32421875
-5.4931640625
-6.40869140625
0
-3.662109375
-7.32421875
-1.8310546875
0.91552734375
4.57763671875
6.40869140625
13.73291015625
10.986328125
14.6484375
17.39501953125
17.39501953125
25.634765625
24.71923828125
24.71923828125
20.1416015625
26.55029296875
32.958984375
29.296875
40.283203125
43.02978515625
40.283203125
41.19873046875
46.69189453125
50.35400390625
52.18505859375
57.67822265625
65.00244140625
65.00244140625
71.4111328125
77.81982421875
79.65087890625
84.228515625
90.63720703125
92.46826171875
94.29931640625
107.11669921875
104.3701171875
107.11669921875
113.525390625
119.0185546875
128.173828125
126.3427734375
123.59619140625
127.25830078125
130.92041015625
132.75146484375
134.58251953125
136.41357421875
140.07568359375
137.3291015625
134.58251953125
130.0048828125
123.59619140625
126.3427734375
122.6806640625
118.10302734375
118.10302734375
113.525390625
104.3701171875
104.3701171875
96.13037109375
89.7216796875
75.98876953125
65.91796875
54.931640625
46.69189453125
38.4521484375
31.1279296875
30.21240234375
25.634765625
17.39501953125
11.90185546875
5.4931640625
-3.662109375
-8.23974609375
-11.90185546875
-18.310546875
-26.55029296875
-29.296875
-29.296875
-33.87451171875
-31.1279296875
-31.1279296875
-34.7900390625
-38.4521484375
-37.53662109375
-33.87451171875
-43.02978515625
-50.35400390625
-49.4384765625
-50.35400390625
-52.18505859375
-53.1005859375
-52.18505859375
-53.1005859375
-53.1005859375
-54.01611328125
-50.35400390625
-53.1005859375
-48.52294921875
-50.35400390625
-51.26953125
-50.35400390625
-54.01611328125
-51.26953125
-44.86083984375
-44.86083984375
-50.35400390625
-48.52294921875
-47.607421875
-50.35400390625
-49.4384765625
-50.35400390625
-45.7763671875
-43.9453125
-44.86083984375
-46.69189453125
-45.7763671875
-40.283203125
-42.1142578125
-41.19873046875
-41.19873046875
-40.283203125
-36.62109375
-37.53662109375
-37.53662109375
-44.86083984375
-40.283203125
-37.53662109375
-38.4521484375
-36.62109375
-40.283203125
-43.02978515625
-43.9453125
-39.36767578125
-39.36767578125
-35.70556640625
-38.4521484375
-32.958984375
-37.53662109375
-37.53662109375
-37.53662109375
-43.9453125
-42.1142578125
-37.53662109375
-34.7900390625
-32.04345703125
-33.87451171875
-32.958984375
-32.958984375
-30.21240234375
-33.87451171875
-36.62109375
-35.70556640625
-38.4521484375
-36.62109375
-40.283203125
-43.02978515625
-39.36767578125
-41.19873046875
-39.36767578125
-38.4521484375
-35.70556640625
-35.70556640625
-38.4521484375
-40.283203125
-41.19873046875
-37.53662109375
-34.7900390625
-23.8037109375
-28.38134765625
-35.70556640625
-34.7900390625
-29.296875
-29.296875
-32.958984375
-31.1279296875
-34.7900390625
-32.04345703125
-31.1279296875
-32.04345703125
-35.70556640625
-34.7900390625
-32.04345703125
-32.04345703125
-32.958984375
-32.958984375
-34.7900390625
-33.87451171875
-43.9453125
-47.607421875
-36.62109375
-35.70556640625
-36.62109375
-39.36767578125
-35.70556640625
-37.53662109375
-36.62109375
-34.7900390625
-43.9453125
-42.1142578125
-40.283203125
-42.1142578125
-42.1142578125
-38.4521484375
-38.4521484375
-41.19873046875
-42.1142578125
-43.9453125
-41.19873046875
-43.02978515625
-46.69189453125
-43.02978515625
-43.9453125
-44.86083984375
-44.86083984375
-45.7763671875
-47.607421875
-49.4384765625
-43.02978515625
-49.4384765625
-49.4384765625
-43.9453125
-45.7763671875
-53.1005859375
-46.69189453125
-42.1142578125
-47.607421875
-46.69189453125
-54.931640625
-48.52294921875
-42.1142578125
-52.18505859375
-50.35400390625
-43.9453125
-44.86083984375
-40.283203125
-38.4521484375
-42.1142578125
-44.86083984375
-43.02978515625
-46.69189453125
-43.02978515625
-50.35400390625
-47.607421875
-49.4384765625
-46.69189453125
-42.1142578125
-45.7763671875
-42.1142578125
-34.7900390625
-33.87451171875
-33.87451171875
-35.70556640625
-24.71923828125
-16.4794921875
-5.4931640625
5.4931640625
-0.91552734375
-8.23974609375
-8.23974609375
-7.32421875
0.91552734375
7.32421875
17.39501953125
25.634765625
36.62109375
37.53662109375
33.87451171875
36.62109375
31.1279296875
27.4658203125
25.634765625
20.1416015625
21.05712890625
17.39501953125
14.6484375
12.8173828125
4.57763671875
-1.8310546875
-5.4931640625
-10.986328125
-10.986328125
-16.4794921875
-22.88818359375
-26.55029296875
-29.296875
-41.19873046875
-47.607421875
-54.01611328125
-62.255859375
-59.50927734375
-56.7626953125
-54.931640625
-53.1005859375
-56.7626953125
-55.84716796875
-64.0869140625
-59.50927734375
-57.67822265625
-59.50927734375
-59.50927734375
-58.59375
-58.59375
-57.67822265625
-55.84716796875
-54.931640625
-56.7626953125
-54.931640625
-54.931640625
-54.01611328125
-54.931640625
-54.931640625
-54.01611328125
-52.18505859375
-55.84716796875
-55.84716796875
-55.84716796875
-54.01611328125
-56.7626953125
-59.50927734375
-63.17138671875
-65.00244140625
-56.7626953125
-67.7490234375
-83.31298828125
-95.21484375
-97.96142578125
-101.62353515625
-78.7353515625
-42.1142578125
3.662109375
71.4111328125
173.9501953125
277.40478515625
390.0146484375
523.681640625
643.61572265625
735.16845703125
838.623046875
970.458984375
1104.1259765625
1169.12841796875
1187.43896484375
1121.52099609375
910.0341796875
597.83935546875
328.67431640625
93.3837890625
-36.62109375
-53.1005859375
-29.296875
-14.6484375
-13.73291015625
9.1552734375
32.04345703125
40.283203125
40.283203125
39.36767578125
32.04345703125
27.4658203125
17.39501953125
5.4931640625
-3.662109375
-7.32421875
-10.986328125
-8.23974609375
-10.07080078125
-11.90185546875
-12.8173828125
-10.986328125
-12.8173828125
-15.56396484375
-12.8173828125
-14.6484375
-16.4794921875
-12.8173828125
-11.90185546875
-9.1552734375
-11.90185546875
-16.4794921875
-21.97265625
-17.39501953125
-12.8173828125
-9.1552734375
-7.32421875
-12.8173828125
-13.73291015625
-11.90185546875
-8.23974609375
-11.90185546875
-17.39501953125
-10.986328125
-3.662109375
-5.4931640625
-8.23974609375
-9.1552734375
-8.23974609375
-5.4931640625
-5.4931640625
-8.23974609375
-10.986328125
-10.07080078125
-8.23974609375
-4.57763671875
-2.74658203125
-8.23974609375
-4.57763671875
6.40869140625
-0.91552734375
3.662109375
2.74658203125
5.4931640625
3.662109375
4.57763671875
-0.91552734375
8.23974609375
5.4931640625
6.40869140625
15.56396484375
15.56396484375
18.310546875
15.56396484375
18.310546875
22.88818359375
31.1279296875
27.4658203125
29.296875
30.21240234375
32.04345703125
32.04345703125
35.70556640625
38.4521484375
40.283203125
40.283203125
41.19873046875
44.86083984375
47.607421875
54.01611328125
60.4248046875
56.7626953125
59.50927734375
62.255859375
68.66455078125
66.83349609375
65.91796875
78.7353515625
94.29931640625
95.21484375
87.890625
90.63720703125
100.7080078125
102.5390625
103.45458984375
104.3701171875
109.86328125
113.525390625
119.0185546875
121.76513671875
126.3427734375
124.51171875
130.0048828125
136.41357421875
144.6533203125
142.822265625
139.16015625
144.6533203125
147.39990234375
150.146484375
150.146484375
148.3154296875
151.9775390625
155.6396484375
158.38623046875
151.06201171875
146.484375
140.07568359375
139.16015625
130.0048828125
125.42724609375
117.1875
111.6943359375
107.11669921875
102.5390625
87.890625
83.31298828125
75.98876953125
71.4111328125
61.34033203125
60.4248046875
52.18505859375
41.19873046875
32.04345703125
29.296875
23.8037109375
18.310546875
10.07080078125
6.40869140625
5.4931640625
-0.91552734375
0
0
-9.1552734375
-16.4794921875
-14.6484375
-12.8173828125
-13.73291015625
-21.97265625
-21.05712890625
-21.05712890625
-19.22607421875
-25.634765625
-24.71923828125
-23.8037109375
-26.55029296875
-31.1279296875
-26.55029296875
-22.88818359375
-25.634765625
-27.4658203125
-24.71923828125
-27.4658203125
-24.71923828125
-23.8037109375
-23.8037109375
-32.04345703125
-33.87451171875
-28.38134765625
-30.21240234375
-38.4521484375
-32.958984375
-32.958984375
-33.87451171875
-30.21240234375
-32.958984375
-28.38134765625
-25.634765625
-27.4658203125
-32.04345703125
-25.634765625
-27.4658203125
-25.634765625
-22.88818359375
-22.88818359375
-23.8037109375
-22.88818359375
-18.310546875
-18.310546875
-23.8037109375
-26.55029296875
-25.634765625
-24.71923828125
-25.634765625
-9.1552734375
-16.4794921875
-19.22607421875
-15.56396484375
-19.22607421875
-11.90185546875
-14.6484375
-18.310546875
-17.39501953125
-19.22607421875
-12.8173828125
-21.97265625
-16.4794921875
-16.4794921875
-17.39501953125
-16.4794921875
-12.8173828125
-10.986328125
-11.90185546875
-15.56396484375
-6.40869140625
-15.56396484375
-19.22607421875
-23.8037109375
-21.97265625
-19.22607421875
-17.39501953125
-20.1416015625
-15.56396484375
-13.73291015625
-16.4794921875
-11.90185546875
-14.6484375
-13.73291015625
-19.22607421875
-16.4794921875
-19.22607421875
-21.97265625
-23.8037109375
-25.634765625
-21.97265625
-20.1416015625
-21.97265625
-31.1279296875
-32.958984375
-26.55029296875
-28.38134765625
-22.88818359375
-30.21240234375
-30.21240234375
-31.1279296875
-32.958984375
-29.296875
-32.958984375
-36.62109375
-36.62109375
-37.53662109375
-27.4658203125
-40.283203125
-41.19873046875
-35.70556640625
-34.7900390625
-33.87451171875
-35.70556640625
-33.87451171875
-36.62109375
-35.70556640625
-33.87451171875
-33.87451171875
-43.02978515625
-40.283203125
-36.62109375
-32.958984375
-35.70556640625
-37.53662109375
-39.36767578125
-35.70556640625
-34.7900390625
-42.1142578125
-46.69189453125
-39.36767578125
-50.35400390625
-51.26953125
-41.19873046875
-36.62109375
-42.1142578125
-41.19873046875
-39.36767578125
-38.4521484375
-40.283203125
-44.86083984375
-43.9453125
-42.1142578125
-45.7763671875
-49.4384765625
-43.02978515625
-50.35400390625
-45.7763671875
-43.9453125
-44.86083984375
-45.7763671875
-43.9453125
-41.19873046875
-44.86083984375
-43.02978515625
-43.9453125
-43.02978515625
-48.52294921875
-43.9453125
-43.02978515625
-37.53662109375
-44.86083984375
-42.1142578125
-47.607421875
-44.86083984375
-45.7763671875
-45.7763671875
-45.7763671875
-45.7763671875
-37.53662109375
-34.7900390625
-36.62109375
-45.7763671875
-43.02978515625
-41.19873046875
-42.1142578125
-33.87451171875
-41.19873046875
-42.1142578125
-36.62109375
-32.958984375
-29.296875
-19.22607421875
-1.8310546875
1.8310546875
-0.91552734375
-10.07080078125
-6.40869140625
-5.4931640625
-1.8310546875
12.8173828125
23.8037109375
32.04345703125
36.62109375
32.958984375
34.7900390625
32.04345703125
29.296875
25.634765625
19.22607421875
17.39501953125
24.71923828125
17.39501953125
10.986328125
5.4931640625
-4.57763671875
-9.1552734375
-10.986328125
-20.1416015625
-21.05712890625
-26.55029296875
-32.04345703125
-35.70556640625
-34.7900390625
-45.7763671875
-58.59375
-60.4248046875
-54.931640625
-55.84716796875
-64.0869140625
-62.255859375
-59.50927734375
-54.931640625
-54.931640625
-57.67822265625
-56.7626953125
-59.50927734375
-62.255859375
-64.0869140625
-60.4248046875
-63.17138671875
-61.34033203125
-59.50927734375
-62.255859375
-64.0869140625
-60.4248046875
-63.17138671875
-63.17138671875
-65.00244140625
-67.7490234375
-63.17138671875
-57.67822265625
-61.34033203125
-63.17138671875
-63.17138671875
-62.255859375
-57.67822265625
-58.59375
-59.50927734375
-58.59375
-64.0869140625
-74.15771484375
-86.97509765625
-94.29931640625
-98.876953125
-92.46826171875
-72.32666015625
-45.7763671875
-10.07080078125
59.50927734375
165.71044921875
270.99609375
383.60595703125
517.27294921875
639.0380859375
727.84423828125
830.38330078125
953.9794921875
1091.30859375
1166.3818359375
1180.11474609375
1121.52099609375
924.6826171875
615.234375
336.9140625
93.3837890625
-43.9453125
-55.84716796875
-37.53662109375
-22.88818359375
-17.39501953125
3.662109375
26.55029296875
36.62109375
39.36767578125
35.70556640625
21.05712890625
10.986328125
0
-2.74658203125
-4.57763671875
-10.986328125
-14.6484375
-22.88818359375
-20.1416015625
-21.97265625
-22.88818359375
-25.634765625
-26.55029296875
-24.71923828125
-28.38134765625
-26.55029296875
-23.8037109375
-24.71923828125
-22.88818359375
-26.55029296875
-26.55029296875
-31.1279296875
-27.4658203125
-24.71923828125
-21.97265625
-25.634765625
-28.38134765625
-24.71923828125
-24.71923828125
-21.97265625
-18.310546875
-20.1416015625
-25.634765625
-22.88818359375
-28.38134765625
-21.97265625
-19.22607421875
-16.4794921875
-15.56396484375
-11.90185546875
-12.8173828125
-10.07080078125
-10.986328125
-13.73291015625
-14.6484375
-14.6484375
-11.90185546875
-10.986328125
-8.23974609375
-11.90185546875
-10.07080078125
-8.23974609375
-5.4931640625
-4.57763671875
-3.662109375
-2.74658203125
0
3.662109375
6.40869140625
5.4931640625
9.1552734375
9.1552734375
13.73291015625
12.8173828125
10.986328125
14.6484375
19.22607421875
20.1416015625
23.8037109375
22.88818359375
23.8037109375
26.55029296875
28.38134765625
26.55029296875
27.4658203125
31.1279296875
32.958984375
34.7900390625
39.36767578125
44.86083984375
49.4384765625
49.4384765625
50.35400390625
55.84716796875
65.91796875
61.34033203125
68.66455078125
70.49560546875
71.4111328125
78.7353515625
80.56640625
87.890625
91.552734375
94.29931640625
101.62353515625
100.7080078125
107.11669921875
108.0322265625
111.6943359375
117.1875
123.59619140625
130.0048828125
130.0048828125
129.08935546875
133.6669921875
137.3291015625
135.498046875
145.56884765625
150.146484375
148.3154296875
144.6533203125
145.56884765625
153.80859375
148.3154296875
149.23095703125
141.90673828125
146.484375
138.24462890625
130.92041015625
128.173828125
122.6806640625
119.93408203125
113.525390625
97.96142578125
96.13037109375
87.890625
75.98876953125
74.15771484375
64.0869140625
58.59375
56.7626953125
48.52294921875
36.62109375
32.958984375
32.04345703125
31.1279296875
18.310546875
10.986328125
6.40869140625
0.91552734375
0
-4.57763671875
-6.40869140625
-10.07080078125
-12.8173828125
-17.39501953125
-21.05712890625
-22.88818359375
-20.1416015625
-17.39501953125
-18.310546875
-15.56396484375
-20.1416015625
-25.634765625
-30.21240234375
-26.55029296875
-29.296875
-31.1279296875
-25.634765625
-29.296875
-30.21240234375
-31.1279296875
-32.04345703125
-34.7900390625
-34.7900390625
-32.958984375
-33.87451171875
-32.958984375
-31.1279296875
-29.296875
-29.296875
-28.38134765625
-28.38134765625
-32.04345703125
-34.7900390625
-29.296875
-25.634765625
-24.71923828125
-26.55029296875
-24.71923828125
-25.634765625
-28.38134765625
-27.4658203125
-25.634765625
-20.1416015625
-23.8037109375
-24.71923828125
-21.97265625
-22.88818359375
-23.8037109375
-22.88818359375
-22.88818359375
-22.88818359375
-18.310546875
-22.88818359375
-23.8037109375
-22.88818359375
-19.22607421875
-16.4794921875
-16.4794921875
-15.56396484375
-16.4794921875
-17.39501953125
-18.310546875
-14.6484375
-15.56396484375
-15.56396484375
-14.6484375
-13.73291015625
-10.986328125
-14.6484375
-18.310546875
-17.39501953125
-17.39501953125
-15.56396484375
-13.73291015625
-10.986328125
-15.56396484375
-14.6484375
-15.56396484375
-15.56396484375
-15.56396484375
-16.4794921875
-19.22607421875
-19.22607421875
-18.310546875
-22.88818359375
-22.88818359375
-19.22607421875
-24.71923828125
-26.55029296875
-27.4658203125
-31.1279296875
-31.1279296875
-27.4658203125
-27.4658203125
-31.1279296875
-30.21240234375
-29.296875
-28.38134765625
-26.55029296875
-26.55029296875
-31.1279296875
-32.04345703125
-28.38134765625
-31.1279296875
-28.38134765625
-26.55029296875
-28.38134765625
-32.958984375
-40.283203125
-40.283203125
-34.7900390625
-33.87451171875
-33.87451171875
-34.7900390625
-35.70556640625
-38.4521484375
-43.02978515625
-41.19873046875
-36.62109375
-37.53662109375
-39.36767578125
-42.1142578125
-39.36767578125
-42.1142578125
-42.1142578125
-39.36767578125
-40.283203125
-43.02978515625
-50.35400390625
-47.607421875
-43.02978515625
-45.7763671875
-41.19873046875
-46.69189453125
-48.52294921875
-49.4384765625
-45.7763671875
-40.283203125
-42.1142578125
-39.36767578125
-44.86083984375
-41.19873046875
-43.02978515625
-49.4384765625
-46.69189453125
-45.7763671875
-48.52294921875
-47.607421875
-52.18505859375
-49.4384765625
-40.283203125
-48.52294921875
-53.1005859375
-48.52294921875
-45.7763671875
-44.86083984375
-47.607421875
-45.7763671875
-46.69189453125
-48.52294921875
-52.18505859375
-54.931640625
-52.18505859375
-53.1005859375
-51.26953125
-51.26953125
-51.26953125
-52.18505859375
-54.931640625
-57.67822265625
-50.35400390625
-47.607421875
-54.931640625
-50.35400390625
-45.7763671875
-50.35400390625
-51.26953125
-53.1005859375
-50.35400390625
-54.01611328125
-52.18505859375
-52.18505859375
-45.7763671875
-45.7763671875
-50.35400390625
-46.69189453125
-41.19873046875
-32.04345703125
-23.8037109375
-14.6484375
-12.8173828125
-13.73291015625
-14.6484375
-16.4794921875
-17.39501953125
-3.662109375
4.57763671875
8.23974609375
18.310546875
25.634765625
32.04345703125
27.4658203125
23.8037109375
20.1416015625
21.05712890625
13.73291015625
15.56396484375
16.4794921875
11.90185546875
8.23974609375
9.1552734375
-4.57763671875
-13.73291015625
-19.22607421875
-24.71923828125
-30.21240234375
-32.958984375
-32.958984375
-44.86083984375
-43.02978515625
-48.52294921875
-54.931640625
-61.34033203125
-60.4248046875
-61.34033203125
-58.59375
-65.91796875
-65.00244140625
-66.83349609375
-62.255859375
-65.00244140625
-63.17138671875
-59.50927734375
-64.0869140625
-62.255859375
-66.83349609375
-61.34033203125
-62.255859375
-64.0869140625
-61.34033203125
-58.59375
-63.17138671875
-57.67822265625
-58.59375
-63.17138671875
-67.7490234375
-67.7490234375
-64.0869140625
-57.67822265625
-58.59375
-61.34033203125
-53.1005859375
-50.35400390625
-51.26953125
-54.01611328125
-50.35400390625
-55.84716796875
-62.255859375
-73.2421875
-84.228515625
-91.552734375
-97.0458984375
-97.96142578125
-81.48193359375
-49.4384765625
-9.1552734375
49.4384765625
148.3154296875
266.41845703125
374.45068359375
507.2021484375
636.29150390625
728.759765625
832.21435546875
956.72607421875
1087.646484375
1183.77685546875
1203.0029296875
1159.0576171875
977.783203125
676.57470703125
389.09912109375
134.58251953125
-31.1279296875
-41.19873046875
-35.70556640625
-16.4794921875
-14.6484375
5.4931640625
27.4658203125
43.02978515625
47.607421875
37.53662109375
34.7900390625
28.38134765625
25.634765625
14.6484375
3.662109375
-1.8310546875
-0.91552734375
-0.91552734375
-5.4931640625
-10.07080078125
-6.40869140625
-10.07080078125
-12.8173828125
-8.23974609375
-7.32421875
-10.07080078125
-8.23974609375
-11.90185546875
-14.6484375
-15.56396484375
-11.90185546875
-15.56396484375
-17.39501953125
-21.05712890625
-18.310546875
-9.1552734375
-16.4794921875
-16.4794921875
-12.8173828125
-4.57763671875
-8.23974609375
-11.90185546875
-9.1552734375
0
0.91552734375
-2.74658203125
-6.40869140625
0
8.23974609375
11.90185546875
8.23974609375
7.32421875
8.23974609375
3.662109375
3.662109375
-2.74658203125
-2.74658203125
1.8310546875
7.32421875
6.40869140625
9.1552734375
8.23974609375
11.90185546875
13.73291015625
7.32421875
10.986328125
10.986328125
11.90185546875
18.310546875
15.56396484375
16.4794921875
14.6484375
23.8037109375
22.88818359375
20.1416015625
22.88818359375
27.4658203125
32.04345703125
35.70556640625
36.62109375
35.70556640625
37.53662109375
37.53662109375
32.04345703125
43.02978515625
43.02978515625
43.02978515625
47.607421875
45.7763671875
48.52294921875
54.931640625
54.01611328125
55.84716796875
64.0869140625
65.00244140625
68.66455078125
76.904296875
84.228515625
78.7353515625
82.3974609375
92.46826171875
95.21484375
98.876953125
100.7080078125
104.3701171875
112.60986328125
114.44091796875
118.10302734375
127.25830078125
130.92041015625
128.173828125
130.92041015625
130.0048828125
140.07568359375
140.07568359375
147.39990234375
146.484375
151.06201171875
157.470703125
157.470703125
159.3017578125
162.04833984375
164.794921875
162.9638671875
155.6396484375
151.9775390625
149.23095703125
147.39990234375
144.6533203125
132.75146484375
131.8359375
129.08935546875
119.0185546875
115.3564453125
110.77880859375
100.7080078125
93.3837890625
81.48193359375
77.81982421875
73.2421875
64.0869140625
52.18505859375
47.607421875
44.86083984375
43.02978515625
32.04345703125
29.296875
21.97265625
14.6484375
8.23974609375
4.57763671875
2.74658203125
4.57763671875
0.91552734375
-2.74658203125
-10.986328125
-17.39501953125
-18.310546875
-19.22607421875
-18.310546875
-10.986328125
-10.986328125
-18.310546875
-17.39501953125
-19.22607421875
-20.1416015625
-27.4658203125
-21.97265625
-20.1416015625
-19.22607421875
-25.634765625
-24.71923828125
-20.1416015625
-26.55029296875
-24.71923828125
-23.8037109375
-20.1416015625
-17.39501953125
-20.1416015625
-14.6484375
-14.6484375
-16.4794921875
-14.6484375
-18.310546875
-23.8037109375
-21.05712890625
-23.8037109375
-21.97265625
-24.71923828125
-22.88818359375
-21.97265625
-17.39501953125
-21.05712890625
-21.05712890625
-16.4794921875
-12.8173828125
-13.73291015625
-13.73291015625
-12.8173828125
-20.1416015625
-19.22607421875
-15.56396484375
-15.56396484375
-16.4794921875
-15.56396484375
-13.73291015625
-10.07080078125
-14.6484375
-15.56396484375
-12.8173828125
-14.6484375
-15.56396484375
-13.73291015625
-11.90185546875
-8.23974609375
-13.73291015625
-0.91552734375
-2.74658203125
-1.8310546875
-7.32421875
-13.73291015625
-12.8173828125
-13.73291015625
-15.56396484375
-8.23974609375
-5.4931640625
-10.986328125
-6.40869140625
-3.662109375
-4.57763671875
-13.73291015625
-10.986328125
-14.6484375
-10.07080078125
-14.6484375
-16.4794921875
-16.4794921875
-11.90185546875
-19.22607421875
-19.22607421875
-21.05712890625
-21.97265625
-24.71923828125
-19.22607421875
-11.90185546875
-13.73291015625
-19.22607421875
-29.296875
-31.1279296875
-24.71923828125
-23.8037109375
-22.88818359375
-26.55029296875
-28.38134765625
-24.71923828125
-29.296875
-29.296875
-26.55029296875
-29.296875
-34.7900390625
-32.958984375
-34.7900390625
-32.04345703125
-24.71923828125
-21.97265625
-23.8037109375
-27.4658203125
-25.634765625
-29.296875
-26.55029296875
-27.4658203125
-31.1279296875
-34.7900390625
-32.958984375
-33.87451171875
-37.53662109375
-34.7900390625
-37.53662109375
-39.36767578125
-32.04345703125
-33.87451171875
-32.04345703125
-28.38134765625
-32.04345703125
-29.296875
-31.1279296875
-33.87451171875
-36.62109375
-37.53662109375
-37.53662109375
-32.958984375
-32.958984375
-35.70556640625
-38.4521484375
-35.70556640625
-37.53662109375
-34.7900390625
-29.296875
-32.04345703125
-39.36767578125
-37.53662109375
-36.62109375
-35.70556640625
-36.62109375
-36.62109375
-38.4521484375
-43.02978515625
-48.52294921875
-43.02978515625
-45.7763671875
-47.607421875
-44.86083984375
-37.53662109375
-30.21240234375
-36.62109375
-41.19873046875
-41.19873046875
-42.1142578125
-43.02978515625
-45.7763671875
-42.1142578125
-30.21240234375
-31.1279296875
-30.21240234375
-28.38134765625
-32.04345703125
-32.958984375
-40.283203125
-39.36767578125
-37.53662109375
-40.283203125
-46.69189453125
-44.86083984375
-38.4521484375
-32.04345703125
-21.05712890625
-11.90185546875
-3.662109375
-2.74658203125
-7.32421875
-5.4931640625
0.91552734375
10.986328125
13.73291015625
18.310546875
31.1279296875
40.283203125
36.62109375
32.958984375
38.4521484375
34.7900390625
28.38134765625
19.22607421875
20.1416015625
21.05712890625
17.39501953125
16.4794921875
13.73291015625
3.662109375
0.91552734375
-8.23974609375
-11.90185546875
-17.39501953125
-21.97265625
-30.21240234375
-35.70556640625
-36.62109375
-43.02978515625
-48.52294921875
-49.4384765625
-51.26953125
-52.18505859375
-53.1005859375
-54.931640625
-56.7626953125
-58.59375
-56.7626953125
-54.931640625
-54.931640625
-55.84716796875
-55.84716796875
-57.67822265625
-58.59375
-59.50927734375
-55.84716796875
-57.67822265625
-61.34033203125
-64.0869140625
-60.4248046875
-57.67822265625
-63.17138671875
-64.0869140625
-64.0869140625
-57.67822265625
-54.931640625
-53.1005859375
-54.931640625
-55.84716796875
-54.931640625
-48.52294921875
-55.84716796875
-55.84716796875
-50.35400390625
-54.01611328125
-53.1005859375
-67.7490234375
-76.904296875
-86.0595703125
-96.13037109375
-94.29931640625
-75.98876953125
-46.69189453125
-9.1552734375
45.7763671875
151.9775390625
279.23583984375
394.59228515625
528.25927734375
661.0107421875
768.12744140625
855.1025390625
968.6279296875
1107.7880859375
1193.84765625
1208.49609375
1173.7060546875
1012.5732421875
719.6044921875
403.74755859375
142.822265625
-32.958984375
-54.931640625
-30.21240234375
-3.662109375
4.57763671875
-0.91552734375
11.90185546875
38.4521484375
52.18505859375
43.9453125
33.87451171875
26.55029296875
24.71923828125
12.8173828125
8.23974609375
10.07080078125
8.23974609375
2.74658203125
-3.662109375
-5.4931640625
-9.1552734375
-4.57763671875
-6.40869140625
-10.986328125
-15.56396484375
-10.07080078125
-13.73291015625
-14.6484375
-13.73291015625
-12.8173828125
-11.90185546875
-8.23974609375
-3.662109375
-8.23974609375
-4.57763671875
-3.662109375
-10.986328125
-11.90185546875
-10.986328125
-10.986328125
-9.1552734375
-4.57763671875
-4.57763671875
-2.74658203125
0
-0.91552734375
-1.8310546875
0.91552734375
-2.74658203125
-1.8310546875
0.91552734375
0.91552734375
8.23974609375
9.1552734375
5.4931640625
3.662109375
5.4931640625
6.40869140625
8.23974609375
8.23974609375
11.90185546875
15.56396484375
15.56396484375
17.39501953125
14.6484375
21.97265625
19.22607421875
14.6484375
15.56396484375
21.97265625
21.97265625
21.05712890625
23.8037109375
26.55029296875
26.55029296875
32.04345703125
31.1279296875
32.958984375
35.70556640625
36.62109375
35.70556640625
40.283203125
46.69189453125
48.52294921875
49.4384765625
50.35400390625
51.26953125
52.18505859375
62.255859375
59.50927734375
68.66455078125
68.66455078125
69.580078125
73.2421875
74.15771484375
75.0732421875
75.98876953125
83.31298828125
86.0595703125
92.46826171875
96.13037109375
91.552734375
97.0458984375
102.5390625
109.86328125
107.11669921875
110.77880859375
108.0322265625
112.60986328125
113.525390625
117.1875
121.76513671875
128.173828125
131.8359375
128.173828125
129.08935546875
134.58251953125
140.07568359375
142.822265625
145.56884765625
143.73779296875
145.56884765625
152.89306640625
143.73779296875
138.24462890625
135.498046875
133.6669921875
135.498046875
132.75146484375
131.8359375
125.42724609375
115.3564453125
110.77880859375
108.0322265625
98.876953125
97.96142578125
91.552734375
76.904296875
68.66455078125
65.91796875
65.91796875
58.59375
51.26953125
50.35400390625
40.283203125
34.7900390625
29.296875
22.88818359375
27.4658203125
21.97265625
17.39501953125
15.56396484375
11.90185546875
10.986328125
5.4931640625
4.57763671875
-0.91552734375
-1.8310546875
-6.40869140625
-5.4931640625
-7.32421875
-10.07080078125
-10.07080078125
-10.07080078125
-13.73291015625
-15.56396484375
-16.4794921875
-18.310546875
-16.4794921875
-15.56396484375
-14.6484375
-10.986328125
-10.986328125
-13.73291015625
-15.56396484375
-16.4794921875
-15.56396484375
-11.90185546875
-12.8173828125
-15.56396484375
-10.986328125
-10.986328125
-13.73291015625
-10.07080078125
-9.1552734375
-6.40869140625
-6.40869140625
-8.23974609375
-10.986328125
-11.90185546875
-4.57763671875
-3.662109375
-8.23974609375
-5.4931640625
-4.57763671875
0
0
-5.4931640625
-3.662109375
1.8310546875
-0.91552734375
-4.57763671875
-1.8310546875
-0.91552734375
-0.91552734375
0
-0.91552734375
4.57763671875
3.662109375
2.74658203125
3.662109375
6.40869140625
4.57763671875
-0.91552734375
2.74658203125
3.662109375
1.8310546875
5.4931640625
9.1552734375
5.4931640625
10.07080078125
8.23974609375
3.662109375
0
3.662109375
0
3.662109375
5.4931640625
1.8310546875
5.4931640625
7.32421875
5.4931640625
4.57763671875
3.662109375
9.1552734375
6.40869140625
5.4931640625
4.57763671875
1.8310546875
5.4931640625
8.23974609375
3.662109375
-2.74658203125
2.74658203125
3.662109375
0
1.8310546875
0.91552734375
-4.57763671875
-5.4931640625
-7.32421875
-4.57763671875
-6.40869140625
-6.40869140625
-7.32421875
-9.1552734375
-12.8173828125
-11.90185546875
-10.07080078125
-10.07080078125
-8.23974609375
-9.1552734375
-11.90185546875
-14.6484375
-12.8173828125
-13.73291015625
-15.56396484375
-15.56396484375
-13.73291015625
-13.73291015625
-11.90185546875
-15.56396484375
-18.310546875
-15.56396484375
-20.1416015625
-19.22607421875
-15.56396484375
-14.6484375
-17.39501953125
-14.6484375
-15.56396484375
-21.05712890625
-18.310546875
-15.56396484375
-15.56396484375
-21.97265625
-22.88818359375
-19.22607421875
-16.4794921875
-17.39501953125
-19.22607421875
-21.97265625
-21.97265625
-21.05712890625
-18.310546875
-16.4794921875
-20.1416015625
-21.97265625
-21.05712890625
-21.05712890625
-23.8037109375
-17.39501953125
-18.310546875
-25.634765625
-26.55029296875
-26.55029296875
-25.634765625
-25.634765625
-24.71923828125
-22.88818359375
-23.8037109375
-29.296875
-26.55029296875
-20.1416015625
-21.05712890625
-21.05712890625
-21.05712890625
-20.1416015625
-24.71923828125
-29.296875
-23.8037109375
-23.8037109375
-21.05712890625
-21.05712890625
-21.97265625
-21.97265625
-23.8037109375
-22.88818359375
-17.39501953125
-16.4794921875
-23.8037109375
-25.634765625
-26.55029296875
-27.4658203125
-25.634765625
-23.8037109375
-24.71923828125
-26.55029296875
-27.4658203125
-24.71923828125
-26.55029296875
-26.55029296875
-26.55029296875
-26.55029296875
-32.04345703125
-34.7900390625
-29.296875
-24.71923828125
-26.55029296875
-23.8037109375
-26.55029296875
-30.21240234375
-32.958984375
-32.04345703125
-28.38134765625
-26.55029296875
-27.4658203125
-30.21240234375
-25.634765625
-19.22607421875
-14.6484375
-7.32421875
9.1552734375
17.39501953125
18.310546875
15.56396484375
14.6484375
10.07080078125
15.56396484375
21.97265625
22.88818359375
31.1279296875
40.283203125
43.02978515625
44.86083984375
44.86083984375
37.53662109375
33.87451171875
31.1279296875
32.958984375
33.87451171875
34.7900390625
24.71923828125
27.4658203125
20.1416015625
10.986328125
6.40869140625
-5.4931640625
-12.8173828125
-14.6484375
-14.6484375
-15.56396484375
-22.88818359375
-28.38134765625
-39.36767578125
-41.19873046875
-42.1142578125
-48.52294921875
-47.607421875
-52.18505859375
-51.26953125
-46.69189453125
-44.86083984375
-43.9453125
-45.7763671875
-43.9453125
-43.02978515625
-41.19873046875
-48.52294921875
-50.35400390625
-44.86083984375
-45.7763671875
-46.69189453125
-48.52294921875
-53.1005859375
-51.26953125
-54.01611328125
-51.26953125
-53.1005859375
-54.931640625
-49.4384765625
-44.86083984375
-48.52294921875
-51.26953125
-48.52294921875
-48.52294921875
-49.4384765625
-47.607421875
-45.7763671875
-46.69189453125
-56.7626953125
-68.66455078125
-75.98876953125
-79.65087890625
-83.31298828125
-72.32666015625
-47.607421875
-7.32421875
49.4384765625
139.16015625
247.1923828125
354.30908203125
478.82080078125
611.572265625
711.36474609375
808.41064453125
922.8515625
1055.60302734375
1155.3955078125
1191.10107421875
1169.12841796875
1043.701171875
770.8740234375
466.9189453125
223.388671875
21.05712890625
-32.958984375
-29.296875
-11.90185546875
-8.23974609375
15.56396484375
42.1142578125
56.7626953125
57.67822265625
49.4384765625
44.86083984375
40.283203125
27.4658203125
19.22607421875
14.6484375
15.56396484375
11.90185546875
5.4931640625
8.23974609375
3.662109375
7.32421875
2.74658203125
0
-3.662109375
-3.662109375
2.74658203125
2.74658203125
-0.91552734375
-1.8310546875
-6.40869140625
-4.57763671875
-0.91552734375
-3.662109375
-3.662109375
-2.74658203125
-4.57763671875
-5.4931640625
-3.662109375
-0.91552734375
0
-1.8310546875
0.91552734375
-0.91552734375
-2.74658203125
0
-2.74658203125
-0.91552734375
-2.74658203125
-1.8310546875
-0.91552734375
0.91552734375
0.91552734375
3.662109375
0.91552734375
0
-1.8310546875
-2.74658203125
-0.91552734375
7.32421875
9.1552734375
7.32421875
7.32421875
8.23974609375
12.8173828125
13.73291015625
10.986328125
14.6484375
14.6484375
11.90185546875
13.73291015625
17.39501953125
21.97265625
21.97265625
20.1416015625
20.1416015625
20.1416015625
23.8037109375
26.55029296875
27.4658203125
26.55029296875
31.1279296875
33.87451171875
33.87451171875
39.36767578125
35.70556640625
40.283203125
41.19873046875
43.02978515625
48.52294921875
48.52294921875
48.52294921875
54.01611328125
62.255859375
60.4248046875
61.34033203125
62.255859375
74.15771484375
75.98876953125
79.65087890625
83.31298828125
86.97509765625
91.552734375
96.13037109375
99.79248046875
97.96142578125
102.5390625
101.62353515625
106.201171875
117.1875
123.59619140625
122.6806640625
125.42724609375
130.0048828125
133.6669921875
137.3291015625
143.73779296875
142.822265625
144.6533203125
151.9775390625
156.55517578125
161.1328125
158.38623046875
158.38623046875
157.470703125
153.80859375
153.80859375
151.06201171875
151.06201171875
150.146484375
140.07568359375
137.3291015625
133.6669921875
128.173828125
119.93408203125
111.6943359375
107.11669921875
98.876953125
88.80615234375
78.7353515625
74.15771484375
65.91796875
62.255859375
54.931640625
52.18505859375
42.1142578125
34.7900390625
32.04345703125
26.55029296875
21.05712890625
9.1552734375
2.74658203125
0.91552734375
-0.91552734375
-4.57763671875
-10.986328125
-14.6484375
-14.6484375
-17.39501953125
-18.310546875
-22.88818359375
-21.05712890625
-24.71923828125
-26.55029296875
-26.55029296875
-30.21240234375
-33.87451171875
-35.70556640625
-30.21240234375
-26.55029296875
-30.21240234375
-32.04345703125
-33.87451171875
-30.21240234375
-28.38134765625
-30.21240234375
-31.1279296875
-32.04345703125
-27.4658203125
-27.4658203125
-27.4658203125
-29.296875
-27.4658203125
-32.04345703125
-28.38134765625
-29.296875
-29.296875
-27.4658203125
-28.38134765625
-31.1279296875
-33.87451171875
-36.62109375
-39.36767578125
-32.04345703125
-28.38134765625
-25.634765625
-26.55029296875
-26.55029296875
-27.4658203125
-30.21240234375
-30.21240234375
-29.296875
-32.04345703125
-26.55029296875
-25.634765625
-23.8037109375
-27.4658203125
-25.634765625
-29.296875
-24.71923828125
-26.55029296875
-30.21240234375
-29.296875
-27.4658203125
-32.04345703125
-33.87451171875
-32.958984375
-31.1279296875
-29.296875
-26.55029296875
-25.634765625
-23.8037109375
-23.8037109375
-28.38134765625
-31.1279296875
-34.7900390625
-34.7900390625
-34.7900390625
-32.958984375
-33.87451171875
-33.87451171875
-35.70556640625
-35.70556640625
-32.04345703125
-36.62109375
-37.53662109375
-36.62109375
-35.70556640625
-32.958984375
-38.4521484375
-37.53662109375
-39.36767578125
-38.4521484375
-43.9453125
-45.7763671875
-43.02978515625
-48.52294921875
-44.86083984375
-46.69189453125
-44.86083984375
-44.86083984375
-45.7763671875
-43.9453125
-43.9453125
-42.1142578125
-40.283203125
-44.86083984375
-45.7763671875
-50.35400390625
-51.26953125
-54.01611328125
-52.18505859375
-55.84716796875
-55.84716796875
-55.84716796875
-54.931640625
-57.67822265625
-56.7626953125
-54.931640625
-54.931640625
-57.67822265625
-60.4248046875
-60.4248046875
-57.67822265625
-60.4248046875
-58.59375
-57.67822265625
-57.67822265625
-62.255859375
-65.00244140625
-60.4248046875
-63.17138671875
-64.0869140625
-68.66455078125
-67.7490234375
-65.00244140625
-62.255859375
-63.17138671875
-65.91796875
-66.83349609375
-65.91796875
-66.83349609375
-69.580078125
-72.32666015625
-73.2421875
-67.7490234375
-63.17138671875
-62.255859375
-62.255859375
-63.17138671875
-65.00244140625
-62.255859375
-62.255859375
-63.17138671875
-67.7490234375
-65.91796875
-64.0869140625
-68.66455078125
-68.66455078125
-66.83349609375
-65.91796875
-68.66455078125
-65.91796875
-67.7490234375
-67.7490234375
-65.00244140625
-64.0869140625
-63.17138671875
-62.255859375
-67.7490234375
-63.17138671875
-66.83349609375
-67.7490234375
-65.00244140625
-69.580078125
-68.66455078125
-73.2421875
-71.4111328125
-64.0869140625
-66.83349609375
-65.91796875
-62.255859375
-66.83349609375
-68.66455078125
-69.580078125
-69.580078125
-70.49560546875
-65.91796875
-65.91796875
-65.91796875
-66.83349609375
-72.32666015625
-75.0732421875
-72.32666015625
-70.49560546875
-74.15771484375
-74.15771484375
-72.32666015625
-70.49560546875
-69.580078125
-68.66455078125
-72.32666015625
-75.0732421875
-74.15771484375
-71.4111328125
-69.580078125
-72.32666015625
-74.15771484375
-73.2421875
-72.32666015625
-70.49560546875
-74.15771484375
-73.2421875
-71.4111328125
-74.15771484375
-75.0732421875
-75.0732421875
-74.15771484375
-73.2421875
-75.98876953125
-75.0732421875
-71.4111328125
-67.7490234375
-63.17138671875
-54.931640625
-49.4384765625
-42.1142578125
-35.70556640625
-31.1279296875
-35.70556640625
-40.283203125
-36.62109375
-23.8037109375
-22.88818359375
-19.22607421875
-2.74658203125
0.91552734375
-0.91552734375
3.662109375
3.662109375
-4.57763671875
-12.8173828125
-16.4794921875
-13.73291015625
-14.6484375
-15.56396484375
-22.88818359375
-28.38134765625
-36.62109375
-41.19873046875
-46.69189453125
-51.26953125
-49.4384765625
-53.1005859375
-56.7626953125
-66.83349609375
-71.4111328125
-85.14404296875
-86.97509765625
-89.7216796875
-89.7216796875
-95.21484375
-91.552734375
-86.97509765625
-86.97509765625
-90.63720703125
-94.29931640625
-90.63720703125
-89.7216796875
-91.552734375
-97.0458984375
-95.21484375
-102.5390625
-97.96142578125
-99.79248046875
-98.876953125
-96.13037109375
-96.13037109375
-99.79248046875
-97.0458984375
-94.29931640625
-98.876953125
-97.0458984375
-89.7216796875
-99.79248046875
-93.3837890625
-92.46826171875
-95.21484375
-97.0458984375
-98.876953125
-92.46826171875
-92.46826171875
-92.46826171875
-97.0458984375
-113.525390625
-122.6806640625
-132.75146484375
-134.58251953125
-126.3427734375
-102.5390625
-73.2421875
-32.958984375
36.62109375
136.41357421875
247.1923828125
361.63330078125
487.97607421875
598.7548828125
692.138671875
807.4951171875
934.75341796875
1064.75830078125
1138.916015625
1142.578125
1092.22412109375
899.96337890625
582.275390625
306.70166015625
67.7490234375
-65.91796875
-81.48193359375
-66.83349609375
-55.84716796875
-47.607421875
-18.310546875
3.662109375
10.07080078125
10.986328125
6.40869140625
-5.4931640625
-15.56396484375
-27.4658203125
-35.70556640625
-37.53662109375
-38.4521484375
-45.7763671875
-48.52294921875
-51.26953125
-55.84716796875
-53.1005859375
-54.931640625
-53.1005859375
-54.01611328125
-54.01611328125
-55.84716796875
-54.931640625
-59.50927734375
-57.67822265625
-56.7626953125
-51.26953125
-52.18505859375
-57.67822265625
-54.931640625
-51.26953125
-49.4384765625
-51.26953125
-52.18505859375
-50.35400390625
-49.4384765625
-49.4384765625
-48.52294921875
-50.35400390625
-52.18505859375
-47.607421875
-46.69189453125
-49.4384765625
-50.35400390625
-45.7763671875
-44.86083984375
-43.9453125
-43.9453125
-43.02978515625
-44.86083984375
-44.86083984375
-40.283203125
-36.62109375
-36.62109375
-36.62109375
-34.7900390625
-32.958984375
-33.87451171875
-32.04345703125
-35.70556640625
-32.958984375
-34.7900390625
-31.1279296875
-26.55029296875
-21.05712890625
-21.97265625
-25.634765625
-28.38134765625
-23.8037109375
-18.310546875
-20.1416015625
-18.310546875
-16.4794921875
-13.73291015625
-11.90185546875
-8.23974609375
-2.74658203125
-1.8310546875
-2.74658203125
-7.32421875
-2.74658203125
-1.8310546875
1.8310546875
2.74658203125
5.4931640625
11.90185546875
12.8173828125
13.73291015625
17.39501953125
21.05712890625
24.71923828125
28.38134765625
35.70556640625
35.70556640625
34.7900390625
42.1142578125
43.9453125
49.4384765625
51.26953125
53.1005859375
56.7626953125
61.34033203125
70.49560546875
71.4111328125
72.32666015625
77.81982421875
79.65087890625
84.228515625
89.7216796875
93.3837890625
94.29931640625
98.876953125
100.7080078125
104.3701171875
108.0322265625
113.525390625
112.60986328125
113.525390625
116.27197265625
116.27197265625
118.10302734375
120.849609375
119.0185546875
112.60986328125
107.11669921875
101.62353515625
99.79248046875
97.0458984375
88.80615234375
81.48193359375
72.32666015625
62.255859375
57.67822265625
54.01611328125
44.86083984375
33.87451171875
29.296875
22.88818359375
18.310546875
9.1552734375
0
-3.662109375
-7.32421875
-11.90185546875
-19.22607421875
-25.634765625
-32.958984375
-33.87451171875
-43.02978515625
-44.86083984375
-49.4384765625
-48.52294921875
-50.35400390625
-55.84716796875
-58.59375
-56.7626953125
-54.931640625
-58.59375
-64.0869140625
-60.4248046875
-57.67822265625
-64.0869140625
-62.255859375
-66.83349609375
-65.00244140625
-65.91796875
-63.17138671875
-65.00244140625
-66.83349609375
-64.0869140625
-65.91796875
-65.91796875
-63.17138671875
-64.0869140625
-65.00244140625
-65.00244140625
-62.255859375
-64.0869140625
-63.17138671875
-64.0869140625
-63.17138671875
-67.7490234375
-70.49560546875
-64.0869140625
-64.0869140625
-67.7490234375
-64.0869140625
-62.255859375
-62.255859375
-63.17138671875
-63.17138671875
-58.59375
-64.0869140625
-60.4248046875
-56.7626953125
-56.7626953125
-57.67822265625
-63.17138671875
-65.91796875
-64.0869140625
-62.255859375
-58.59375
-57.67822265625
-56.7626953125
-62.255859375
-63.17138671875
-61.34033203125
-64.0869140625
-62.255859375
-60.4248046875
-57.67822265625
-58.59375
-59.50927734375
-60.4248046875
-63.17138671875
-59.50927734375
-57.67822265625
-56.7626953125
-56.7626953125
-59.50927734375
-61.34033203125
-63.17138671875
-65.91796875
-65.91796875
-65.91796875
-67.7490234375
-65.91796875
-62.255859375
-63.17138671875
-62.255859375
-65.91796875
-67.7490234375
-67.7490234375
-68.66455078125
-65.00244140625
-63.17138671875
-65.91796875
-70.49560546875
-68.66455078125
-71.4111328125
-74.15771484375
-75.0732421875
-78.7353515625
-76.904296875
-73.2421875
-73.2421875
-75.0732421875
-78.7353515625
-78.7353515625
-75.0732421875
-75.98876953125
-80.56640625
-79.65087890625
-80.56640625
-81.48193359375
-80.56640625
-82.3974609375
-86.97509765625
-83.31298828125
-83.31298828125
-85.14404296875
-86.97509765625
-88.80615234375
-82.3974609375
-82.3974609375
-82.3974609375
-86.0595703125
-90.63720703125
-88.80615234375
-90.63720703125
-89.7216796875
-86.0595703125
-89.7216796875
-88.80615234375
-88.80615234375
-88.80615234375
-83.31298828125
-87.890625
-90.63720703125
-86.0595703125
-91.552734375
-96.13037109375
-95.21484375
-88.80615234375
-97.0458984375
-98.876953125
-91.552734375
-91.552734375
-93.3837890625
-94.29931640625
-92.46826171875
-92.46826171875
-97.96142578125
-97.96142578125
-91.552734375
-91.552734375
-95.21484375
-95.21484375
-98.876953125
-93.3837890625
-94.29931640625
-95.21484375
-97.96142578125
-96.13037109375
-96.13037109375
-99.79248046875
-98.876953125
-99.79248046875
-100.7080078125
-101.62353515625
-104.3701171875
-101.62353515625
-97.96142578125
-99.79248046875
-98.876953125
-100.7080078125
-100.7080078125
-98.876953125
-101.62353515625
-99.79248046875
-101.62353515625
-103.45458984375
-99.79248046875
-97.96142578125
-98.876953125
-103.45458984375
-105.28564453125
-99.79248046875
-101.62353515625
-99.79248046875
-98.876953125
-103.45458984375
-104.3701171875
-103.45458984375
-98.876953125
-94.29931640625
-95.21484375
-97.0458984375
-104.3701171875
-104.3701171875
-96.13037109375
-98.876953125
-100.7080078125
-97.96142578125
-92.46826171875
-98.876953125
-100.7080078125
-97.96142578125
-97.0458984375
-100.7080078125
-105.28564453125
-100.7080078125
-97.0458984375
-100.7080078125
-104.3701171875
-104.3701171875
-106.201171875
-107.11669921875
-105.28564453125
-110.77880859375
-104.3701171875
-105.28564453125
-106.201171875
-105.28564453125
-109.86328125
-105.28564453125
-103.45458984375
-100.7080078125
-101.62353515625
-106.201171875
-104.3701171875
-103.45458984375
-106.201171875
-105.28564453125
-101.62353515625
-104.3701171875
-103.45458984375
-104.3701171875
-108.94775390625
-106.201171875
-104.3701171875
-101.62353515625
-100.7080078125
-107.11669921875
-111.6943359375
-104.3701171875
-97.0458984375
-89.7216796875
-79.65087890625
-70.49560546875
-66.83349609375
-67.7490234375
-65.00244140625
-63.17138671875
-61.34033203125
-54.931640625
-56.7626953125
-50.35400390625
-34.7900390625
-39.36767578125
-35.70556640625
-30.21240234375
-34.7900390625
-43.9453125
-54.931640625
-53.1005859375
-49.4384765625
-48.52294921875
-54.01611328125
-60.4248046875
-62.255859375
-62.255859375
-66.83349609375
-75.0732421875
-80.56640625
-81.48193359375
-85.14404296875
-94.29931640625
-98.876953125
-105.28564453125
-108.94775390625
-112.60986328125
-119.93408203125
-115.3564453125
-112.60986328125
-122.6806640625
-123.59619140625
-119.93408203125
-120.849609375
-128.173828125
-123.59619140625
-117.1875
-116.27197265625
-118.10302734375
-122.6806640625
-119.93408203125
-124.51171875
-124.51171875
-125.42724609375
-125.42724609375
-121.76513671875
-123.59619140625
-122.6806640625
-124.51171875
-120.849609375
-119.0185546875
-118.10302734375
-117.1875
-118.10302734375
-118.10302734375
-119.93408203125
-123.59619140625
-117.1875
-116.27197265625
-118.10302734375
-121.76513671875
-126.3427734375
-136.41357421875
-148.3154296875
-156.55517578125
-155.6396484375
-140.9912109375
-119.93408203125
-86.0595703125
-28.38134765625
60.4248046875
173.03466796875
285.64453125
410.15625
545.654296875
651.85546875
745.2392578125
867.00439453125
1000.67138671875
1108.70361328125
1155.3955078125
1146.240234375
1029.052734375
766.29638671875
451.35498046875
188.5986328125
-43.02978515625
-117.1875
-108.94775390625
-78.7353515625
-74.15771484375
-70.49560546875
-42.1142578125
-15.56396484375
-13.73291015625
-21.05712890625
-25.634765625
-34.7900390625
-45.7763671875
-51.26953125
-56.7626953125
-66.83349609375
-68.66455078125
-67.7490234375
-67.7490234375
-67.7490234375
-71.4111328125
-69.580078125
-69.580078125
-72.32666015625
-72.32666015625
-74.15771484375
-75.0732421875
-75.98876953125
-76.904296875
-75.0732421875
-70.49560546875
-73.2421875
-72.32666015625
-77.81982421875
-76.904296875
-69.580078125
-70.49560546875
-74.15771484375
-69.580078125
-66.83349609375
-65.91796875
-63.17138671875
-64.0869140625
-61.34033203125
-61.34033203125
-62.255859375
-64.0869140625
-65.00244140625
-66.83349609375
-67.7490234375
-65.91796875
-59.50927734375
-62.255859375
-64.0869140625
-64.0869140625
-60.4248046875
-53.1005859375
-58.59375
-55.84716796875
-56.7626953125
-54.01611328125
-51.26953125
-50.35400390625
-47.607421875
-52.18505859375
-50.35400390625
-44.86083984375
-46.69189453125
-38.4521484375
-41.19873046875
-43.02978515625
-42.1142578125
-44.86083984375
-43.9453125
-40.283203125
-35.70556640625
-34.7900390625
-30.21240234375
-29.296875
-28.38134765625
-25.634765625
-23.8037109375
-24.71923828125
-25.634765625
-22.88818359375
-23.8037109375
-13.73291015625
-14.6484375
-10.986328125
-9.1552734375
-6.40869140625
-0.91552734375
0
1.8310546875
3.662109375
3.662109375
10.07080078125
8.23974609375
11.90185546875
16.4794921875
21.97265625
25.634765625
24.71923828125
31.1279296875
34.7900390625
42.1142578125
44.86083984375
46.69189453125
52.18505859375
54.01611328125
55.84716796875
63.17138671875
69.580078125
72.32666015625
75.98876953125
76.904296875
80.56640625
79.65087890625
85.14404296875
89.7216796875
90.63720703125
90.63720703125
94.29931640625
98.876953125
104.3701171875
104.3701171875
99.79248046875
97.0458984375
93.3837890625
93.3837890625
88.80615234375
83.31298828125
77.81982421875
73.2421875
67.7490234375
65.00244140625
58.59375
54.01611328125
46.69189453125
38.4521484375
30.21240234375
21.05712890625
11.90185546875
4.57763671875
-2.74658203125
-10.986328125
-16.4794921875
-14.6484375
-27.4658203125
-35.70556640625
-36.62109375
-43.02978515625
-52.18505859375
-49.4384765625
-54.931640625
-58.59375
-56.7626953125
-59.50927734375
-63.17138671875
-61.34033203125
-61.34033203125
-65.00244140625
-68.66455078125
-70.49560546875
-74.15771484375
-73.2421875
-75.0732421875
-71.4111328125
-69.580078125
-68.66455078125
-69.580078125
-72.32666015625
-75.0732421875
-78.7353515625
-76.904296875
-74.15771484375
-70.49560546875
-70.49560546875
-66.83349609375
-69.580078125
-68.66455078125
-65.91796875
-66.83349609375
-73.2421875
-74.15771484375
-75.0732421875
-66.83349609375
-66.83349609375
-69.580078125
-69.580078125
-72.32666015625
-71.4111328125
-67.7490234375
-63.17138671875
-68.66455078125
-65.91796875
-64.0869140625
-70.49560546875
-67.7490234375
-68.66455078125
-70.49560546875
-68.66455078125
-68.66455078125
-67.7490234375
-64.0869140625
-64.0869140625
-64.0869140625
-65.91796875
-73.2421875
-68.66455078125
-70.49560546875
-68.66455078125
-62.255859375
-65.00244140625
-65.00244140625
-62.255859375
-64.0869140625
-65.91796875
-64.0869140625
-65.00244140625
-60.4248046875
-58.59375
-64.0869140625
-67.7490234375
-67.7490234375
-67.7490234375
-67.7490234375
-72.32666015625
-74.15771484375
-67.7490234375
-65.91796875
-65.91796875
-70.49560546875
-74.15771484375
-68.66455078125
-63.17138671875
-65.91796875
-64.0869140625
-66.83349609375
-66.83349609375
-69.580078125
-69.580078125
-71.4111328125
-69.580078125
-71.4111328125
-70.49560546875
-75.98876953125
-78.7353515625
-75.98876953125
-78.7353515625
-78.7353515625
-78.7353515625
-79.65087890625
-82.3974609375
-75.98876953125
-78.7353515625
-80.56640625
-79.65087890625
-79.65087890625
-81.48193359375
-76.904296875
-78.7353515625
-78.7353515625
-79.65087890625
-80.56640625
-82.3974609375
-77.81982421875
-81.48193359375
-87.890625
-86.97509765625
-82.3974609375
-84.228515625
-86.97509765625
-86.97509765625
-82.3974609375
-82.3974609375
-85.14404296875
-85.14404296875
-86.0595703125
-80.56640625
-80.56640625
-79.65087890625
-77.81982421875
-81.48193359375
-85.14404296875
-86.97509765625
-83.31298828125
-85.14404296875
-84.228515625
-86.0595703125
-88.80615234375
-91.552734375
-92.46826171875
-92.46826171875
-94.29931640625
-86.0595703125
-83.31298828125
-85.14404296875
-85.14404296875
-86.0595703125
-90.63720703125
-89.7216796875
-93.3837890625
-87.890625
-81.48193359375
-87.890625
-87.890625
-87.890625
-87.890625
-87.890625
-83.31298828125
-86.0595703125
-93.3837890625
-92.46826171875
-88.80615234375
-91.552734375
-90.63720703125
-86.97509765625
-79.65087890625
-76.904296875
-85.14404296875
-87.890625
-87.890625
-86.0595703125
-84.228515625
-86.0595703125
-86.0595703125
-93.3837890625
-92.46826171875
-85.14404296875
-85.14404296875
-88.80615234375
-91.552734375
-86.0595703125
-83.31298828125
-86.97509765625
-93.3837890625
-89.7216796875
-87.890625
-88.80615234375
-85.14404296875
-85.14404296875
-87.890625
-91.552734375
-92.46826171875
-91.552734375
-87.890625
-86.97509765625
-87.890625
-88.80615234375
-90.63720703125
-87.890625
-94.29931640625
-93.3837890625
-87.890625
-86.0595703125
-86.0595703125
-88.80615234375
-81.48193359375
-75.98876953125
-72.32666015625
-58.59375
-43.02978515625
-43.02978515625
-51.26953125
-54.01611328125
-50.35400390625
-42.1142578125
-38.4521484375
-33.87451171875
-25.634765625
-18.310546875
-12.8173828125
-10.986328125
-15.56396484375
-22.88818359375
-22.88818359375
-31.1279296875
-24.71923828125
-27.4658203125
-27.4658203125
-31.1279296875
-36.62109375
-46.69189453125
-52.18505859375
-59.50927734375
-62.255859375
-65.91796875
-72.32666015625
-75.98876953125
-84.228515625
-86.0595703125
-94.29931640625
-98.876953125
-95.21484375
-98.876953125
-102.5390625
-103.45458984375
-106.201171875
-101.62353515625
-99.79248046875
-97.96142578125
-98.876953125
-97.0458984375
-97.96142578125
-100.7080078125
-104.3701171875
-101.62353515625
-102.5390625
-98.876953125
-98.876953125
-102.5390625
-101.62353515625
-98.876953125
-98.876953125
-103.45458984375
-99.79248046875
-101.62353515625
-98.876953125
-96.13037109375
-102.5390625
-99.79248046875
-102.5390625
-102.5390625
-97.0458984375
-97.96142578125
-98.876953125
-100.7080078125
-108.0322265625
-121.76513671875
-128.173828125
-131.8359375
-134.58251953125
-120.849609375
-96.13037109375
-57.67822265625
-6.40869140625
77.81982421875
189.51416015625
300.29296875
419.3115234375
543.8232421875
644.53125
738.83056640625
851.4404296875
986.9384765625
1091.30859375
1127.01416015625
1115.1123046875
997.00927734375
737.9150390625
420.22705078125
173.03466796875
-31.1279296875
-84.228515625
-75.0732421875
-51.26953125
-51.26953125
-40.283203125
-9.1552734375
2.74658203125
4.57763671875
0.91552734375
-7.32421875
-16.4794921875
-24.71923828125
-28.38134765625
-34.7900390625
-41.19873046875
-47.607421875
-52.18505859375
-50.35400390625
-43.02978515625
-45.7763671875
-54.931640625
-53.1005859375
-53.1005859375
-54.931640625
-50.35400390625
-51.26953125
-49.4384765625
-47.607421875
-50.35400390625
-54.01611328125
-52.18505859375
-50.35400390625
-47.607421875
-47.607421875
-46.69189453125
-47.607421875
-50.35400390625
-51.26953125
-50.35400390625
-50.35400390625
-49.4384765625
-47.607421875
-46.69189453125
-45.7763671875
-44.86083984375
-42.1142578125
-41.19873046875
-42.1142578125
-40.283203125
-40.283203125
-41.19873046875
-39.36767578125
-37.53662109375
-40.283203125
-36.62109375
-34.7900390625
-35.70556640625
-32.04345703125
-34.7900390625
-38.4521484375
-32.958984375
-29.296875
-28.38134765625
-28.38134765625
-31.1279296875
-31.1279296875
-25.634765625
-22.88818359375
-23.8037109375
-24.71923828125
-19.22607421875
-11.90185546875
-8.23974609375
-16.4794921875
-20.1416015625
-13.73291015625
-18.310546875
-13.73291015625
-6.40869140625
0
-3.662109375
-0.91552734375
1.8310546875
0
5.4931640625
5.4931640625
6.40869140625
10.986328125
10.986328125
14.6484375
22.88818359375
23.8037109375
24.71923828125
25.634765625
28.38134765625
39.36767578125
43.9453125
41.19873046875
45.7763671875
51.26953125
54.01611328125
59.50927734375
64.0869140625
67.7490234375
66.83349609375
65.91796875
75.98876953125
79.65087890625
87.890625
92.46826171875
93.3837890625
97.96142578125
98.876953125
106.201171875
107.11669921875
108.94775390625
108.94775390625
113.525390625
118.10302734375
123.59619140625
121.76513671875
123.59619140625
122.6806640625
124.51171875
124.51171875
123.59619140625
118.10302734375
113.525390625
114.44091796875
108.94775390625
101.62353515625
99.79248046875
96.13037109375
86.97509765625
78.7353515625
75.98876953125
65.91796875
58.59375
43.02978515625
36.62109375
33.87451171875
27.4658203125
19.22607421875
13.73291015625
12.8173828125
7.32421875
-1.8310546875
-5.4931640625
-10.07080078125
-18.310546875
-21.05712890625
-25.634765625
-28.38134765625
-32.04345703125
-36.62109375
-36.62109375
-33.87451171875
-39.36767578125
-41.19873046875
-41.19873046875
-38.4521484375
-38.4521484375
-41.19873046875
-47.607421875
-54.01611328125
-49.4384765625
-44.86083984375
-49.4384765625
-54.01611328125
-51.26953125
-49.4384765625
-47.607421875
-47.607421875
-43.9453125
-46.69189453125
-46.69189453125
-50.35400390625
-48.52294921875
-48.52294921875
-46.69189453125
-46.69189453125
-43.9453125
-47.607421875
-49.4384765625
-50.35400390625
-48.52294921875
-47.607421875
-45.7763671875
-43.9453125
-43.02978515625
-43.02978515625
-43.02978515625
-44.86083984375
-45.7763671875
-42.1142578125
-42.1142578125
-43.02978515625
-38.4521484375
-39.36767578125
-39.36767578125
-39.36767578125
-39.36767578125
-39.36767578125
-41.19873046875
-38.4521484375
-35.70556640625
-39.36767578125
-43.02978515625
-39.36767578125
-37.53662109375
-38.4521484375
-36.62109375
-39.36767578125
-43.9453125
-38.4521484375
-41.19873046875
-41.19873046875
-30.21240234375
-31.1279296875
-36.62109375
-35.70556640625
-36.62109375
-35.70556640625
-39.36767578125
-43.02978515625
-40.283203125
-41.19873046875
-43.02978515625
-40.283203125
-43.02978515625
-41.19873046875
-44.86083984375
-43.9453125
-41.19873046875
-41.19873046875
-40.283203125
-40.283203125
-43.02978515625
-39.36767578125
-43.02978515625
-43.02978515625
-46.69189453125
-44.86083984375
-46.69189453125
-49.4384765625
-51.26953125
-48.52294921875
-47.607421875
-46.69189453125
-50.35400390625
-47.607421875
-53.1005859375
-57.67822265625
-56.7626953125
-59.50927734375
-62.255859375
-55.84716796875
-49.4384765625
-47.607421875
-54.931640625
-51.26953125
-48.52294921875
-54.01611328125
-56.7626953125
-58.59375
-60.4248046875
-61.34033203125
-58.59375
-63.17138671875
-69.580078125
-65.91796875
-62.255859375
-60.4248046875
-63.17138671875
-64.0869140625
-59.50927734375
-57.67822265625
-60.4248046875
-63.17138671875
-65.91796875
-61.34033203125
-59.50927734375
-60.4248046875
-59.50927734375
-68.66455078125
-66.83349609375
-66.83349609375
-65.91796875
-62.255859375
-65.91796875
-65.00244140625
-62.255859375
-65.00244140625
-65.00244140625
-61.34033203125
-63.17138671875
-65.91796875
-66.83349609375
-68.66455078125
-61.34033203125
-62.255859375
-65.91796875
-63.17138671875
-65.00244140625
-66.83349609375
-68.66455078125
-64.0869140625
-65.00244140625
-65.00244140625
-65.00244140625
-69.580078125
-64.0869140625
-67.7490234375
-69.580078125
-65.91796875
-65.91796875
-63.17138671875
-65.00244140625
-67.7490234375
-67.7490234375
-69.580078125
-65.00244140625
-60.4248046875
-65.91796875
-70.49560546875
-71.4111328125
-72.32666015625
-67.7490234375
-66.83349609375
-68.66455078125
-69.580078125
-66.83349609375
-65.00244140625
-65.91796875
-68.66455078125
-70.49560546875
-68.66455078125
-65.91796875
-62.255859375
-64.0869140625
-66.83349609375
-66.83349609375
-67.7490234375
-73.2421875
-69.580078125
-68.66455078125
-71.4111328125
-71.4111328125
-70.49560546875
-70.49560546875
-66.83349609375
-68.66455078125
-68.66455078125
-71.4111328125
-73.2421875
-69.580078125
-69.580078125
-67.7490234375
-64.0869140625
-65.91796875
-68.66455078125
-73.2421875
-67.7490234375
-68.66455078125
-68.66455078125
-67.7490234375
-70.49560546875
-69.580078125
-70.49560546875
-75.0732421875
-74.15771484375
-70.49560546875
-70.49560546875
-70.49560546875
-68.66455078125
-71.4111328125
-71.4111328125
-61.34033203125
-50.35400390625
-44.86083984375
-32.04345703125
-31.1279296875
-33.87451171875
-32.04345703125
-30.21240234375
-28.38134765625
-19.22607421875
-17.39501953125
-10.07080078125
1.8310546875
0.91552734375
2.74658203125
10.07080078125
3.662109375
-2.74658203125
-9.1552734375
-14.6484375
-8.23974609375
-9.1552734375
-8.23974609375
-14.6484375
-18.310546875
-26.55029296875
-36.62109375
-44.86083984375
-49.4384765625
-45.7763671875
-47.607421875
-53.1005859375
-55.84716796875
-62.255859375
-71.4111328125
-75.98876953125
-78.7353515625
-86.0595703125
-86.97509765625
-86.0595703125
-83.31298828125
-85.14404296875
-86.97509765625
-85.14404296875
-85.14404296875
-84.228515625
-82.3974609375
-86.97509765625
-87.890625
-93.3837890625
-92.46826171875
-82.3974609375
-82.3974609375
-85.14404296875
-85.14404296875
-82.3974609375
-85.14404296875
-86.97509765625
-86.97509765625
-88.80615234375
-83.31298828125
-82.3974609375
-82.3974609375
-85.14404296875
-84.228515625
-85.14404296875
-83.31298828125
-82.3974609375
-87.890625
-89.7216796875
-97.96142578125
-110.77880859375
-117.1875
-119.0185546875
-112.60986328125
-86.97509765625
-54.01611328125
-6.40869140625
75.0732421875
182.18994140625
292.05322265625
408.3251953125
531.005859375
638.12255859375
733.33740234375
848.69384765625
976.86767578125
1094.970703125
1149.90234375
1148.0712890625
1051.025390625
796.5087890625
480.65185546875
230.712890625
10.07080078125
-71.4111328125
-74.15771484375
-45.7763671875
-42.1142578125
-27.4658203125
-1.8310546875
15.56396484375
22.88818359375
15.56396484375
8.23974609375
0.91552734375
-6.40869140625
-15.56396484375
-22.88818359375
-25.634765625
-32.958984375
-32.04345703125
-36.62109375
-41.19873046875
-37.53662109375
-38.4521484375
-36.62109375
-39.36767578125
-46.69189453125
-41.19873046875
-38.4521484375
-46.69189453125
-46.69189453125
-45.7763671875
-48.52294921875
-46.69189453125
-43.9453125
-45.7763671875
-45.7763671875
-45.7763671875
-44.86083984375
-41.19873046875
-40.283203125
-44.86083984375
-43.02978515625
-40.283203125
-43.02978515625
-44.86083984375
-39.36767578125
-41.19873046875
-39.36767578125
-40.283203125
-36.62109375
-35.70556640625
-35.70556640625
-37.53662109375
-36.62109375
-31.1279296875
-29.296875
-32.04345703125
-32.04345703125
-32.958984375
-27.4658203125
-26.55029296875
-29.296875
-32.04345703125
-24.71923828125
-21.05712890625
-26.55029296875
-24.71923828125
-22.88818359375
-18.310546875
-19.22607421875
-21.97265625
-20.1416015625
-20.1416015625
-14.6484375
-10.986328125
-11.90185546875
-16.4794921875
-10.986328125
-10.07080078125
-9.1552734375
-4.57763671875
3.662109375
-4.57763671875
-10.07080078125
-0.91552734375
8.23974609375
10.986328125
7.32421875
4.57763671875
10.986328125
20.1416015625
24.71923828125
23.8037109375
23.8037109375
24.71923828125
26.55029296875
34.7900390625
40.283203125
37.53662109375
43.02978515625
43.9453125
52.18505859375
55.84716796875
53.1005859375
59.50927734375
60.4248046875
65.91796875
68.66455078125
70.49560546875
78.7353515625
83.31298828125
84.228515625
89.7216796875
93.3837890625
95.21484375
97.0458984375
99.79248046875
103.45458984375
105.28564453125
108.94775390625
115.3564453125
119.93408203125
119.93408203125
120.849609375
120.849609375
125.42724609375
122.6806640625
128.173828125
129.08935546875
119.93408203125
119.0185546875
117.1875
112.60986328125
106.201171875
98.876953125
90.63720703125
86.0595703125
75.98876953125
68.66455078125
62.255859375
59.50927734375
48.52294921875
45.7763671875
37.53662109375
33.87451171875
26.55029296875
17.39501953125
12.8173828125
4.57763671875
-3.662109375
-8.23974609375
-7.32421875
-13.73291015625
-21.05712890625
-28.38134765625
-30.21240234375
-31.1279296875
-32.04345703125
-37.53662109375
-41.19873046875
-38.4521484375
-45.7763671875
-44.86083984375
-46.69189453125
-49.4384765625
-47.607421875
-45.7763671875
-48.52294921875
-52.18505859375
-49.4384765625
-51.26953125
-53.1005859375
-49.4384765625
-54.01611328125
-54.931640625
-52.18505859375
-55.84716796875
-62.255859375
-58.59375
-52.18505859375
-56.7626953125
-57.67822265625
-49.4384765625
-49.4384765625
-50.35400390625
-53.1005859375
-46.69189453125
-47.607421875
-52.18505859375
-50.35400390625
-52.18505859375
-54.01611328125
-51.26953125
-54.01611328125
-54.01611328125
-48.52294921875
-47.607421875
-49.4384765625
-45.7763671875
-46.69189453125
-50.35400390625
-48.52294921875
-39.36767578125
-46.69189453125
-54.931640625
-53.1005859375
-52.18505859375
-54.01611328125
-48.52294921875
-50.35400390625
-51.26953125
-50.35400390625
-49.4384765625
-50.35400390625
-52.18505859375
-50.35400390625
-48.52294921875
-54.01611328125
-54.01611328125
-48.52294921875
-54.01611328125
-56.7626953125
-56.7626953125
-56.7626953125
-57.67822265625
-59.50927734375
-57.67822265625
-57.67822265625
-64.0869140625
-58.59375
-53.1005859375
-50.35400390625
-51.26953125
-52.18505859375
-54.01611328125
-57.67822265625
-56.7626953125
-55.84716796875
-56.7626953125
-57.67822265625
-55.84716796875
-57.67822265625
-60.4248046875
-57.67822265625
-65.00244140625
-67.7490234375
-68.66455078125
-69.580078125
-68.66455078125
-65.91796875
-66.83349609375
-64.0869140625
-65.00244140625
-68.66455078125
-64.0869140625
-64.0869140625
-70.49560546875
-69.580078125
-71.4111328125
-69.580078125
-67.7490234375
-66.83349609375
-69.580078125
-75.0732421875
-72.32666015625
-72.32666015625
-75.0732421875
-76.904296875
-77.81982421875
-75.98876953125
-74.15771484375
-78.7353515625
-86.0595703125
-83.31298828125
-80.56640625
-83.31298828125
-86.97509765625
-85.14404296875
-82.3974609375
-79.65087890625
-80.56640625
-73.2421875
-79.65087890625
-79.65087890625
-79.65087890625
-87.890625
-87.890625
-81.48193359375
-78.7353515625
-82.3974609375
-88.80615234375
-87.890625
-86.0595703125
-88.80615234375
-83.31298828125
-82.3974609375
-86.97509765625
-81.48193359375
-79.65087890625
-85.14404296875
-87.890625
-89.7216796875
-91.552734375
-87.890625
-86.97509765625
-89.7216796875
-86.97509765625
-86.0595703125
-86.0595703125
-91.552734375
-87.890625
-85.14404296875
-87.890625
-89.7216796875
-88.80615234375
-88.80615234375
-93.3837890625
-98.876953125
-98.876953125
-92.46826171875
-92.46826171875
-93.3837890625
-91.552734375
-91.552734375
-97.0458984375
-92.46826171875
-92.46826171875
-90.63720703125
-96.13037109375
-98.876953125
-95.21484375
-91.552734375
-95.21484375
-99.79248046875
-102.5390625
-95.21484375
-96.13037109375
-94.29931640625
-95.21484375
-97.0458984375
-91.552734375
-100.7080078125
-100.7080078125
-97.0458984375
-92.46826171875
-95.21484375
-93.3837890625
-89.7216796875
-91.552734375
-89.7216796875
-88.80615234375
-82.3974609375
-76.904296875
-70.49560546875
-66.83349609375
-65.91796875
-67.7490234375
-68.66455078125
-68.66455078125
-58.59375
-54.01611328125
-50.35400390625
-39.36767578125
-28.38134765625
-25.634765625
-20.1416015625
-20.1416015625
-29.296875
-28.38134765625
-33.87451171875
-29.296875
-31.1279296875
-34.7900390625
-41.19873046875
-43.9453125
-50.35400390625
-61.34033203125
-71.4111328125
-78.7353515625
-74.15771484375
-80.56640625
-86.0595703125
-92.46826171875
-101.62353515625
-107.11669921875
-111.6943359375
-108.0322265625
-110.77880859375
-113.525390625
-115.3564453125
-113.525390625
-106.201171875
-103.45458984375
-107.11669921875
-116.27197265625
-114.44091796875
-113.525390625
-110.77880859375
-118.10302734375
-118.10302734375
-118.10302734375
-119.93408203125
-114.44091796875
-108.94775390625
-108.94775390625
-114.44091796875
-119.93408203125
-119.93408203125
-115.3564453125
-125.42724609375
-119.0185546875
-115.3564453125
-110.77880859375
-113.525390625
-109.86328125
-114.44091796875
-110.77880859375
-110.77880859375
-110.77880859375
-109.86328125
-119.93408203125
-128.173828125
-142.822265625
-153.80859375
-152.89306640625
-136.41357421875
-112.60986328125
-76.904296875
-20.1416015625
61.34033203125
179.443359375
293.88427734375
421.142578125
552.06298828125
658.26416015625
747.0703125
858.7646484375
1007.99560546875
1116.943359375
1149.90234375
1127.01416015625
999.755859375
734.2529296875
416.56494140625
152.89306640625
-58.59375
-114.44091796875
-97.0458984375
-72.32666015625
-66.83349609375
-65.00244140625
-40.283203125
-21.05712890625
-15.56396484375
-12.8173828125
-22.88818359375
-34.7900390625
-38.4521484375
-42.1142578125
-54.931640625
-54.01611328125
-57.67822265625
-61.34033203125
-68.66455078125
-67.7490234375
-68.66455078125
-72.32666015625
-72.32666015625
-70.49560546875
-70.49560546875
-72.32666015625
-73.2421875
-69.580078125
-66.83349609375
-66.83349609375
-74.15771484375
-72.32666015625
-70.49560546875
-73.2421875
-70.49560546875
-67.7490234375
-65.00244140625
-67.7490234375
-64.0869140625
-71.4111328125
-75.0732421875
-69.580078125
-61.34033203125
-62.255859375
-62.255859375
-61.34033203125
-58.59375
-67.7490234375
-66.83349609375
-59.50927734375
-56.7626953125
-64.0869140625
-64.0869140625
-60.4248046875
-55.84716796875
-60.4248046875
-55.84716796875
-58.59375
-57.67822265625
-54.01611328125
-55.84716796875
-52.18505859375
-52.18505859375
-45.7763671875
-43.9453125
-45.7763671875
-45.7763671875
-47.607421875
-46.69189453125
-44.86083984375
-42.1142578125
-40.283203125
-33.87451171875
-32.04345703125
-34.7900390625
-30.21240234375
-32.04345703125
-28.38134765625
-21.97265625
-21.97265625
-23.8037109375
-26.55029296875
-23.8037109375
-21.97265625
-19.22607421875
-15.56396484375
-10.986328125
-11.90185546875
-10.07080078125
-9.1552734375
-7.32421875
-2.74658203125
-1.8310546875
3.662109375
7.32421875
10.986328125
15.56396484375
17.39501953125
18.310546875
21.05712890625
25.634765625
33.87451171875
31.1279296875
38.4521484375
39.36767578125
42.1142578125
45.7763671875
52.18505859375
50.35400390625
53.1005859375
56.7626953125
65.91796875
67.7490234375
73.2421875
74.15771484375
79.65087890625
81.48193359375
81.48193359375
90.63720703125
91.552734375
91.552734375
96.13037109375
98.876953125
99.79248046875
96.13037109375
93.3837890625
92.46826171875
93.3837890625
84.228515625
84.228515625
83.31298828125
78.7353515625
69.580078125
62.255859375
57.67822265625
52.18505859375
44.86083984375
35.70556640625
28.38134765625
16.4794921875
11.90185546875
10.986328125
4.57763671875
-1.8310546875
-10.07080078125
-18.310546875
-25.634765625
-31.1279296875
-35.70556640625
-37.53662109375
-38.4521484375
-43.9453125
-40.283203125
-45.7763671875
-45.7763671875
-46.69189453125
-54.931640625
-54.01611328125
-61.34033203125
-71.4111328125
-70.49560546875
-63.17138671875
-64.0869140625
-70.49560546875
-68.66455078125
-69.580078125
-74.15771484375
-74.15771484375
-77.81982421875
-80.56640625
-81.48193359375
-73.2421875
-73.2421875
-75.0732421875
-79.65087890625
-79.65087890625
-74.15771484375
-72.32666015625
-76.904296875
-77.81982421875
-75.0732421875
-73.2421875
-70.49560546875
-72.32666015625
-76.904296875
-67.7490234375
-67.7490234375
-71.4111328125
-70.49560546875
-72.32666015625
-68.66455078125
-70.49560546875
-68.66455078125
-68.66455078125
-62.255859375
-70.49560546875
-72.32666015625
-68.66455078125
-67.7490234375
-66.83349609375
-64.0869140625
-65.91796875
-65.00244140625
-63.17138671875
-60.4248046875
-59.50927734375
-58.59375
-59.50927734375
-54.01611328125
-51.26953125
-49.4384765625
-54.931640625
-64.0869140625
-64.0869140625
-62.255859375
-63.17138671875
-62.255859375
-65.00244140625
-61.34033203125
-62.255859375
-63.17138671875
-65.00244140625
-64.0869140625
-63.17138671875
-65.91796875
-65.00244140625
-60.4248046875
-56.7626953125
-60.4248046875
-65.00244140625
-61.34033203125
-59.50927734375
-65.91796875
-63.17138671875
-64.0869140625
-67.7490234375
-68.66455078125
-67.7490234375
-68.66455078125
-66.83349609375
-70.49560546875
-70.49560546875
-71.4111328125
-67.7490234375
-70.49560546875
-69.580078125
-71.4111328125
-68.66455078125
-66.83349609375
-64.0869140625
-69.580078125
-73.2421875
-74.15771484375
-70.49560546875
-65.91796875
-71.4111328125
-73.2421875
-71.4111328125
-69.580078125
-69.580078125
-73.2421875
-77.81982421875
-76.904296875
-74.15771484375
-73.2421875
-71.4111328125
-70.49560546875
-76.904296875
-76.904296875
-76.904296875
-77.81982421875
-73.2421875
-78.7353515625
-85.14404296875
-80.56640625
-75.0732421875
-74.15771484375
-76.904296875
-77.81982421875
-77.81982421875
-80.56640625
-76.904296875
-78.7353515625
-78.7353515625
-80.56640625
-80.56640625
-75.98876953125
-78.7353515625
-81.48193359375
-80.56640625
-75.0732421875
-75.0732421875
-77.81982421875
-79.65087890625
-79.65087890625
-75.0732421875
-77.81982421875
-78.7353515625
-78.7353515625
-79.65087890625
-79.65087890625
-84.228515625
-80.56640625
-76.904296875
-77.81982421875
-78.7353515625
-77.81982421875
-77.81982421875
-75.0732421875
-73.2421875
-75.0732421875
-77.81982421875
-79.65087890625
-82.3974609375
-81.48193359375
-78.7353515625
-81.48193359375
-78.7353515625
-79.65087890625
-80.56640625
-81.48193359375
-77.81982421875
-79.65087890625
-81.48193359375
-85.14404296875
-84.228515625
-86.0595703125
-83.31298828125
-79.65087890625
-79.65087890625
-76.904296875
-81.48193359375
-86.0595703125
-81.48193359375
-81.48193359375
-79.65087890625
-79.65087890625
-80.56640625
-82.3974609375
-81.48193359375
-78.7353515625
-75.0732421875
-65.91796875
-58.59375
-45.7763671875
-40.283203125
-39.36767578125
-41.19873046875
-43.9453125
-44.86083984375
-43.02978515625
-27.4658203125
-27.4658203125
-18.310546875
-9.1552734375
-4.57763671875
2.74658203125
2.74658203125
-13.73291015625
-13.73291015625
-14.6484375
-15.56396484375
-11.90185546875
-12.8173828125
-21.05712890625
-21.97265625
-31.1279296875
-37.53662109375
-42.1142578125
-49.4384765625
-52.18505859375
-55.84716796875
-59.50927734375
-65.91796875
-70.49560546875
-75.98876953125
-83.31298828125
-88.80615234375
-90.63720703125
-92.46826171875
-94.29931640625
-95.21484375
-93.3837890625
-97.0458984375
-98.876953125
-104.3701171875
-97.0458984375
-91.552734375
-87.890625
-89.7216796875
-91.552734375
-91.552734375
-92.46826171875
-92.46826171875
-90.63720703125
-90.63720703125
-94.29931640625
-97.96142578125
-94.29931640625
-89.7216796875
-90.63720703125
-91.552734375
-86.97509765625
-86.0595703125
-87.890625
-90.63720703125
-91.552734375
-85.14404296875
-86.0595703125
-94.29931640625
-94.29931640625
-97.96142578125
-109.86328125
-119.93408203125
-128.173828125
-134.58251953125
-120.849609375
-89.7216796875
-46.69189453125
10.07080078125
100.7080078125
210.5712890625
316.7724609375
446.77734375
566.71142578125
666.50390625
768.12744140625
883.48388671875
1018.06640625
1112.36572265625
1138.916015625
1116.943359375
965.88134765625
677.490234375
382.6904296875
143.73779296875
-39.36767578125
-66.83349609375
-62.255859375
-48.52294921875
-52.18505859375
-35.70556640625
-3.662109375
11.90185546875
14.6484375
6.40869140625
-0.91552734375
-10.07080078125
-17.39501953125
-20.1416015625
-28.38134765625
-37.53662109375
-45.7763671875
-46.69189453125
-40.283203125
-37.53662109375
-42.1142578125
-45.7763671875
-43.02978515625
-41.19873046875
-44.86083984375
-49.4384765625
-47.607421875
-45.7763671875
-46.69189453125
-45.7763671875
-47.607421875
-46.69189453125
-44.86083984375
-46.69189453125
-46.69189453125
-48.52294921875
-48.52294921875
-50.35400390625
-43.02978515625
-46.69189453125
-43.02978515625
-42.1142578125
-42.1142578125
-41.19873046875
-39.36767578125
-36.62109375
-40.283203125
-37.53662109375
-36.62109375
-38.4521484375
-33.87451171875
-33.87451171875
-36.62109375
-32.04345703125
-27.4658203125
-30.21240234375
-28.38134765625
-28.38134765625
-29.296875
-26.55029296875
-21.97265625
-22.88818359375
-23.8037109375
-22.88818359375
-21.05712890625
-19.22607421875
-17.39501953125
-13.73291015625
-14.6484375
-17.39501953125
-21.05712890625
-12.8173828125
-14.6484375
-13.73291015625
-10.07080078125
-4.57763671875
-6.40869140625
2.74658203125
-1.8310546875
-0.91552734375
-1.8310546875
3.662109375
10.07080078125
8.23974609375
7.32421875
10.07080078125
10.07080078125
19.22607421875
14.6484375
15.56396484375
29.296875
27.4658203125
27.4658203125
35.70556640625
38.4521484375
43.9453125
47.607421875
44.86083984375
48.52294921875
50.35400390625
47.607421875
57.67822265625
64.0869140625
69.580078125
72.32666015625
73.2421875
77.81982421875
83.31298828125
87.890625
86.0595703125
89.7216796875
95.21484375
102.5390625
104.3701171875
103.45458984375
102.5390625
109.86328125
109.86328125
108.94775390625
114.44091796875
124.51171875
130.0048828125
130.92041015625
129.08935546875
125.42724609375
125.42724609375
124.51171875
121.76513671875
112.60986328125
107.11669921875
104.3701171875
100.7080078125
92.46826171875
86.0595703125
81.48193359375
68.66455078125
59.50927734375
51.26953125
47.607421875
41.19873046875
30.21240234375
27.4658203125
23.8037109375
15.56396484375
6.40869140625
2.74658203125
-3.662109375
-4.57763671875
-5.4931640625
-10.986328125
-18.310546875
-27.4658203125
-29.296875
-31.1279296875
-36.62109375
-39.36767578125
-41.19873046875
-43.9453125
-44.86083984375
-41.19873046875
-41.19873046875
-50.35400390625
-50.35400390625
-47.607421875
-47.607421875
-46.69189453125
-47.607421875
-50.35400390625
-53.1005859375
-48.52294921875
-49.4384765625
-52.18505859375
-54.931640625
-51.26953125
-56.7626953125
-51.26953125
-50.35400390625
-51.26953125
-55.84716796875
-58.59375
-58.59375
-54.931640625
-54.931640625
-55.84716796875
-54.01611328125
-53.1005859375
-43.02978515625
-44.86083984375
-49.4384765625
-49.4384765625
-51.26953125
-46.69189453125
-46.69189453125
-45.7763671875
-48.52294921875
-48.52294921875
-44.86083984375
-43.9453125
-44.86083984375
-43.9453125
-43.9453125
-44.86083984375
-43.9453125
-46.69189453125
-42.1142578125
-40.283203125
-40.283203125
-42.1142578125
-47.607421875
-42.1142578125
-38.4521484375
-43.02978515625
-41.19873046875
-40.283203125
-43.02978515625
-42.1142578125
-43.02978515625
-42.1142578125
-41.19873046875
-43.02978515625
-43.9453125
-48.52294921875
-41.19873046875
-45.7763671875
-50.35400390625
-43.02978515625
-43.02978515625
-47.607421875
-44.86083984375
-43.02978515625
-41.19873046875
-48.52294921875
-45.7763671875
-43.02978515625
-43.9453125
-43.9453125
-49.4384765625
-46.69189453125
-45.7763671875
-52.18505859375
-53.1005859375
-58.59375
-54.931640625
-55.84716796875
-50.35400390625
-54.931640625
-55.84716796875
-54.01611328125
-57.67822265625
-56.7626953125
-54.931640625
-57.67822265625
-60.4248046875
-61.34033203125
-60.4248046875
-56.7626953125
-53.1005859375
-59.50927734375
-60.4248046875
-54.01611328125
-56.7626953125
-64.0869140625
-60.4248046875
-57.67822265625
-60.4248046875
-61.34033203125
-64.0869140625
-60.4248046875
-65.00244140625
-66.83349609375
-61.34033203125
-65.91796875
-65.00244140625
-70.49560546875
-70.49560546875
-66.83349609375
-63.17138671875
-65.91796875
-65.00244140625
-65.91796875
-68.66455078125
-71.4111328125
-66.83349609375
-65.00244140625
-61.34033203125
-60.4248046875
-70.49560546875
-71.4111328125
-69.580078125
-70.49560546875
-65.91796875
-63.17138671875
-65.00244140625
-64.0869140625
-70.49560546875
-74.15771484375
-75.98876953125
-76.904296875
-72.32666015625
-67.7490234375
-72.32666015625
-75.98876953125
-74.15771484375
-68.66455078125
-69.580078125
-66.83349609375
-71.4111328125
-71.4111328125
-71.4111328125
-69.580078125
-72.32666015625
-73.2421875
-71.4111328125
-71.4111328125
-73.2421875
-72.32666015625
-67.7490234375
-67.7490234375
-72.32666015625
-72.32666015625
-69.580078125
-66.83349609375
-69.580078125
-66.83349609375
-69.580078125
-70.49560546875
-71.4111328125
-70.49560546875
-68.66455078125
-65.91796875
-69.580078125
-70.49560546875
-67.7490234375
-69.580078125
-65.91796875
-66.83349609375
-67.7490234375
-71.4111328125
-73.2421875
-73.2421875
-74.15771484375
-70.49560546875
-79.65087890625
-81.48193359375
-80.56640625
-73.2421875
-70.49560546875
-71.4111328125
-71.4111328125
-69.580078125
-70.49560546875
-71.4111328125
-68.66455078125
-62.255859375
-56.7626953125
-43.9453125
-32.04345703125
-31.1279296875
-35.70556640625
-39.36767578125
-38.4521484375
-35.70556640625
-28.38134765625
-26.55029296875
-21.05712890625
-1.8310546875
0.91552734375
-0.91552734375
7.32421875
3.662109375
-5.4931640625
-4.57763671875
-8.23974609375
-6.40869140625
-10.986328125
-16.4794921875
-18.310546875
-20.1416015625
-30.21240234375
-37.53662109375
-50.35400390625
-55.84716796875
-57.67822265625
-57.67822265625
-60.4248046875
-65.00244140625
-70.49560546875
-77.81982421875
-86.0595703125
-85.14404296875
-84.228515625
-86.0595703125
-85.14404296875
-88.80615234375
-86.0595703125
-87.890625
-89.7216796875
-89.7216796875
-91.552734375
-89.7216796875
-87.890625
-89.7216796875
-87.890625
-85.14404296875
-86.97509765625
-91.552734375
-90.63720703125
-87.890625
-90.63720703125
-93.3837890625
-94.29931640625
-91.552734375
-95.21484375
-94.29931640625
-95.21484375
-86.97509765625
-85.14404296875
-89.7216796875
-89.7216796875
-86.0595703125
-82.3974609375
-87.890625
-93.3837890625
-94.29931640625
-101.62353515625
-116.27197265625
-128.173828125
-130.0048828125
-109.86328125
-86.97509765625
-51.26953125
2.74658203125
86.0595703125
193.17626953125
303.03955078125
425.72021484375
548.40087890625
644.53125
746.15478515625
857.84912109375
988.76953125
1105.04150390625
1148.0712890625
1123.35205078125
990.6005859375
715.02685546875
419.3115234375
174.86572265625
-21.97265625
-68.66455078125
-72.32666015625
-43.9453125
-43.9453125
-32.04345703125
-5.4931640625
9.1552734375
12.8173828125
8.23974609375
1.8310546875
-10.07080078125
-16.4794921875
-28.38134765625
-29.296875
-30.21240234375
-34.7900390625
-35.70556640625
-39.36767578125
-45.7763671875
-46.69189453125
-41.19873046875
-39.36767578125
-41.19873046875
-41.19873046875
-42.1142578125
-35.70556640625
-41.19873046875
-45.7763671875
-43.02978515625
-45.7763671875
-48.52294921875
-47.607421875
-43.9453125
-43.02978515625
-45.7763671875
-46.69189453125
-43.02978515625
-38.4521484375
-35.70556640625
-40.283203125
-44.86083984375
-45.7763671875
-43.02978515625
-38.4521484375
-49.4384765625
-42.1142578125
-34.7900390625
-36.62109375
-43.02978515625
-39.36767578125
-39.36767578125
-39.36767578125
-34.7900390625
-33.87451171875
-29.296875
-28.38134765625
-32.958984375
-31.1279296875
-32.958984375
-30.21240234375
-29.296875
-26.55029296875
-25.634765625
-25.634765625
-27.4658203125
-22.88818359375
-17.39501953125
-17.39501953125
-19.22607421875
-14.6484375
-15.56396484375
-10.986328125
-10.986328125
-12.8173828125
-9.1552734375
-2.74658203125
-6.40869140625
-1.8310546875
-2.74658203125
-1.8310546875
3.662109375
2.74658203125
1.8310546875
6.40869140625
9.1552734375
10.07080078125
15.56396484375
15.56396484375
13.73291015625
19.22607421875
23.8037109375
27.4658203125
22.88818359375
31.1279296875
38.4521484375
41.19873046875
41.19873046875
47.607421875
47.607421875
51.26953125
55.84716796875
62.255859375
66.83349609375
66.83349609375
68.66455078125
75.98876953125
79.65087890625
83.31298828125
83.31298828125
90.63720703125
92.46826171875
92.46826171875
96.13037109375
102.5390625
103.45458984375
105.28564453125
108.0322265625
108.94775390625
114.44091796875
118.10302734375
114.44091796875
118.10302734375
119.0185546875
115.3564453125
116.27197265625
117.1875
111.6943359375
113.525390625
119.93408203125
112.60986328125
100.7080078125
88.80615234375
84.228515625
74.15771484375
69.580078125
64.0869140625
54.01611328125
50.35400390625
38.4521484375
37.53662109375
32.04345703125
21.97265625
12.8173828125
4.57763671875
-2.74658203125
-9.1552734375
-10.07080078125
-16.4794921875
-20.1416015625
-22.88818359375
-26.55029296875
-29.296875
-32.04345703125
-39.36767578125
-39.36767578125
-38.4521484375
-45.7763671875
-44.86083984375
-47.607421875
-55.84716796875
-54.931640625
-57.67822265625
-57.67822265625
-57.67822265625
-53.1005859375
-59.50927734375
-61.34033203125
-55.84716796875
-57.67822265625
-56.7626953125
-56.7626953125
-55.84716796875
-60.4248046875
-60.4248046875
-63.17138671875
-57.67822265625
-59.50927734375
-61.34033203125
-61.34033203125
-65.00244140625
-63.17138671875
-59.50927734375
-61.34033203125
-66.83349609375
-65.00244140625
-56.7626953125
-54.931640625
-57.67822265625
-54.01611328125
-56.7626953125
-60.4248046875
-60.4248046875
-62.255859375
-58.59375
-56.7626953125
-57.67822265625
-54.01611328125
-58.59375
-60.4248046875
-57.67822265625
-55.84716796875
-56.7626953125
-56.7626953125
-53.1005859375
-50.35400390625
-54.931640625
-54.931640625
-54.931640625
-54.01611328125
-54.931640625
-53.1005859375
-54.01611328125
-55.84716796875
-51.26953125
-50.35400390625
-54.01611328125
-52.18505859375
-50.35400390625
-54.931640625
-56.7626953125
-54.931640625
-50.35400390625
-52.18505859375
-51.26953125
-53.1005859375
-57.67822265625
-53.1005859375
-48.52294921875
-54.931640625
-63.17138671875
-55.84716796875
-53.1005859375
-57.67822265625
-58.59375
-57.67822265625
-59.50927734375
-60.4248046875
-57.67822265625
-61.34033203125
-58.59375
-61.34033203125
-56.7626953125
-57.67822265625
-63.17138671875
-69.580078125
-70.49560546875
-65.00244140625
-67.7490234375
-69.580078125
-69.580078125
-65.91796875
-64.0869140625
-61.34033203125
-63.17138671875
-67.7490234375
-69.580078125
-73.2421875
-75.0732421875
-70.49560546875
-71.4111328125
-76.904296875
-77.81982421875
-76.904296875
-75.0732421875
-78.7353515625
-78.7353515625
-78.7353515625
-74.15771484375
-75.98876953125
-82.3974609375
-84.228515625
-84.228515625
-84.228515625
-83.31298828125
-83.31298828125
-76.904296875
-75.0732421875
-78.7353515625
-81.48193359375
-81.48193359375
-81.48193359375
-83.31298828125
-84.228515625
-83.31298828125
-86.0595703125
-82.3974609375
-84.228515625
-86.97509765625
-88.80615234375
-91.552734375
-90.63720703125
-91.552734375
-89.7216796875
-94.29931640625
-94.29931640625
-91.552734375
-93.3837890625
-88.80615234375
-88.80615234375
-89.7216796875
-90.63720703125
-91.552734375
-92.46826171875
-92.46826171875
-93.3837890625
-97.96142578125
-92.46826171875
-89.7216796875
-92.46826171875
-93.3837890625
-98.876953125
-99.79248046875
-98.876953125
-96.13037109375
-91.552734375
-91.552734375
-88.80615234375
-95.21484375
-95.21484375
-95.21484375
-97.96142578125
-95.21484375
-94.29931640625
-95.21484375
-92.46826171875
-90.63720703125
-92.46826171875
-92.46826171875
-93.3837890625
-91.552734375
-93.3837890625
-98.876953125
-93.3837890625
-92.46826171875
-94.29931640625
-89.7216796875
-90.63720703125
-94.29931640625
-91.552734375
-86.97509765625
-82.3974609375
-73.2421875
-63.17138671875
-56.7626953125
-60.4248046875
-65.00244140625
-69.580078125
-60.4248046875
-47.607421875
-42.1142578125
-41.19873046875
-26.55029296875
-21.05712890625
-23.8037109375
-22.88818359375
-24.71923828125
-25.634765625
-26.55029296875
-40.283203125
-42.1142578125
-40.283203125
-37.53662109375
-36.62109375
-43.02978515625
-53.1005859375
-53.1005859375
-63.17138671875
-70.49560546875
-68.66455078125
-75.98876953125
-83.31298828125
-90.63720703125
-95.21484375
-101.62353515625
-108.0322265625
-109.86328125
-111.6943359375
-114.44091796875
-113.525390625
-114.44091796875
-108.94775390625
-111.6943359375
-109.86328125
-113.525390625
-105.28564453125
-108.94775390625
-106.201171875
-114.44091796875
-115.3564453125
-111.6943359375
-111.6943359375
-112.60986328125
-113.525390625
-117.1875
-115.3564453125
-119.93408203125
-116.27197265625
-116.27197265625
-115.3564453125
-116.27197265625
-109.86328125
-109.86328125
-115.3564453125
-111.6943359375
-104.3701171875
-110.77880859375
-110.77880859375
-112.60986328125
-109.86328125
-114.44091796875
-119.93408203125
-130.92041015625
-138.24462890625
-147.39990234375
-149.23095703125
-123.59619140625
-99.79248046875
-60.4248046875
4.57763671875
107.11669921875
227.05078125
346.98486328125
484.31396484375
609.7412109375
701.2939453125
791.93115234375
914.61181640625
1054.6875
1140.7470703125
1148.0712890625
1091.30859375
900.87890625
588.68408203125
295.71533203125
55.84716796875
-97.96142578125
-113.525390625
-83.31298828125
-59.50927734375
-73.2421875
-58.59375
-27.4658203125
-15.56396484375
-10.986328125
-20.1416015625
-25.634765625
-30.21240234375
-43.02978515625
-54.01611328125
-60.4248046875
-62.255859375
-64.0869140625
-65.91796875
-68.66455078125
-72.32666015625
-78.7353515625
-74.15771484375
-72.32666015625
-73.2421875
-73.2421875
-69.580078125
-76.904296875
-68.66455078125
-64.0869140625
-68.66455078125
-74.15771484375
-73.2421875
-67.7490234375
-69.580078125
-72.32666015625
-73.2421875
-70.49560546875
-73.2421875
-68.66455078125
-64.0869140625
-66.83349609375
-70.49560546875
-71.4111328125
-66.83349609375
-69.580078125
-67.7490234375
-61.34033203125
-70.49560546875
-66.83349609375
-58.59375
-60.4248046875
-58.59375
-53.1005859375
