ECG
97.96142578125
98.876953125
104.3701171875
112.60986328125
121.76513671875
130.0048828125
130.92041015625
130.92041015625
131.8359375
140.07568359375
145.56884765625
149.23095703125
156.55517578125
162.04833984375
167.54150390625
171.20361328125
175.78125
174.86572265625
172.119140625
171.20361328125
173.9501953125
170.2880859375
169.37255859375
173.9501953125
172.119140625
168.45703125
165.71044921875
162.04833984375
155.6396484375
150.146484375
145.56884765625
136.41357421875
132.75146484375
125.42724609375
110.77880859375
94.29931640625
86.0595703125
93.3837890625
89.7216796875
78.7353515625
76.904296875
66.83349609375
55.84716796875
46.69189453125
35.70556640625
21.97265625
24.71923828125
23.8037109375
15.56396484375
3.662109375
-1.8310546875
-2.74658203125
-7.32421875
-17.39501953125
-17.39501953125
-14.6484375
-13.73291015625
-22.88818359375
-25.634765625
-21.05712890625
-20.1416015625
-21.97265625
-23.8037109375
-30.21240234375
-32.04345703125
-27.4658203125
-30.21240234375
-31.1279296875
-26.55029296875
-30.21240234375
-40.283203125
-37.53662109375
-39.36767578125
-39.36767578125
-36.62109375
-35.70556640625
-37.53662109375
-32.958984375
-26.55029296875
-28.38134765625
-29.296875
-23.8037109375
-24.71923828125
-18.310546875
-17.39501953125
-21.05712890625
-23.8037109375
-28.38134765625
-26.55029296875
-34.7900390625
-32.958984375
-25.634765625
-18.310546875
-19.22607421875
-14.6484375
-19.22607421875
-13.73291015625
-16.4794921875
-20.1416015625
-21.05712890625
-19.22607421875
-18.310546875
-15.56396484375
-19.22607421875
-21.97265625
-16.4794921875
-12.8173828125
-15.56396484375
-16.4794921875
-19.22607421875
-16.4794921875
-13.73291015625
-21.05712890625
-22.88818359375
-28.38134765625
-22.88818359375
-22.88818359375
-29.296875
-26.55029296875
-20.1416015625
-13.73291015625
-11.90185546875
-13.73291015625
-21.05712890625
-18.310546875
-10.07080078125
-14.6484375
-20.1416015625
-24.71923828125
-22.88818359375
-23.8037109375
-17.39501953125
-20.1416015625
-24.71923828125
-22.88818359375
-27.4658203125
-32.958984375
-29.296875
-30.21240234375
-32.958984375
-30.21240234375
-18.310546875
-17.39501953125
-22.88818359375
-23.8037109375
-22.88818359375
-25.634765625
-29.296875
-24.71923828125
-23.8037109375
-31.1279296875
-34.7900390625
-38.4521484375
-37.53662109375
-39.36767578125
-39.36767578125
-38.4521484375
-44.86083984375
-48.52294921875
-53.1005859375
-55.84716796875
-58.59375
-54.01611328125
-46.69189453125
-43.9453125
-41.19873046875
-43.9453125
-41.19873046875
-42.1142578125
-42.1142578125
-43.9453125
-43.02978515625
-43.9453125
-43.02978515625
-53.1005859375
-60.4248046875
-65.91796875
-58.59375
-59.50927734375
-64.0869140625
-60.4248046875
-63.17138671875
-57.67822265625
-53.1005859375
-50.35400390625
-45.7763671875
-43.02978515625
-45.7763671875
-43.9453125
-44.86083984375
-46.69189453125
-47.607421875
-47.607421875
-46.69189453125
-51.26953125
-52.18505859375
-56.7626953125
-51.26953125
-55.84716796875
-68.66455078125
-65.00244140625
-64.0869140625
-57.67822265625
-47.607421875
-50.35400390625
-50.35400390625
-46.69189453125
-47.607421875
-49.4384765625
-46.69189453125
-49.4384765625
-62.255859375
-65.91796875
-60.4248046875
-61.34033203125
-71.4111328125
-68.66455078125
-68.66455078125
-65.00244140625
-63.17138671875
-64.0869140625
-58.59375
-59.50927734375
-56.7626953125
-59.50927734375
-54.931640625
-58.59375
-60.4248046875
-59.50927734375
-55.84716796875
-56.7626953125
-58.59375
-60.4248046875
-52.18505859375
-49.4384765625
-52.18505859375
-62.255859375
-65.91796875
-60.4248046875
-58.59375
-57.67822265625
-57.67822265625
-55.84716796875
-58.59375
-63.17138671875
-55.84716796875
-54.931640625
-52.18505859375
-51.26953125
-52.18505859375
-64.0869140625
-64.0869140625
-62.255859375
-60.4248046875
-56.7626953125
-58.59375
-55.84716796875
-50.35400390625
-56.7626953125
-54.01611328125
-54.931640625
-54.931640625
-48.52294921875
-44.86083984375
-45.7763671875
-55.84716796875
-56.7626953125
-57.67822265625
-47.607421875
-43.9453125
-54.931640625
-58.59375
-54.01611328125
-52.18505859375
-60.4248046875
-65.91796875
-63.17138671875
-61.34033203125
-57.67822265625
-55.84716796875
-47.607421875
-42.1142578125
-32.958984375
-23.8037109375
-19.22607421875
-20.1416015625
-24.71923828125
-23.8037109375
-8.23974609375
-0.91552734375
2.74658203125
7.32421875
17.39501953125
23.8037109375
21.05712890625
13.73291015625
1.8310546875
-0.91552734375
-1.8310546875
2.74658203125
3.662109375
0
-7.32421875
0.91552734375
-9.1552734375
-23.8037109375
-32.04345703125
-38.4521484375
-35.70556640625
-35.70556640625
-33.87451171875
-42.1142578125
-59.50927734375
-74.15771484375
-72.32666015625
-72.32666015625
-75.98876953125
-75.0732421875
-77.81982421875
-75.98876953125
-68.66455078125
-65.91796875
-66.83349609375
-64.0869140625
-70.49560546875
-76.904296875
-76.904296875
-76.904296875
-76.904296875
-78.7353515625
-75.0732421875
-72.32666015625
-78.7353515625
-73.2421875
-70.49560546875
-71.4111328125
-76.904296875
-76.904296875
-74.15771484375
-76.904296875
-75.98876953125
-75.0732421875
-72.32666015625
-73.2421875
-75.98876953125
-77.81982421875
-78.7353515625
-76.904296875
-83.31298828125
-96.13037109375
-114.44091796875
-120.849609375
-115.3564453125
-101.62353515625
-72.32666015625
-33.87451171875
26.55029296875
122.6806640625
228.8818359375
339.66064453125
460.51025390625
585.02197265625
679.3212890625
778.1982421875
896.30126953125
1029.052734375
1118.7744140625
1133.4228515625
1100.4638671875
953.9794921875
659.1796875
363.46435546875
122.6806640625
-50.35400390625
-59.50927734375
-43.9453125
-39.36767578125
-32.04345703125
0
35.70556640625
51.26953125
40.283203125
28.38134765625
11.90185546875
3.662109375
1.8310546875
-4.57763671875
-10.986328125
-12.8173828125
-13.73291015625
-18.310546875
-21.05712890625
-21.05712890625
-19.22607421875
-20.1416015625
-26.55029296875
-29.296875
-26.55029296875
-24.71923828125
-26.55029296875
-28.38134765625
-32.958984375
-30.21240234375
-32.958984375
-33.87451171875
-34.7900390625
-30.21240234375
-25.634765625
-32.04345703125
-34.7900390625
-32.958984375
-32.04345703125
-31.1279296875
-25.634765625
-17.39501953125
-20.1416015625
-23.8037109375
-21.97265625
-24.71923828125
-22.88818359375
-18.310546875
-16.4794921875
-11.90185546875
-6.40869140625
-7.32421875
-7.32421875
-6.40869140625
-0.91552734375
1.8310546875
1.8310546875
0
-0.91552734375
0.91552734375
1.8310546875
0
-2.74658203125
0
1.8310546875
9.1552734375
8.23974609375
5.4931640625
9.1552734375
4.57763671875
9.1552734375
10.986328125
13.73291015625
9.1552734375
9.1552734375
12.8173828125
21.05712890625
22.88818359375
26.55029296875
39.36767578125
38.4521484375
34.7900390625
38.4521484375
37.53662109375
35.70556640625
38.4521484375
43.9453125
44.86083984375
49.4384765625
54.931640625
54.931640625
59.50927734375
54.931640625
58.59375
64.0869140625
69.580078125
74.15771484375
77.81982421875
74.15771484375
81.48193359375
90.63720703125
92.46826171875
91.552734375
89.7216796875
99.79248046875
106.201171875
106.201171875
113.525390625
113.525390625
121.76513671875
125.42724609375
129.08935546875
123.59619140625
129.08935546875
135.498046875
141.90673828125
151.9775390625
150.146484375
153.80859375
156.55517578125
158.38623046875
151.9775390625
154.72412109375
151.9775390625
156.55517578125
156.55517578125
157.470703125
157.470703125
150.146484375
140.07568359375
135.498046875
134.58251953125
125.42724609375
115.3564453125
108.94775390625
97.0458984375
91.552734375
90.63720703125
87.890625
68.66455078125
42.1142578125
32.04345703125
27.4658203125
20.1416015625
20.1416015625
21.05712890625
16.4794921875
9.1552734375
0.91552734375
-4.57763671875
-4.57763671875
0.91552734375
-9.1552734375
-11.90185546875
-17.39501953125
-17.39501953125
-21.97265625
-32.958984375
-36.62109375
-34.7900390625
-32.04345703125
-33.87451171875
-37.53662109375
-42.1142578125
-38.4521484375
-30.21240234375
-43.02978515625
-43.02978515625
-43.9453125
-42.1142578125
-41.19873046875
-39.36767578125
-43.02978515625
-43.9453125
-41.19873046875
-44.86083984375
-46.69189453125
-41.19873046875
-45.7763671875
-47.607421875
-51.26953125
-48.52294921875
-48.52294921875
-50.35400390625
-45.7763671875
-52.18505859375
-48.52294921875
-50.35400390625
-53.1005859375
-46.69189453125
-45.7763671875
-40.283203125
-36.62109375
-40.283203125
-40.283203125
-47.607421875
-46.69189453125
-44.86083984375
-42.1142578125
-42.1142578125
-38.4521484375
-39.36767578125
-31.1279296875
-34.7900390625
-38.4521484375
-39.36767578125
-41.19873046875
-40.283203125
-34.7900390625
-36.62109375
-40.283203125
-29.296875
-29.296875
-31.1279296875
-38.4521484375
-39.36767578125
-33.87451171875
-37.53662109375
-34.7900390625
-31.1279296875
-33.87451171875
-33.87451171875
-26.55029296875
-28.38134765625
-30.21240234375
-31.1279296875
-34.7900390625
-49.4384765625
-53.1005859375
-40.283203125
-43.02978515625
-45.7763671875
-42.1142578125
-39.36767578125
-39.36767578125
-42.1142578125
-46.69189453125
-39.36767578125
-43.02978515625
-49.4384765625
-46.69189453125
-49.4384765625
-46.69189453125
-42.1142578125
-40.283203125
-42.1142578125
-49.4384765625
-51.26953125
-47.607421875
-47.607421875
-45.7763671875
-47.607421875
-53.1005859375
-54.931640625
-52.18505859375
-56.7626953125
-48.52294921875
-58.59375
-60.4248046875
-60.4248046875
-61.34033203125
-56.7626953125
-63.17138671875
-64.0869140625
-62.255859375
-56.7626953125
-59.50927734375
-53.1005859375
-62.255859375
-60.4248046875
-55.84716796875
-64.0869140625
-68.66455078125
-67.7490234375
-72.32666015625
-74.15771484375
-69.580078125
-77.81982421875
-70.49560546875
-70.49560546875
-69.580078125
-75.0732421875
-73.2421875
-67.7490234375
-71.4111328125
-76.904296875
-72.32666015625
-73.2421875
-66.83349609375
-60.4248046875
-60.4248046875
-63.17138671875
-65.91796875
-73.2421875
-74.15771484375
-73.2421875
-71.4111328125
-66.83349609375
-71.4111328125
-63.17138671875
-61.34033203125
-65.91796875
-74.15771484375
-78.7353515625
-75.98876953125
-74.15771484375
-73.2421875
-74.15771484375
-78.7353515625
-77.81982421875
-75.0732421875
-73.2421875
-73.2421875
-76.904296875
-79.65087890625
-78.7353515625
-83.31298828125
-76.904296875
-79.65087890625
-74.15771484375
-75.0732421875
-75.98876953125
-72.32666015625
-73.2421875
-73.2421875
-73.2421875
-82.3974609375
-89.7216796875
-83.31298828125
-83.31298828125
-84.228515625
-80.56640625
-79.65087890625
-79.65087890625
-75.0732421875
-74.15771484375
-77.81982421875
-79.65087890625
-78.7353515625
-75.0732421875
-77.81982421875
-84.228515625
-86.0595703125
-86.0595703125
-86.97509765625
-77.81982421875
-77.81982421875
-75.0732421875
-76.904296875
-83.31298828125
-80.56640625
-77.81982421875
-71.4111328125
-66.83349609375
-62.255859375
-49.4384765625
-44.86083984375
-48.52294921875
-44.86083984375
-33.87451171875
-25.634765625
-22.88818359375
-13.73291015625
-8.23974609375
-10.07080078125
0.91552734375
1.8310546875
1.8310546875
1.8310546875
-0.91552734375
-14.6484375
-6.40869140625
-7.32421875
-11.90185546875
-17.39501953125
-31.1279296875
-42.1142578125
-45.7763671875
-47.607421875
-65.00244140625
-60.4248046875
-65.00244140625
-70.49560546875
-71.4111328125
-79.65087890625
-80.56640625
-86.0595703125
-83.31298828125
-87.890625
-93.3837890625
-97.0458984375
-98.876953125
-95.21484375
-97.0458984375
-92.46826171875
-94.29931640625
-88.80615234375
-89.7216796875
-94.29931640625
-105.28564453125
-108.0322265625
-105.28564453125
-102.5390625
-93.3837890625
-95.21484375
-97.0458984375
-98.876953125
-92.46826171875
-93.3837890625
-92.46826171875
-93.3837890625
-83.31298828125
-92.46826171875
-91.552734375
-89.7216796875
-90.63720703125
-88.80615234375
-89.7216796875
-94.29931640625
-98.876953125
-100.7080078125
-113.525390625
-127.25830078125
-135.498046875
-130.0048828125
-107.11669921875
-83.31298828125
-38.4521484375
20.1416015625
128.173828125
260.009765625
379.0283203125
515.44189453125
640.869140625
733.33740234375
822.1435546875
949.40185546875
1073.91357421875
1139.83154296875
1146.240234375
1090.39306640625
904.541015625
577.69775390625
257.26318359375
15.56396484375
-104.3701171875
-97.96142578125
-68.66455078125
-50.35400390625
-52.18505859375
-41.19873046875
-16.4794921875
-0.91552734375
4.57763671875
7.32421875
-6.40869140625
-18.310546875
-28.38134765625
-33.87451171875
-39.36767578125
-43.02978515625
-43.9453125
-46.69189453125
-46.69189453125
-53.1005859375
-57.67822265625
-55.84716796875
-51.26953125
-50.35400390625
-45.7763671875
-45.7763671875
-46.69189453125
-48.52294921875
-45.7763671875
-42.1142578125
-37.53662109375
-40.283203125
-43.02978515625
-43.02978515625
-45.7763671875
-45.7763671875
-43.02978515625
-44.86083984375
-43.02978515625
-49.4384765625
-49.4384765625
-47.607421875
-43.02978515625
-51.26953125
-53.1005859375
-48.52294921875
-41.19873046875
-34.7900390625
-41.19873046875
-34.7900390625
-36.62109375
-32.04345703125
-34.7900390625
-35.70556640625
-35.70556640625
-28.38134765625
-25.634765625
-27.4658203125
-27.4658203125
-34.7900390625
-32.958984375
-26.55029296875
-26.55029296875
-34.7900390625
-32.958984375
-30.21240234375
-27.4658203125
-25.634765625
-27.4658203125
-23.8037109375
-16.4794921875
-9.1552734375
-10.07080078125
-5.4931640625
-7.32421875
-3.662109375
-4.57763671875
-5.4931640625
-3.662109375
-1.8310546875
1.8310546875
4.57763671875
3.662109375
5.4931640625
10.07080078125
17.39501953125
8.23974609375
11.90185546875
16.4794921875
14.6484375
12.8173828125
28.38134765625
24.71923828125
21.05712890625
33.87451171875
38.4521484375
39.36767578125
48.52294921875
53.1005859375
57.67822265625
51.26953125
63.17138671875
62.255859375
58.59375
70.49560546875
74.15771484375
78.7353515625
79.65087890625
77.81982421875
85.14404296875
85.14404296875
83.31298828125
94.29931640625
99.79248046875
98.876953125
98.876953125
113.525390625
112.60986328125
116.27197265625
122.6806640625
124.51171875
119.93408203125
119.0185546875
119.0185546875
114.44091796875
119.0185546875
114.44091796875
109.86328125
105.28564453125
97.96142578125
89.7216796875
83.31298828125
75.0732421875
70.49560546875
67.7490234375
59.50927734375
59.50927734375
50.35400390625
37.53662109375
27.4658203125
21.97265625
17.39501953125
9.1552734375
5.4931640625
-6.40869140625
-12.8173828125
-18.310546875
-25.634765625
-32.04345703125
-38.4521484375
-43.02978515625
-42.1142578125
-37.53662109375
-45.7763671875
-48.52294921875
-46.69189453125
-53.1005859375
-63.17138671875
-63.17138671875
-71.4111328125
-73.2421875
-69.580078125
-62.255859375
-65.00244140625
-73.2421875
-71.4111328125
-72.32666015625
-70.49560546875
-63.17138671875
-65.00244140625
-60.4248046875
-58.59375
-64.0869140625
-66.83349609375
-61.34033203125
-58.59375
-66.83349609375
-56.7626953125
-65.00244140625
-53.1005859375
-60.4248046875
-67.7490234375
-63.17138671875
-56.7626953125
-54.931640625
-56.7626953125
-62.255859375
-57.67822265625
-54.931640625
-55.84716796875
-54.931640625
-56.7626953125
-54.931640625
-57.67822265625
-57.67822265625
-56.7626953125
-55.84716796875
-53.1005859375
-51.26953125
-55.84716796875
-64.0869140625
-62.255859375
-64.0869140625
-63.17138671875
-58.59375
-54.01611328125
-52.18505859375
-52.18505859375
-52.18505859375
-54.01611328125
-59.50927734375
-58.59375
-61.34033203125
-60.4248046875
-60.4248046875
-59.50927734375
-57.67822265625
-49.4384765625
-55.84716796875
-65.00244140625
-66.83349609375
-68.66455078125
-65.00244140625
-58.59375
-59.50927734375
-56.7626953125
-56.7626953125
-57.67822265625
-52.18505859375
-54.931640625
-57.67822265625
-60.4248046875
-54.931640625
-55.84716796875
-59.50927734375
-58.59375
-65.00244140625
-60.4248046875
-62.255859375
-64.0869140625
-67.7490234375
-65.91796875
-60.4248046875
-61.34033203125
-61.34033203125
-60.4248046875
-60.4248046875
-61.34033203125
-68.66455078125
-78.7353515625
-72.32666015625
-67.7490234375
-73.2421875
-76.904296875
-77.81982421875
-77.81982421875
-64.0869140625
-67.7490234375
-68.66455078125
-71.4111328125
-74.15771484375
-74.15771484375
-74.15771484375
-81.48193359375
-86.0595703125
-84.228515625
-75.98876953125
-73.2421875
-67.7490234375
-70.49560546875
-72.32666015625
-74.15771484375
-81.48193359375
-83.31298828125
-79.65087890625
-73.2421875
-76.904296875
-75.98876953125
-77.81982421875
-83.31298828125
-81.48193359375
-78.7353515625
-80.56640625
-83.31298828125
-85.14404296875
-90.63720703125
-90.63720703125
-93.3837890625
-88.80615234375
-79.65087890625
-75.0732421875
-68.66455078125
-71.4111328125
-82.3974609375
-80.56640625
-79.65087890625
-79.65087890625
-84.228515625
-89.7216796875
-87.890625
-86.0595703125
-82.3974609375
-85.14404296875
-84.228515625
-84.228515625
-87.890625
-88.80615234375
-81.48193359375
-79.65087890625
-84.228515625
-84.228515625
-86.0595703125
-88.80615234375
-89.7216796875
-87.890625
-85.14404296875
-81.48193359375
-81.48193359375
-81.48193359375
-80.56640625
-83.31298828125
-77.81982421875
-79.65087890625
-78.7353515625
-80.56640625
-82.3974609375
-78.7353515625
-78.7353515625
-85.14404296875
-88.80615234375
-84.228515625
-82.3974609375
-73.2421875
-59.50927734375
-56.7626953125
-51.26953125
-54.931640625
-48.52294921875
-43.9453125
-41.19873046875
-32.958984375
-12.8173828125
-6.40869140625
-6.40869140625
-0.91552734375
-0.91552734375
-4.57763671875
-8.23974609375
-11.90185546875
-15.56396484375
-17.39501953125
-10.986328125
-18.310546875
-21.97265625
-24.71923828125
-32.04345703125
-43.02978515625
-56.7626953125
-65.00244140625
-65.91796875
-65.91796875
-71.4111328125
-75.0732421875
-78.7353515625
-88.80615234375
-97.96142578125
-94.29931640625
-94.29931640625
-96.13037109375
-95.21484375
-91.552734375
-93.3837890625
-98.876953125
-97.0458984375
-95.21484375
-101.62353515625
-95.21484375
-97.96142578125
-104.3701171875
-97.96142578125
-100.7080078125
-108.94775390625
-108.94775390625
-104.3701171875
-94.29931640625
-95.21484375
-98.876953125
-95.21484375
-95.21484375
-93.3837890625
-96.13037109375
-97.0458984375
-99.79248046875
-99.79248046875
-93.3837890625
-92.46826171875
-96.13037109375
-103.45458984375
-105.28564453125
-112.60986328125
-117.1875
-125.42724609375
-136.41357421875
-132.75146484375
-119.93408203125
-92.46826171875
-50.35400390625
10.07080078125
113.525390625
238.037109375
349.7314453125
482.48291015625
614.31884765625
714.111328125
807.4951171875
931.09130859375
1072.08251953125
1146.240234375
1151.7333984375
1104.1259765625
932.92236328125
622.55859375
298.4619140625
57.67822265625
-87.890625
-92.46826171875
-69.580078125
-45.7763671875
-46.69189453125
-36.62109375
-8.23974609375
10.986328125
17.39501953125
7.32421875
-6.40869140625
-18.310546875
-21.05712890625
-25.634765625
-27.4658203125
-34.7900390625
-43.9453125
-49.4384765625
-57.67822265625
-53.1005859375
-53.1005859375
-48.52294921875
-48.52294921875
-46.69189453125
-42.1142578125
-50.35400390625
-54.01611328125
-58.59375
-62.255859375
-62.255859375
-51.26953125
-50.35400390625
-45.7763671875
-44.86083984375
-46.69189453125
-43.02978515625
-43.9453125
-43.9453125
-48.52294921875
-54.931640625
-58.59375
-57.67822265625
-50.35400390625
-41.19873046875
-40.283203125
-41.19873046875
-48.52294921875
-38.4521484375
-32.04345703125
-35.70556640625
-41.19873046875
-37.53662109375
-41.19873046875
-42.1142578125
-43.9453125
-38.4521484375
-34.7900390625
-37.53662109375
-47.607421875
-39.36767578125
-35.70556640625
-34.7900390625
-23.8037109375
-23.8037109375
-26.55029296875
-24.71923828125
-22.88818359375
-23.8037109375
-23.8037109375
-19.22607421875
-17.39501953125
-14.6484375
-10.07080078125
-11.90185546875
-10.07080078125
-7.32421875
-6.40869140625
-7.32421875
-4.57763671875
-4.57763671875
0
2.74658203125
1.8310546875
6.40869140625
10.07080078125
10.07080078125
14.6484375
13.73291015625
21.05712890625
23.8037109375
22.88818359375
26.55029296875
32.958984375
38.4521484375
50.35400390625
55.84716796875
58.59375
60.4248046875
58.59375
63.17138671875
61.34033203125
67.7490234375
75.98876953125
80.56640625
81.48193359375
83.31298828125
84.228515625
86.97509765625
95.21484375
92.46826171875
87.890625
96.13037109375
106.201171875
100.7080078125
103.45458984375
106.201171875
113.525390625
120.849609375
119.93408203125
121.76513671875
120.849609375
120.849609375
123.59619140625
122.6806640625
121.76513671875
117.1875
119.0185546875
118.10302734375
111.6943359375
107.11669921875
97.96142578125
91.552734375
83.31298828125
80.56640625
74.15771484375
61.34033203125
55.84716796875
54.01611328125
39.36767578125
30.21240234375
19.22607421875
15.56396484375
12.8173828125
3.662109375
-4.57763671875
-12.8173828125
-20.1416015625
-24.71923828125
-23.8037109375
-27.4658203125
-37.53662109375
-36.62109375
-34.7900390625
-38.4521484375
-40.283203125
-43.9453125
-42.1142578125
-51.26953125
-67.7490234375
-75.0732421875
-72.32666015625
-64.0869140625
-66.83349609375
-65.91796875
-62.255859375
-64.0869140625
-62.255859375
-58.59375
-56.7626953125
-54.01611328125
-54.01611328125
-54.01611328125
-55.84716796875
-56.7626953125
-58.59375
-60.4248046875
-61.34033203125
-62.255859375
-57.67822265625
-56.7626953125
-56.7626953125
-59.50927734375
-51.26953125
-54.01611328125
-62.255859375
-56.7626953125
-54.01611328125
-51.26953125
-51.26953125
-56.7626953125
-57.67822265625
-58.59375
-57.67822265625
-54.01611328125
-50.35400390625
-51.26953125
-48.52294921875
-53.1005859375
-54.01611328125
-45.7763671875
-47.607421875
-52.18505859375
-46.69189453125
-50.35400390625
-57.67822265625
-60.4248046875
-60.4248046875
-57.67822265625
-52.18505859375
-54.01611328125
-53.1005859375
-46.69189453125
-42.1142578125
-45.7763671875
-55.84716796875
-59.50927734375
-55.84716796875
-52.18505859375
-50.35400390625
-49.4384765625
-45.7763671875
-43.9453125
-46.69189453125
-46.69189453125
-43.02978515625
-39.36767578125
-43.02978515625
-43.9453125
-40.283203125
-50.35400390625
-53.1005859375
-56.7626953125
-54.01611328125
-49.4384765625
-50.35400390625
-52.18505859375
-54.01611328125
-60.4248046875
-66.83349609375
-59.50927734375
-62.255859375
-60.4248046875
-59.50927734375
-63.17138671875
-65.91796875
-65.91796875
-65.91796875
-54.931640625
-61.34033203125
-62.255859375
-64.0869140625
-65.91796875
-62.255859375
-68.66455078125
-70.49560546875
-75.0732421875
-75.98876953125
-72.32666015625
-73.2421875
-65.00244140625
-61.34033203125
-63.17138671875
-69.580078125
-62.255859375
-52.18505859375
-66.83349609375
-75.0732421875
-74.15771484375
-77.81982421875
-76.904296875
-75.0732421875
-73.2421875
-72.32666015625
-73.2421875
-75.0732421875
-79.65087890625
-76.904296875
-70.49560546875
-67.7490234375
-74.15771484375
-75.0732421875
-71.4111328125
-79.65087890625
-81.48193359375
-76.904296875
-72.32666015625
-74.15771484375
-78.7353515625
-79.65087890625
-71.4111328125
-71.4111328125
-70.49560546875
-72.32666015625
-77.81982421875
-79.65087890625
-78.7353515625
-86.0595703125
-89.7216796875
-86.97509765625
-79.65087890625
-84.228515625
-86.97509765625
-75.0732421875
-75.98876953125
-81.48193359375
-81.48193359375
-81.48193359375
-82.3974609375
-84.228515625
-87.890625
-81.48193359375
-72.32666015625
-79.65087890625
-76.904296875
-82.3974609375
-87.890625
-85.14404296875
-83.31298828125
-84.228515625
-84.228515625
-86.97509765625
-88.80615234375
-85.14404296875
-86.0595703125
-84.228515625
-88.80615234375
-86.97509765625
-78.7353515625
-73.2421875
-70.49560546875
-73.2421875
-78.7353515625
-75.0732421875
-75.98876953125
-76.904296875
-78.7353515625
-75.98876953125
-86.97509765625
-91.552734375
-84.228515625
-77.81982421875
-76.904296875
-77.81982421875
-66.83349609375
-65.00244140625
-66.83349609375
-49.4384765625
-49.4384765625
-33.87451171875
-32.04345703125
-30.21240234375
-27.4658203125
-32.04345703125
-38.4521484375
-22.88818359375
-18.310546875
-10.07080078125
-0.91552734375
1.8310546875
-5.4931640625
-7.32421875
-0.91552734375
-6.40869140625
-13.73291015625
-20.1416015625
-17.39501953125
-10.986328125
-18.310546875
-21.97265625
-15.56396484375
-28.38134765625
-45.7763671875
-54.01611328125
-57.67822265625
-55.84716796875
-51.26953125
-53.1005859375
-65.91796875
-75.0732421875
-83.31298828125
-85.14404296875
-83.31298828125
-86.0595703125
-96.13037109375
-97.96142578125
-90.63720703125
-96.13037109375
-91.552734375
-86.97509765625
-89.7216796875
-97.0458984375
-97.0458984375
-96.13037109375
-93.3837890625
-91.552734375
-88.80615234375
-84.228515625
-90.63720703125
-92.46826171875
-90.63720703125
-99.79248046875
-99.79248046875
-99.79248046875
-93.3837890625
-88.80615234375
-87.890625
-88.80615234375
-86.97509765625
-90.63720703125
-87.890625
-90.63720703125
-93.3837890625
-98.876953125
-92.46826171875
-91.552734375
-103.45458984375
-119.0185546875
-117.1875
-121.76513671875
-114.44091796875
-86.0595703125
-54.01611328125
0
86.97509765625
196.83837890625
307.6171875
422.9736328125
543.8232421875
644.53125
738.83056640625
859.68017578125
999.755859375
1098.6328125
1122.4365234375
1105.04150390625
973.20556640625
693.9697265625
381.77490234375
149.23095703125
-38.4521484375
-77.81982421875
-60.4248046875
-43.9453125
-48.52294921875
-21.05712890625
11.90185546875
18.310546875
17.39501953125
13.73291015625
5.4931640625
-1.8310546875
-15.56396484375
-21.97265625
-35.70556640625
-31.1279296875
-32.958984375
-34.7900390625
-40.283203125
-50.35400390625
-32.958984375
-34.7900390625
-41.19873046875
-42.1142578125
-43.02978515625
-39.36767578125
-33.87451171875
-27.4658203125
-27.4658203125
-34.7900390625
-43.02978515625
-47.607421875
-42.1142578125
-46.69189453125
-49.4384765625
-54.01611328125
-43.9453125
-48.52294921875
-43.02978515625
-33.87451171875
-33.87451171875
-30.21240234375
-32.958984375
-29.296875
-25.634765625
-21.97265625
-30.21240234375
-34.7900390625
-32.958984375
-26.55029296875
-23.8037109375
-26.55029296875
-31.1279296875
-30.21240234375
-30.21240234375
-26.55029296875
-19.22607421875
-21.97265625
-22.88818359375
-20.1416015625
-25.634765625
-24.71923828125
-30.21240234375
-18.310546875
-6.40869140625
-17.39501953125
-11.90185546875
-2.74658203125
-4.57763671875
-6.40869140625
-9.1552734375
-17.39501953125
-3.662109375
-0.91552734375
0.91552734375
-0.91552734375
10.07080078125
2.74658203125
-1.8310546875
7.32421875
4.57763671875
15.56396484375
16.4794921875
15.56396484375
14.6484375
9.1552734375
12.8173828125
32.958984375
46.69189453125
37.53662109375
42.1142578125
38.4521484375
38.4521484375
50.35400390625
56.7626953125
50.35400390625
47.607421875
54.01611328125
62.255859375
74.15771484375
72.32666015625
80.56640625
87.890625
88.80615234375
97.96142578125
95.21484375
95.21484375
96.13037109375
99.79248046875
104.3701171875
108.0322265625
119.0185546875
120.849609375
124.51171875
120.849609375
118.10302734375
132.75146484375
130.92041015625
124.51171875
129.08935546875
144.6533203125
147.39990234375
132.75146484375
131.8359375
132.75146484375
151.9775390625
134.58251953125
133.6669921875
133.6669921875
110.77880859375
98.876953125
95.21484375
88.80615234375
86.97509765625
78.7353515625
68.66455078125
58.59375
54.931640625
44.86083984375
34.7900390625
28.38134765625
19.22607421875
16.4794921875
10.986328125
7.32421875
1.8310546875
-8.23974609375
-23.8037109375
-27.4658203125
-42.1142578125
-41.19873046875
-52.18505859375
-48.52294921875
-42.1142578125
-58.59375
-65.00244140625
-65.00244140625
-70.49560546875
-63.17138671875
-86.0595703125
-82.3974609375
-67.7490234375
-54.931640625
-49.4384765625
-37.53662109375
-47.607421875
-53.1005859375
-70.49560546875
-61.34033203125
-64.0869140625
-64.0869140625
-70.49560546875
-59.50927734375
-57.67822265625
-71.4111328125
-80.56640625
-75.98876953125
-66.83349609375
-65.91796875
-52.18505859375
-58.59375
-54.01611328125
-66.83349609375
-67.7490234375
-62.255859375
-75.98876953125
-90.63720703125
-54.931640625
-54.01611328125
-65.00244140625
-67.7490234375
-68.66455078125
-65.00244140625
-59.50927734375
-45.7763671875
-36.62109375
-49.4384765625
-58.59375
-54.01611328125
-49.4384765625
-57.67822265625
-65.91796875
-65.91796875
-63.17138671875
-50.35400390625
-54.01611328125
-56.7626953125
-46.69189453125
-32.958984375
-56.7626953125
-52.18505859375
-41.19873046875
-45.7763671875
-43.02978515625
-44.86083984375
-52.18505859375
-55.84716796875
-36.62109375
-53.1005859375
-65.00244140625
-59.50927734375
-46.69189453125
-70.49560546875
-24.71923828125
-36.62109375
-57.67822265625
-43.9453125
-42.1142578125
-48.52294921875
-48.52294921875
-45.7763671875
-36.62109375
-41.19873046875
-46.69189453125
-57.67822265625
-54.931640625
-55.84716796875
-62.255859375
-54.01611328125
-52.18505859375
-48.52294921875
-54.931640625
-68.66455078125
-65.00244140625
-54.931640625
-51.26953125
-52.18505859375
-58.59375
-57.67822265625
-66.83349609375
-54.931640625
-31.1279296875
-56.7626953125
-75.98876953125
-71.4111328125
-44.86083984375
-42.1142578125
-54.01611328125
-60.4248046875
-55.84716796875
-65.00244140625
-55.84716796875
-51.26953125
-63.17138671875
-61.34033203125
-56.7626953125
-61.34033203125
-61.34033203125
-69.580078125
-63.17138671875
-34.7900390625
-60.4248046875
-72.32666015625
-61.34033203125
-48.52294921875
-59.50927734375
-65.00244140625
-69.580078125
-55.84716796875
-55.84716796875
-58.59375
-63.17138671875
-65.00244140625
-69.580078125
-73.2421875
-63.17138671875
-56.7626953125
-59.50927734375
-65.91796875
-69.580078125
-71.4111328125
-74.15771484375
-72.32666015625
-69.580078125
-65.91796875
-59.50927734375
-61.34033203125
-67.7490234375
-65.00244140625
-61.34033203125
-61.34033203125
-60.4248046875
-57.67822265625
-57.67822265625
-59.50927734375
-66.83349609375
-65.91796875
-79.65087890625
-74.15771484375
-65.91796875
-59.50927734375
-60.4248046875
-61.34033203125
-66.83349609375
-72.32666015625
-71.4111328125
-70.49560546875
-70.49560546875
-68.66455078125
-71.4111328125
-69.580078125
-68.66455078125
-69.580078125
-67.7490234375
-74.15771484375
-74.15771484375
-71.4111328125
-75.0732421875
-75.0732421875
-73.2421875
-74.15771484375
-79.65087890625
-78.7353515625
-80.56640625
-80.56640625
-75.0732421875
-73.2421875
-72.32666015625
-65.00244140625
-65.91796875
-63.17138671875
-51.26953125
-36.62109375
-32.958984375
-35.70556640625
-51.26953125
-50.35400390625
-40.283203125
-31.1279296875
-22.88818359375
-18.310546875
2.74658203125
5.4931640625
8.23974609375
5.4931640625
1.8310546875
-5.4931640625
-17.39501953125
-21.97265625
-20.1416015625
-21.05712890625
-33.87451171875
-27.4658203125
-18.310546875
-24.71923828125
-36.62109375
-48.52294921875
-54.931640625
-55.84716796875
-62.255859375
-72.32666015625
-84.228515625
-88.80615234375
-90.63720703125
-84.228515625
-92.46826171875
-94.29931640625
-87.890625
-86.97509765625
-83.31298828125
-86.0595703125
-90.63720703125
-97.96142578125
-100.7080078125
-98.876953125
-97.96142578125
-99.79248046875
-97.0458984375
-89.7216796875
-101.62353515625
-98.876953125
-96.13037109375
-90.63720703125
-97.96142578125
-99.79248046875
-105.28564453125
-100.7080078125
-97.96142578125
-97.0458984375
-90.63720703125
-93.3837890625
-105.28564453125
-108.94775390625
-108.94775390625
-107.11669921875
-111.6943359375
-105.28564453125
-100.7080078125
-97.0458984375
-97.96142578125
-105.28564453125
-128.173828125
-135.498046875
-137.3291015625
-126.3427734375
-95.21484375
-58.59375
-7.32421875
75.0732421875
195.00732421875
298.4619140625
418.39599609375
544.73876953125
640.869140625
736.99951171875
863.34228515625
1007.080078125
1111.4501953125
1137.0849609375
1108.70361328125
959.47265625
667.41943359375
358.88671875
120.849609375
-54.01611328125
-79.65087890625
-71.4111328125
-60.4248046875
-49.4384765625
-30.21240234375
-10.07080078125
11.90185546875
14.6484375
6.40869140625
-9.1552734375
-21.05712890625
-24.71923828125
-33.87451171875
-38.4521484375
-35.70556640625
-37.53662109375
-40.283203125
-38.4521484375
-43.02978515625
-40.283203125
-43.02978515625
-50.35400390625
-52.18505859375
-52.18505859375
-47.607421875
-52.18505859375
-53.1005859375
-56.7626953125
-55.84716796875
-56.7626953125
-53.1005859375
-44.86083984375
-42.1142578125
-50.35400390625
-56.7626953125
-43.02978515625
-41.19873046875
-50.35400390625
-43.9453125
-46.69189453125
-49.4384765625
-52.18505859375
-54.01611328125
-54.931640625
-47.607421875
-48.52294921875
-48.52294921875
-44.86083984375
-41.19873046875
-33.87451171875
-32.04345703125
-34.7900390625
-34.7900390625
-26.55029296875
-24.71923828125
-31.1279296875
-37.53662109375
-43.9453125
-46.69189453125
-35.70556640625
-28.38134765625
-20.1416015625
-13.73291015625
-12.8173828125
-9.1552734375
-11.90185546875
-14.6484375
-10.07080078125
-8.23974609375
-10.986328125
-11.90185546875
3.662109375
-5.4931640625
-3.662109375
-9.1552734375
-10.986328125
-7.32421875
-4.57763671875
-5.4931640625
-0.91552734375
-11.90185546875
-3.662109375
7.32421875
5.4931640625
7.32421875
18.310546875
21.05712890625
27.4658203125
32.04345703125
36.62109375
34.7900390625
37.53662109375
37.53662109375
42.1142578125
39.36767578125
44.86083984375
50.35400390625
56.7626953125
56.7626953125
65.91796875
70.49560546875
71.4111328125
64.0869140625
65.91796875
71.4111328125
78.7353515625
80.56640625
97.96142578125
107.11669921875
112.60986328125
112.60986328125
116.27197265625
119.0185546875
125.42724609375
123.59619140625
125.42724609375
125.42724609375
122.6806640625
130.92041015625
131.8359375
130.92041015625
137.3291015625
134.58251953125
135.498046875
131.8359375
127.25830078125
122.6806640625
123.59619140625
119.93408203125
109.86328125
97.0458984375
85.14404296875
84.228515625
74.15771484375
61.34033203125
56.7626953125
53.1005859375
43.9453125
31.1279296875
26.55029296875
16.4794921875
0.91552734375
-10.986328125
-15.56396484375
-12.8173828125
-21.97265625
-25.634765625
-25.634765625
-27.4658203125
-30.21240234375
-32.958984375
-41.19873046875
-38.4521484375
-38.4521484375
-46.69189453125
-49.4384765625
-44.86083984375
-49.4384765625
-54.01611328125
-60.4248046875
-62.255859375
-64.0869140625
-58.59375
-59.50927734375
-64.0869140625
-64.0869140625
-65.00244140625
-67.7490234375
-69.580078125
-62.255859375
-60.4248046875
-65.91796875
-67.7490234375
-64.0869140625
-60.4248046875
-63.17138671875
-55.84716796875
-57.67822265625
-68.66455078125
-72.32666015625
-63.17138671875
-68.66455078125
-67.7490234375
-68.66455078125
-71.4111328125
-65.91796875
-64.0869140625
-60.4248046875
-61.34033203125
-64.0869140625
-63.17138671875
-55.84716796875
-54.931640625
-52.18505859375
-56.7626953125
-56.7626953125
-47.607421875
-50.35400390625
-62.255859375
-66.83349609375
-65.00244140625
-62.255859375
-56.7626953125
-52.18505859375
-50.35400390625
-52.18505859375
-53.1005859375
-60.4248046875
-58.59375
-55.84716796875
-59.50927734375
-63.17138671875
-66.83349609375
-59.50927734375
-51.26953125
-53.1005859375
-51.26953125
-57.67822265625
-65.00244140625
-69.580078125
-61.34033203125
-52.18505859375
-43.02978515625
-41.19873046875
-48.52294921875
-42.1142578125
-43.9453125
-43.9453125
-52.18505859375
-61.34033203125
-51.26953125
-65.91796875
-65.00244140625
-57.67822265625
-67.7490234375
-68.66455078125
-63.17138671875
-64.0869140625
-69.580078125
-66.83349609375
-56.7626953125
-68.66455078125
-66.83349609375
-58.59375
-62.255859375
-59.50927734375
-64.0869140625
-70.49560546875
-70.49560546875
-65.00244140625
-68.66455078125
-71.4111328125
-74.15771484375
-71.4111328125
-70.49560546875
-73.2421875
-71.4111328125
-72.32666015625
-74.15771484375
-77.81982421875
-78.7353515625
-77.81982421875
-81.48193359375
-84.228515625
-85.14404296875
-80.56640625
-73.2421875
-77.81982421875
-81.48193359375
-88.80615234375
-94.29931640625
-80.56640625
-82.3974609375
-75.98876953125
-75.98876953125
-81.48193359375
-93.3837890625
-80.56640625
-86.97509765625
-85.14404296875
-79.65087890625
-94.29931640625
-82.3974609375
-82.3974609375
-87.890625
-95.21484375
-76.904296875
-87.890625
-99.79248046875
-119.0185546875
-100.7080078125
-93.3837890625
-93.3837890625
-86.97509765625
-79.65087890625
-83.31298828125
-94.29931640625
-86.97509765625
-84.228515625
-89.7216796875
-82.3974609375
-86.0595703125
-73.2421875
-90.63720703125
-89.7216796875
-82.3974609375
-90.63720703125
-85.14404296875
-75.98876953125
-88.80615234375
-103.45458984375
-84.228515625
-83.31298828125
-87.890625
-88.80615234375
-92.46826171875
-95.21484375
-99.79248046875
-90.63720703125
-87.890625
-82.3974609375
-84.228515625
-73.2421875
-72.32666015625
-87.890625
-77.81982421875
-86.0595703125
-80.56640625
-72.32666015625
-76.904296875
-80.56640625
-71.4111328125
-70.49560546875
-82.3974609375
-75.0732421875
-80.56640625
-70.49560546875
-64.0869140625
-51.26953125
-46.69189453125
-41.19873046875
-40.283203125
-40.283203125
-44.86083984375
-58.59375
-50.35400390625
-36.62109375
-20.1416015625
-4.57763671875
5.4931640625
8.23974609375
7.32421875
7.32421875
0.91552734375
-7.32421875
-13.73291015625
-4.57763671875
-0.91552734375
-16.4794921875
-18.310546875
-21.97265625
-37.53662109375
-43.02978515625
-45.7763671875
-54.01611328125
-54.931640625
-61.34033203125
-64.0869140625
-66.83349609375
-68.66455078125
-82.3974609375
-86.0595703125
-88.80615234375
-89.7216796875
-86.97509765625
-92.46826171875
-91.552734375
-92.46826171875
-90.63720703125
-90.63720703125
-96.13037109375
-112.60986328125
-112.60986328125
-101.62353515625
-96.13037109375
-97.0458984375
-94.29931640625
-98.876953125
-90.63720703125
-88.80615234375
-90.63720703125
-86.0595703125
-86.0595703125
-93.3837890625
-83.31298828125
-81.48193359375
-82.3974609375
-79.65087890625
-78.7353515625
-84.228515625
-86.97509765625
-87.890625
-86.97509765625
-82.3974609375
-82.3974609375
-89.7216796875
-100.7080078125
-103.45458984375
-116.27197265625
-127.25830078125
-135.498046875
-133.6669921875
-114.44091796875
-87.890625
-49.4384765625
12.8173828125
108.0322265625
224.30419921875
332.33642578125
458.67919921875
587.7685546875
672.91259765625
764.46533203125
885.31494140625
1023.5595703125
1105.95703125
1125.18310546875
1082.1533203125
906.3720703125
598.7548828125
308.53271484375
76.904296875
-71.4111328125
-71.4111328125
-58.59375
-48.52294921875
-48.52294921875
-22.88818359375
2.74658203125
13.73291015625
20.1416015625
15.56396484375
-2.74658203125
-14.6484375
-21.97265625
-27.4658203125
-35.70556640625
-42.1142578125
-44.86083984375
-52.18505859375
-54.931640625
-57.67822265625
-55.84716796875
-52.18505859375
-47.607421875
-54.01611328125
-47.607421875
-46.69189453125
-46.69189453125
-50.35400390625
-48.52294921875
-42.1142578125
-41.19873046875
-39.36767578125
-49.4384765625
-42.1142578125
-40.283203125
-41.19873046875
-36.62109375
-43.9453125
-51.26953125
-51.26953125
-43.02978515625
-39.36767578125
-36.62109375
-40.283203125
-32.958984375
-33.87451171875
-45.7763671875
-36.62109375
-33.87451171875
-33.87451171875
-34.7900390625
-35.70556640625
-34.7900390625
-26.55029296875
-25.634765625
-32.04345703125
-32.04345703125
-25.634765625
-17.39501953125
-17.39501953125
-22.88818359375
-19.22607421875
-18.310546875
-14.6484375
-16.4794921875
-14.6484375
-11.90185546875
-10.986328125
-6.40869140625
-8.23974609375
-13.73291015625
-6.40869140625
-9.1552734375
-10.07080078125
7.32421875
0
-1.8310546875
5.4931640625
8.23974609375
11.90185546875
11.90185546875
10.986328125
13.73291015625
14.6484375
14.6484375
3.662109375
12.8173828125
11.90185546875
12.8173828125
21.05712890625
23.8037109375
36.62109375
38.4521484375
43.9453125
55.84716796875
63.17138671875
64.0869140625
54.01611328125
55.84716796875
46.69189453125
66.83349609375
95.21484375
69.580078125
66.83349609375
90.63720703125
70.49560546875
108.0322265625
103.45458984375
107.11669921875
101.62353515625
115.3564453125
128.173828125
105.28564453125
128.173828125
120.849609375
97.0458984375
108.0322265625
128.173828125
125.42724609375
115.3564453125
118.10302734375
120.849609375
119.93408203125
140.9912109375
132.75146484375
128.173828125
133.6669921875
129.08935546875
119.93408203125
117.1875
102.5390625
88.80615234375
90.63720703125
96.13037109375
97.0458984375
83.31298828125
57.67822265625
41.19873046875
33.87451171875
47.607421875
31.1279296875
21.05712890625
10.07080078125
7.32421875
14.6484375
14.6484375
-3.662109375
-12.8173828125
-15.56396484375
-19.22607421875
-2.74658203125
8.23974609375
-6.40869140625
-33.87451171875
-44.86083984375
-43.9453125
-44.86083984375
-52.18505859375
-43.02978515625
-36.62109375
-61.34033203125
-48.52294921875
-44.86083984375
-34.7900390625
-43.02978515625
-43.9453125
-41.19873046875
-42.1142578125
-44.86083984375
-46.69189453125
-35.70556640625
-36.62109375
-45.7763671875
-51.26953125
-59.50927734375
-52.18505859375
-32.04345703125
-43.02978515625
-36.62109375
-15.56396484375
-47.607421875
-62.255859375
-61.34033203125
-48.52294921875
-58.59375
-43.9453125
-32.04345703125
-48.52294921875
-36.62109375
-18.310546875
-21.05712890625
-40.283203125
-43.9453125
-54.931640625
-21.97265625
0.91552734375
-16.4794921875
-39.36767578125
-54.01611328125
-32.958984375
-48.52294921875
-61.34033203125
-11.90185546875
-21.97265625
-37.53662109375
-24.71923828125
-31.1279296875
-16.4794921875
-7.32421875
2.74658203125
-4.57763671875
-20.1416015625
-26.55029296875
-28.38134765625
-15.56396484375
8.23974609375
5.4931640625
-10.07080078125
-11.90185546875
-29.296875
-21.97265625
-26.55029296875
-14.6484375
2.74658203125
-12.8173828125
-17.39501953125
-33.87451171875
-43.9453125
-33.87451171875
-30.21240234375
-21.05712890625
-23.8037109375
-14.6484375
2.74658203125
-23.8037109375
-43.9453125
-50.35400390625
-47.607421875
-44.86083984375
-35.70556640625
-35.70556640625
-22.88818359375
-16.4794921875
-27.4658203125
-40.283203125
-43.9453125
-61.34033203125
-56.7626953125
-67.7490234375
-51.26953125
-49.4384765625
-46.69189453125
-62.255859375
-77.81982421875
-47.607421875
-43.9453125
-77.81982421875
-74.15771484375
-81.48193359375
-75.98876953125
-80.56640625
-95.21484375
-93.3837890625
-73.2421875
-75.0732421875
-87.890625
-97.96142578125
-77.81982421875
-65.91796875
-79.65087890625
-89.7216796875
-82.3974609375
-81.48193359375
-91.552734375
-97.96142578125
-89.7216796875
-81.48193359375
-101.62353515625
-96.13037109375
-91.552734375
-91.552734375
-77.81982421875
-75.98876953125
-72.32666015625
-93.3837890625
-89.7216796875
-96.13037109375
-108.94775390625
-105.28564453125
-132.75146484375
-136.41357421875
-128.173828125
-97.96142578125
-61.34033203125
-76.904296875
-99.79248046875
-95.21484375
-77.81982421875
-77.81982421875
-94.29931640625
-95.21484375
-101.62353515625
-107.11669921875
-130.0048828125
-121.76513671875
-103.45458984375
-88.80615234375
-72.32666015625
-71.4111328125
-46.69189453125
-47.607421875
-65.91796875
-69.580078125
-80.56640625
-84.228515625
-86.0595703125
-75.0732421875
-48.52294921875
-43.02978515625
-34.7900390625
-20.1416015625
-13.73291015625
-13.73291015625
-10.986328125
-32.04345703125
-37.53662109375
-34.7900390625
-38.4521484375
-32.958984375
-32.958984375
-48.52294921875
-50.35400390625
-50.35400390625
-57.67822265625
-67.7490234375
-80.56640625
-97.0458984375
-92.46826171875
-106.201171875
-103.45458984375
-105.28564453125
-118.10302734375
-114.44091796875
-105.28564453125
-105.28564453125
-116.27197265625
-118.10302734375
-108.94775390625
-110.77880859375
-107.11669921875
-102.5390625
-98.876953125
-94.29931640625
-86.97509765625
-88.80615234375
-113.525390625
-135.498046875
-134.58251953125
-128.173828125
-118.10302734375
-117.1875
-115.3564453125
-116.27197265625
-119.0185546875
-130.0048828125
-129.08935546875
-119.0185546875
-121.76513671875
-127.25830078125
-129.08935546875
-124.51171875
-126.3427734375
-128.173828125
-131.8359375
-126.3427734375
-128.173828125
-128.173828125
-120.849609375
-127.25830078125
-149.23095703125
-165.71044921875
-160.21728515625
-135.498046875
-115.3564453125
-86.97509765625
-26.55029296875
70.49560546875
187.68310546875
299.37744140625
427.55126953125
543.8232421875
635.3759765625
726.01318359375
857.84912109375
988.76953125
1065.673828125
1077.57568359375
1039.12353515625
877.99072265625
583.19091796875
284.72900390625
42.1142578125
-108.94775390625
-110.77880859375
-82.3974609375
-76.904296875
-76.904296875
-51.26953125
-22.88818359375
-4.57763671875
-2.74658203125
-9.1552734375
-15.56396484375
-21.05712890625
-26.55029296875
-33.87451171875
-38.4521484375
-52.18505859375
-56.7626953125
-52.18505859375
-61.34033203125
-65.00244140625
-65.00244140625
-63.17138671875
-55.84716796875
-54.01611328125
-54.931640625
-53.1005859375
-60.4248046875
-57.67822265625
-57.67822265625
-60.4248046875
-56.7626953125
-59.50927734375
-52.18505859375
-47.607421875
-48.52294921875
-61.34033203125
-51.26953125
-53.1005859375
-56.7626953125
-54.01611328125
-46.69189453125
-48.52294921875
-51.26953125
-49.4384765625
-47.607421875
-44.86083984375
-43.02978515625
-50.35400390625
-38.4521484375
-29.296875
-34.7900390625
-38.4521484375
-43.02978515625
-43.9453125
-36.62109375
-30.21240234375
-32.04345703125
-32.958984375
-31.1279296875
-21.05712890625
-26.55029296875
-32.04345703125
-39.36767578125
-33.87451171875
-38.4521484375
-36.62109375
-28.38134765625
-21.97265625
-34.7900390625
-33.87451171875
-30.21240234375
-21.05712890625
-12.8173828125
-16.4794921875
-19.22607421875
-12.8173828125
-12.8173828125
-14.6484375
-2.74658203125
7.32421875
8.23974609375
13.73291015625
16.4794921875
13.73291015625
10.07080078125
22.88818359375
25.634765625
22.88818359375
23.8037109375
19.22607421875
21.97265625
24.71923828125
21.97265625
26.55029296875
30.21240234375
44.86083984375
52.18505859375
58.59375
53.1005859375
56.7626953125
65.00244140625
55.84716796875
55.84716796875
59.50927734375
66.83349609375
77.81982421875
83.31298828125
89.7216796875
86.0595703125
89.7216796875
99.79248046875
103.45458984375
101.62353515625
108.0322265625
117.1875
118.10302734375
120.849609375
126.3427734375
129.08935546875
115.3564453125
116.27197265625
106.201171875
100.7080078125
108.0322265625
122.6806640625
107.11669921875
99.79248046875
107.11669921875
94.29931640625
88.80615234375
86.0595703125
75.0732421875
75.98876953125
68.66455078125
52.18505859375
54.931640625
46.69189453125
34.7900390625
32.04345703125
25.634765625
5.4931640625
8.23974609375
0
-15.56396484375
-21.05712890625
-24.71923828125
-31.1279296875
-29.296875
-31.1279296875
-32.04345703125
-40.283203125
-43.02978515625
-54.931640625
-54.01611328125
-50.35400390625
-47.607421875
-49.4384765625
-58.59375
-61.34033203125
-54.931640625
-57.67822265625
-63.17138671875
-68.66455078125
-72.32666015625
-81.48193359375
-75.0732421875
-69.580078125
-65.91796875
-53.1005859375
-59.50927734375
-57.67822265625
-54.01611328125
-61.34033203125
-63.17138671875
-54.931640625
-58.59375
-65.00244140625
-68.66455078125
-64.0869140625
-57.67822265625
-57.67822265625
-57.67822265625
-59.50927734375
-63.17138671875
-65.91796875
-66.83349609375
-58.59375
-54.931640625
-59.50927734375
-65.00244140625
-57.67822265625
-53.1005859375
-54.931640625
-54.01611328125
-51.26953125
-53.1005859375
-48.52294921875
-44.86083984375
-48.52294921875
-55.84716796875
-62.255859375
-58.59375
-52.18505859375
-49.4384765625
-47.607421875
-52.18505859375
-54.931640625
-51.26953125
-44.86083984375
-47.607421875
-54.931640625
-53.1005859375
-53.1005859375
-51.26953125
-48.52294921875
-48.52294921875
-39.36767578125
-37.53662109375
-37.53662109375
-39.36767578125
-41.19873046875
-42.1142578125
-39.36767578125
-37.53662109375
-40.283203125
-42.1142578125
-38.4521484375
-47.607421875
-56.7626953125
-54.931640625
-50.35400390625
-63.17138671875
-55.84716796875
-55.84716796875
-54.01611328125
-50.35400390625
-56.7626953125
-63.17138671875
-59.50927734375
-58.59375
-61.34033203125
-58.59375
-56.7626953125
-60.4248046875
-54.01611328125
-62.255859375
-63.17138671875
-73.2421875
-80.56640625
-75.0732421875
-69.580078125
-62.255859375
-63.17138671875
-66.83349609375
-62.255859375
-65.91796875
-65.91796875
-79.65087890625
-74.15771484375
-73.2421875
-65.91796875
-71.4111328125
-78.7353515625
-74.15771484375
-73.2421875
-69.580078125
-69.580078125
-67.7490234375
-64.0869140625
-69.580078125
-71.4111328125
-78.7353515625
-71.4111328125
-68.66455078125
-67.7490234375
-70.49560546875
-68.66455078125
-70.49560546875
-71.4111328125
-70.49560546875
-72.32666015625
-65.00244140625
-69.580078125
-69.580078125
-72.32666015625
-73.2421875
-68.66455078125
-71.4111328125
-74.15771484375
-65.00244140625
-60.4248046875
-65.91796875
-73.2421875
-67.7490234375
-63.17138671875
-58.59375
-45.7763671875
-30.21240234375
-31.1279296875
-32.04345703125
-33.87451171875
-37.53662109375
-19.22607421875
0.91552734375
-4.57763671875
-1.8310546875
17.39501953125
16.4794921875
17.39501953125
18.310546875
-1.8310546875
-10.07080078125
-15.56396484375
-13.73291015625
-1.8310546875
-8.23974609375
-12.8173828125
-16.4794921875
-24.71923828125
-34.7900390625
-45.7763671875
-51.26953125
-54.01611328125
-54.931640625
-56.7626953125
-64.0869140625
-80.56640625
-91.552734375
-89.7216796875
-88.80615234375
-101.62353515625
-100.7080078125
-98.876953125
-97.96142578125
-98.876953125
-92.46826171875
-97.0458984375
-104.3701171875
-104.3701171875
-104.3701171875
-104.3701171875
-99.79248046875
-100.7080078125
-93.3837890625
-101.62353515625
-96.13037109375
-96.13037109375
-94.29931640625
-95.21484375
-93.3837890625
-83.31298828125
-77.81982421875
-77.81982421875
-88.80615234375
-80.56640625
-81.48193359375
-86.0595703125
-88.80615234375
-96.13037109375
-93.3837890625
-90.63720703125
-94.29931640625
-102.5390625
-112.60986328125
-119.93408203125
-133.6669921875
-140.9912109375
-127.25830078125
-100.7080078125
-58.59375
-8.23974609375
75.0732421875
205.99365234375
318.603515625
451.35498046875
582.275390625
676.57470703125
758.056640625
872.49755859375
1017.15087890625
1115.1123046875
1140.7470703125
1092.22412109375
918.27392578125
619.81201171875
333.251953125
83.31298828125
-83.31298828125
-96.13037109375
-74.15771484375
-55.84716796875
-52.18505859375
-43.02978515625
-17.39501953125
0
3.662109375
-5.4931640625
-12.8173828125
-21.05712890625
-22.88818359375
-30.21240234375
-37.53662109375
-42.1142578125
-50.35400390625
-51.26953125
-56.7626953125
-54.931640625
-58.59375
-56.7626953125
-50.35400390625
-50.35400390625
-47.607421875
-51.26953125
-47.607421875
-51.26953125
-61.34033203125
-63.17138671875
-56.7626953125
-51.26953125
-47.607421875
-55.84716796875
-54.01611328125
-48.52294921875
-54.931640625
-52.18505859375
-51.26953125
-50.35400390625
-52.18505859375
-48.52294921875
-45.7763671875
-47.607421875
-46.69189453125
-43.9453125
-45.7763671875
-45.7763671875
-42.1142578125
-42.1142578125
-44.86083984375
-48.52294921875
-53.1005859375
-50.35400390625
-39.36767578125
-35.70556640625
-27.4658203125
-27.4658203125
-27.4658203125
-22.88818359375
-24.71923828125
-20.1416015625
-25.634765625
-26.55029296875
-21.97265625
-12.8173828125
-9.1552734375
-15.56396484375
-12.8173828125
-10.986328125
-16.4794921875
-21.05712890625
-18.310546875
-10.986328125
-5.4931640625
-1.8310546875
0
3.662109375
7.32421875
19.22607421875
15.56396484375
11.90185546875
11.90185546875
12.8173828125
13.73291015625
16.4794921875
19.22607421875
17.39501953125
14.6484375
19.22607421875
21.97265625
23.8037109375
27.4658203125
29.296875
36.62109375
38.4521484375
43.9453125
43.9453125
48.52294921875
50.35400390625
54.931640625
60.4248046875
66.83349609375
71.4111328125
75.0732421875
84.228515625
82.3974609375
77.81982421875
86.0595703125
94.29931640625
92.46826171875
99.79248046875
94.29931640625
98.876953125
104.3701171875
101.62353515625
105.28564453125
97.96142578125
103.45458984375
107.11669921875
116.27197265625
108.0322265625
112.60986328125
105.28564453125
97.0458984375
109.86328125
106.201171875
106.201171875
110.77880859375
96.13037109375
81.48193359375
66.83349609375
68.66455078125
64.0869140625
54.01611328125
46.69189453125
43.9453125
33.87451171875
20.1416015625
8.23974609375
0
0
-13.73291015625
-20.1416015625
-4.57763671875
-5.4931640625
-16.4794921875
-31.1279296875
-40.283203125
-42.1142578125
-43.02978515625
-54.01611328125
-54.01611328125
-54.01611328125
-63.17138671875
-62.255859375
-67.7490234375
-68.66455078125
-54.931640625
-57.67822265625
-69.580078125
-78.7353515625
-69.580078125
-75.98876953125
-79.65087890625
-84.228515625
-75.0732421875
-68.66455078125
-73.2421875
-70.49560546875
-70.49560546875
-70.49560546875
-78.7353515625
-67.7490234375
-68.66455078125
-67.7490234375
-63.17138671875
-58.59375
-62.255859375
-62.255859375
-68.66455078125
-76.904296875
-76.904296875
-63.17138671875
-71.4111328125
-64.0869140625
-68.66455078125
-74.15771484375
-65.00244140625
-63.17138671875
-69.580078125
-65.91796875
-68.66455078125
-66.83349609375
-65.91796875
-64.0869140625
-64.0869140625
-61.34033203125
-64.0869140625
-51.26953125
-52.18505859375
-65.91796875
-65.91796875
-60.4248046875
-57.67822265625
-58.59375
-55.84716796875
-54.931640625
-57.67822265625
-49.4384765625
-61.34033203125
-65.91796875
-65.00244140625
-63.17138671875
-65.91796875
-66.83349609375
-66.83349609375
-67.7490234375
-64.0869140625
-50.35400390625
-49.4384765625
-53.1005859375
-54.931640625
-54.01611328125
-60.4248046875
-60.4248046875
-58.59375
-64.0869140625
-62.255859375
-65.00244140625
-63.17138671875
-65.91796875
-58.59375
-63.17138671875
-62.255859375
-65.00244140625
-72.32666015625
-72.32666015625
-60.4248046875
-71.4111328125
-74.15771484375
-70.49560546875
-71.4111328125
-74.15771484375
-76.904296875
-72.32666015625
-77.81982421875
-78.7353515625
-85.14404296875
-91.552734375
-90.63720703125
-86.0595703125
-75.0732421875
-79.65087890625
-83.31298828125
-74.15771484375
-75.98876953125
-72.32666015625
-76.904296875
-76.904296875
-76.904296875
-81.48193359375
-72.32666015625
-76.904296875
-77.81982421875
-80.56640625
-77.81982421875
-74.15771484375
-86.0595703125
-81.48193359375
-74.15771484375
-82.3974609375
-92.46826171875
-96.13037109375
-79.65087890625
-74.15771484375
-75.0732421875
-77.81982421875
-85.14404296875
-88.80615234375
-91.552734375
-93.3837890625
-103.45458984375
-97.96142578125
-93.3837890625
-98.876953125
-98.876953125
-95.21484375
-88.80615234375
-87.890625
-86.97509765625
-83.31298828125
-86.97509765625
-89.7216796875
-88.80615234375
-78.7353515625
-78.7353515625
-67.7490234375
-58.59375
-59.50927734375
-64.0869140625
-64.0869140625
-75.0732421875
-71.4111328125
-62.255859375
-48.52294921875
-32.958984375
-23.8037109375
-17.39501953125
-13.73291015625
-16.4794921875
-19.22607421875
-19.22607421875
-30.21240234375
-36.62109375
-33.87451171875
-33.87451171875
-38.4521484375
-41.19873046875
-41.19873046875
-43.9453125
-54.931640625
-63.17138671875
-74.15771484375
-58.59375
-61.34033203125
-81.48193359375
-83.31298828125
-87.890625
-97.0458984375
-103.45458984375
-109.86328125
-110.77880859375
-111.6943359375
-113.525390625
-115.3564453125
-112.60986328125
-110.77880859375
-111.6943359375
-115.3564453125
-106.201171875
-103.45458984375
-108.0322265625
-108.94775390625
-118.10302734375
-115.3564453125
-109.86328125
-120.849609375
-115.3564453125
-103.45458984375
-112.60986328125
-118.10302734375
-108.0322265625
-105.28564453125
-105.28564453125
-107.11669921875
-112.60986328125
-118.10302734375
-116.27197265625
-109.86328125
-108.0322265625
-107.11669921875
-105.28564453125
-122.6806640625
-128.173828125
-134.58251953125
-151.06201171875
-157.470703125
-161.1328125
-150.146484375
-129.08935546875
-94.29931640625
-32.04345703125
53.1005859375
180.35888671875
300.29296875
425.72021484375
563.96484375
675.6591796875
752.5634765625
853.271484375
985.107421875
1086.73095703125
1118.7744140625
1100.4638671875
973.20556640625
710.44921875
368.95751953125
97.96142578125
-81.48193359375
-119.93408203125
-99.79248046875
-65.00244140625
-54.931640625
-65.91796875
-49.4384765625
-25.634765625
-23.8037109375
-22.88818359375
-20.1416015625
-25.634765625
-37.53662109375
-43.02978515625
-43.9453125
-56.7626953125
-66.83349609375
-71.4111328125
-65.91796875
-60.4248046875
-62.255859375
-67.7490234375
-68.66455078125
-59.50927734375
-58.59375
-65.91796875
-76.904296875
-72.32666015625
-72.32666015625
-66.83349609375
-67.7490234375
-63.17138671875
-65.91796875
-66.83349609375
-72.32666015625
-63.17138671875
-61.34033203125
-63.17138671875
-66.83349609375
-71.4111328125
-68.66455078125
-63.17138671875
-64.0869140625
-74.15771484375
-72.32666015625
-67.7490234375
-59.50927734375
-59.50927734375
-55.84716796875
-68.66455078125
-69.580078125
-59.50927734375
-53.1005859375
-57.67822265625
-65.91796875
-61.34033203125
-50.35400390625
-53.1005859375
-53.1005859375
-53.1005859375
-56.7626953125
-53.1005859375
-54.931640625
-54.931640625
-55.84716796875
-44.86083984375
-38.4521484375
-34.7900390625
-41.19873046875
-43.02978515625
-42.1142578125
-35.70556640625
-29.296875
-38.4521484375
-35.70556640625
-34.7900390625
-38.4521484375
-38.4521484375
-32.04345703125
-21.97265625
-25.634765625
-24.71923828125
-20.1416015625
-10.07080078125
-11.90185546875
-16.4794921875
-14.6484375
-9.1552734375
-4.57763671875
-4.57763671875
-4.57763671875
0.91552734375
4.57763671875
13.73291015625
15.56396484375
10.07080078125
2.74658203125
10.07080078125
13.73291015625
21.05712890625
23.8037109375
29.296875
33.87451171875
41.19873046875
43.9453125
44.86083984375
41.19873046875
43.9453125
48.52294921875
54.01611328125
61.34033203125
60.4248046875
58.59375
66.83349609375
70.49560546875
75.98876953125
72.32666015625
68.66455078125
65.91796875
76.904296875
79.65087890625
79.65087890625
81.48193359375
82.3974609375
76.904296875
81.48193359375
68.66455078125
60.4248046875
54.931640625
46.69189453125
43.02978515625
32.958984375
21.97265625
14.6484375
10.07080078125
6.40869140625
0.91552734375
-0.91552734375
0
-5.4931640625
-13.73291015625
-21.05712890625
-32.04345703125
-37.53662109375
-45.7763671875
-46.69189453125
-53.1005859375
-54.931640625
-60.4248046875
-66.83349609375
-66.83349609375
-63.17138671875
-74.15771484375
-73.2421875
-74.15771484375
-77.81982421875
-84.228515625
-79.65087890625
-85.14404296875
-83.31298828125
-89.7216796875
-90.63720703125
-86.0595703125
-88.80615234375
-93.3837890625
-91.552734375
-87.890625
-81.48193359375
-86.0595703125
-86.0595703125
-87.890625
-92.46826171875
-91.552734375
-86.97509765625
-85.14404296875
-83.31298828125
-86.97509765625
-86.0595703125
-83.31298828125
-85.14404296875
-81.48193359375
-80.56640625
-82.3974609375
-83.31298828125
-77.81982421875
-80.56640625
-76.904296875
-75.0732421875
-73.2421875
-81.48193359375
-80.56640625
-77.81982421875
-77.81982421875
-71.4111328125
-79.65087890625
-75.98876953125
-70.49560546875
-76.904296875
-79.65087890625
-93.3837890625
-97.96142578125
-96.13037109375
-91.552734375
-83.31298828125
-77.81982421875
-65.91796875
-70.49560546875
-75.98876953125
-66.83349609375
-65.91796875
-71.4111328125
-66.83349609375
-69.580078125
-72.32666015625
-73.2421875
-75.98876953125
-76.904296875
-75.98876953125
-70.49560546875
-68.66455078125
-71.4111328125
-76.904296875
-75.0732421875
-74.15771484375
-73.2421875
-73.2421875
-73.2421875
-78.7353515625
-82.3974609375
-78.7353515625
-79.65087890625
-86.0595703125
-84.228515625
-83.31298828125
-75.98876953125
-79.65087890625
-80.56640625
-77.81982421875
-75.0732421875
-84.228515625
-86.0595703125
-83.31298828125
-82.3974609375
-88.80615234375
-86.97509765625
-86.0595703125
-90.63720703125
-86.97509765625
-88.80615234375
-90.63720703125
-94.29931640625
-92.46826171875
-86.0595703125
-94.29931640625
-96.13037109375
-94.29931640625
-99.79248046875
-106.201171875
-108.94775390625
-105.28564453125
-102.5390625
-95.21484375
-91.552734375
-94.29931640625
-99.79248046875
-101.62353515625
-93.3837890625
-92.46826171875
-89.7216796875
-94.29931640625
-97.0458984375
-96.13037109375
-100.7080078125
-99.79248046875
-100.7080078125
-94.29931640625
-96.13037109375
-102.5390625
-99.79248046875
-103.45458984375
-105.28564453125
-108.0322265625
-112.60986328125
-116.27197265625
-104.3701171875
-97.0458984375
-93.3837890625
-75.0732421875
-64.0869140625
-62.255859375
-55.84716796875
-65.00244140625
-72.32666015625
-62.255859375
-46.69189453125
-39.36767578125
-39.36767578125
-36.62109375
-21.05712890625
-15.56396484375
-21.05712890625
-25.634765625
-31.1279296875
-36.62109375
-43.9453125
-32.958984375
-29.296875
-37.53662109375
-41.19873046875
-48.52294921875
-53.1005859375
-58.59375
-63.17138671875
-74.15771484375
-75.98876953125
-84.228515625
-92.46826171875
-100.7080078125
-105.28564453125
-112.60986328125
-101.62353515625
-103.45458984375
-108.0322265625
-108.0322265625
-103.45458984375
-106.201171875
-107.11669921875
-116.27197265625
-118.10302734375
-118.10302734375
-119.93408203125
-119.0185546875
-119.93408203125
-117.1875
-119.0185546875
-124.51171875
-121.76513671875
-120.849609375
-118.10302734375
-116.27197265625
-110.77880859375
-116.27197265625
-117.1875
-119.93408203125
-115.3564453125
-119.93408203125
-116.27197265625
-124.51171875
-120.849609375
-120.849609375
-123.59619140625
-119.93408203125
-119.0185546875
-119.93408203125
-123.59619140625
-136.41357421875
-146.484375
-158.38623046875
-160.21728515625
-149.23095703125
-123.59619140625
-73.2421875
-17.39501953125
70.49560546875
195.00732421875
310.36376953125
442.19970703125
574.03564453125
671.08154296875
753.47900390625
864.2578125
1001.5869140625
1086.73095703125
1103.21044921875
1062.92724609375
890.80810546875
588.68408203125
269.1650390625
29.296875
-116.27197265625
-121.76513671875
-94.29931640625
-77.81982421875
-84.228515625
-75.0732421875
-39.36767578125
-21.05712890625
-13.73291015625
-14.6484375
-24.71923828125
-32.958984375
-38.4521484375
-51.26953125
-62.255859375
-63.17138671875
-63.17138671875
-66.83349609375
-67.7490234375
-70.49560546875
-71.4111328125
-71.4111328125
-76.904296875
-75.98876953125
-70.49560546875
-77.81982421875
-81.48193359375
-75.98876953125
-76.904296875
-70.49560546875
-64.0869140625
-58.59375
-61.34033203125
-64.0869140625
-69.580078125
-65.00244140625
-62.255859375
-62.255859375
-61.34033203125
-65.00244140625
-61.34033203125
-63.17138671875
-67.7490234375
-65.00244140625
-63.17138671875
-66.83349609375
-66.83349609375
-61.34033203125
-55.84716796875
-50.35400390625
-52.18505859375
-54.01611328125
-54.01611328125
-55.84716796875
-54.931640625
-55.84716796875
-50.35400390625
-50.35400390625
-48.52294921875
-47.607421875
-41.19873046875
-41.19873046875
-45.7763671875
-48.52294921875
-51.26953125
-45.7763671875
-40.283203125
-42.1142578125
-43.02978515625
-46.69189453125
-33.87451171875
-24.71923828125
-31.1279296875
-31.1279296875
-19.22607421875
-22.88818359375
-21.05712890625
-16.4794921875
-17.39501953125
-18.310546875
-10.986328125
-11.90185546875
-10.986328125
0
-6.40869140625
-9.1552734375
-5.4931640625
-6.40869140625
-9.1552734375
-2.74658203125
2.74658203125
10.07080078125
14.6484375
23.8037109375
29.296875
33.87451171875
31.1279296875
33.87451171875
37.53662109375
36.62109375
39.36767578125
40.283203125
43.9453125
43.9453125
49.4384765625
52.18505859375
58.59375
60.4248046875
69.580078125
75.98876953125
77.81982421875
78.7353515625
85.14404296875
86.0595703125
86.0595703125
86.0595703125
81.48193359375
84.228515625
86.0595703125
85.14404296875
84.228515625
86.0595703125
89.7216796875
89.7216796875
86.97509765625
82.3974609375
77.81982421875
74.15771484375
70.49560546875
55.84716796875
49.4384765625
43.9453125
35.70556640625
30.21240234375
21.97265625
12.8173828125
8.23974609375
0.91552734375
-0.91552734375
-5.4931640625
-14.6484375
-24.71923828125
-32.958984375
-39.36767578125
-42.1142578125
-52.18505859375
-53.1005859375
-52.18505859375
-54.931640625
-55.84716796875
-62.255859375
-60.4248046875
-65.00244140625
-72.32666015625
-73.2421875
-70.49560546875
-70.49560546875
-73.2421875
-69.580078125
-78.7353515625
-80.56640625
-81.48193359375
-86.97509765625
-81.48193359375
-83.31298828125
-83.31298828125
-89.7216796875
-87.890625
-84.228515625
-83.31298828125
-81.48193359375
-77.81982421875
-79.65087890625
-83.31298828125
-76.904296875
-78.7353515625
-82.3974609375
-85.14404296875
-85.14404296875
-84.228515625
-79.65087890625
-76.904296875
-78.7353515625
-87.890625
-82.3974609375
-80.56640625
-71.4111328125
-71.4111328125
-68.66455078125
-73.2421875
-75.0732421875
-74.15771484375
-71.4111328125
-70.49560546875
-72.32666015625
-73.2421875
-82.3974609375
-82.3974609375
-77.81982421875
-73.2421875
-70.49560546875
-65.00244140625
-65.91796875
-69.580078125
-65.91796875
-67.7490234375
-65.91796875
-60.4248046875
-60.4248046875
-65.00244140625
-67.7490234375
-61.34033203125
-61.34033203125
-63.17138671875
-59.50927734375
-65.00244140625
-67.7490234375
-67.7490234375
-65.00244140625
-67.7490234375
-70.49560546875
-69.580078125
-67.7490234375
-63.17138671875
-63.17138671875
-65.91796875
-73.2421875
-68.66455078125
-74.15771484375
-75.0732421875
-68.66455078125
-75.0732421875
-80.56640625
-75.98876953125
-75.0732421875
-74.15771484375
-77.81982421875
-78.7353515625
-78.7353515625
-80.56640625
-83.31298828125
-87.890625
-84.228515625
-80.56640625
-75.0732421875
-74.15771484375
-72.32666015625
-72.32666015625
-82.3974609375
-86.97509765625
-85.14404296875
-82.3974609375
-81.48193359375
-79.65087890625
-79.65087890625
-85.14404296875
-86.97509765625
-80.56640625
-84.228515625
-80.56640625
-80.56640625
-74.15771484375
-74.15771484375
-74.15771484375
-74.15771484375
-81.48193359375
-79.65087890625
-72.32666015625
-70.49560546875
-82.3974609375
-86.0595703125
-80.56640625
-78.7353515625
-78.7353515625
-88.80615234375
-86.97509765625
-81.48193359375
-83.31298828125
-89.7216796875
-89.7216796875
-82.3974609375
-84.228515625
-82.3974609375
-81.48193359375
-80.56640625
-73.2421875
-82.3974609375
-83.31298828125
-83.31298828125
-84.228515625
-78.7353515625
-75.0732421875
-62.255859375
-52.18505859375
-38.4521484375
-38.4521484375
-46.69189453125
-54.01611328125
-54.931640625
-45.7763671875
-29.296875
-22.88818359375
-17.39501953125
-6.40869140625
2.74658203125
-1.8310546875
-4.57763671875
-4.57763671875
-21.05712890625
-39.36767578125
-38.4521484375
-32.04345703125
-31.1279296875
-33.87451171875
-35.70556640625
-38.4521484375
-37.53662109375
-43.02978515625
-50.35400390625
-60.4248046875
-65.91796875
-65.91796875
-67.7490234375
-85.14404296875
-90.63720703125
-91.552734375
-93.3837890625
-95.21484375
-103.45458984375
-107.11669921875
-107.11669921875
-107.11669921875
-106.201171875
-102.5390625
-102.5390625
-99.79248046875
-103.45458984375
-109.86328125
-110.77880859375
-109.86328125
-104.3701171875
-108.94775390625
-104.3701171875
-102.5390625
-104.3701171875
-101.62353515625
-102.5390625
-97.96142578125
-100.7080078125
-96.13037109375
-101.62353515625
-101.62353515625
-99.79248046875
-107.11669921875
-107.11669921875
-102.5390625
-102.5390625
-102.5390625
-104.3701171875
-108.94775390625
-109.86328125
-124.51171875
-134.58251953125
-143.73779296875
-140.07568359375
-127.25830078125
-102.5390625
-65.00244140625
-17.39501953125
68.66455078125
178.52783203125
290.22216796875
416.56494140625
549.31640625
644.53125
725.09765625
831.298828125
958.55712890625
1054.6875
1083.06884765625
1061.09619140625
928.3447265625
660.09521484375
349.7314453125
112.60986328125
-65.91796875
-100.7080078125
-86.0595703125
-65.00244140625
-72.32666015625
-50.35400390625
-24.71923828125
-6.40869140625
-4.57763671875
-10.986328125
-17.39501953125
-27.4658203125
-34.7900390625
-37.53662109375
-34.7900390625
-37.53662109375
-43.02978515625
-45.7763671875
-43.9453125
-44.86083984375
-48.52294921875
-53.1005859375
-54.931640625
-57.67822265625
-55.84716796875
-54.01611328125
-57.67822265625
-54.931640625
-47.607421875
-50.35400390625
-54.01611328125
-52.18505859375
-56.7626953125
-63.17138671875
-62.255859375
-62.255859375
-63.17138671875
-61.34033203125
-50.35400390625
-54.01611328125
-57.67822265625
-56.7626953125
-52.18505859375
-50.35400390625
-46.69189453125
-45.7763671875
-43.9453125
-43.9453125
-40.283203125
-44.86083984375
-46.69189453125
-40.283203125
-38.4521484375
-42.1142578125
-41.19873046875
-37.53662109375
-35.70556640625
-35.70556640625
-43.9453125
-44.86083984375
-40.283203125
-41.19873046875
-32.958984375
-27.4658203125
-27.4658203125
-23.8037109375
-24.71923828125
-24.71923828125
-21.97265625
-18.310546875
-13.73291015625
-15.56396484375
-21.05712890625
-16.4794921875
-12.8173828125
-13.73291015625
-14.6484375
-10.986328125
-1.8310546875
6.40869140625
3.662109375
10.07080078125
9.1552734375
7.32421875
14.6484375
10.07080078125
13.73291015625
21.05712890625
25.634765625
25.634765625
28.38134765625
30.21240234375
33.87451171875
35.70556640625
40.283203125
46.69189453125
45.7763671875
46.69189453125
50.35400390625
55.84716796875
52.18505859375
56.7626953125
65.00244140625
71.4111328125
75.98876953125
81.48193359375
81.48193359375
90.63720703125
97.0458984375
98.876953125
98.876953125
102.5390625
96.13037109375
95.21484375
105.28564453125
112.60986328125
115.3564453125
120.849609375
120.849609375
118.10302734375
118.10302734375
117.1875
119.0185546875
122.6806640625
123.59619140625
110.77880859375
107.11669921875
95.21484375
91.552734375
87.890625
75.98876953125
71.4111328125
70.49560546875
61.34033203125
54.01611328125
50.35400390625
42.1142578125
28.38134765625
19.22607421875
14.6484375
8.23974609375
-5.4931640625
-14.6484375
-19.22607421875
-23.8037109375
-25.634765625
-25.634765625
-28.38134765625
-41.19873046875
-40.283203125
-48.52294921875
-54.01611328125
-55.84716796875
-54.931640625
-54.931640625
-56.7626953125
-60.4248046875
-56.7626953125
-60.4248046875
-65.00244140625
-65.00244140625
-68.66455078125
-64.0869140625
-57.67822265625
-55.84716796875
-55.84716796875
-70.49560546875
-70.49560546875
-65.91796875
-66.83349609375
-65.00244140625
-63.17138671875
-62.255859375
-66.83349609375
-67.7490234375
-65.00244140625
-60.4248046875
-60.4248046875
-63.17138671875
-63.17138671875
-61.34033203125
-65.91796875
-65.00244140625
-62.255859375
-63.17138671875
-65.00244140625
-64.0869140625
-62.255859375
-62.255859375
-60.4248046875
-62.255859375
-60.4248046875
-63.17138671875
-63.17138671875
-67.7490234375
-62.255859375
-60.4248046875
-57.67822265625
-56.7626953125
-59.50927734375
-57.67822265625
-54.01611328125
-54.931640625
-51.26953125
-47.607421875
-51.26953125
-58.59375
-50.35400390625
-52.18505859375
-52.18505859375
-49.4384765625
-54.931640625
-55.84716796875
-53.1005859375
-48.52294921875
-50.35400390625
-55.84716796875
-56.7626953125
-58.59375
-55.84716796875
-54.931640625
-50.35400390625
-52.18505859375
-54.01611328125
-54.01611328125
-59.50927734375
-63.17138671875
-59.50927734375
-57.67822265625
-58.59375
-55.84716796875
-57.67822265625
-63.17138671875
-53.1005859375
-55.84716796875
-53.1005859375
-52.18505859375
-56.7626953125
-63.17138671875
-64.0869140625
-59.50927734375
-61.34033203125
-63.17138671875
-61.34033203125
-58.59375
-60.4248046875
-64.0869140625
-61.34033203125
-68.66455078125
-69.580078125
-70.49560546875
-71.4111328125
-67.7490234375
-69.580078125
-72.32666015625
-66.83349609375
-60.4248046875
-59.50927734375
-65.00244140625
-65.00244140625
-64.0869140625
-66.83349609375
-60.4248046875
-69.580078125
-74.15771484375
-80.56640625
-75.0732421875
-79.65087890625
-78.7353515625
-77.81982421875
-73.2421875
-73.2421875
-75.0732421875
-75.0732421875
-78.7353515625
-75.98876953125
-77.81982421875
-74.15771484375
-71.4111328125
-69.580078125
-74.15771484375
-73.2421875
-74.15771484375
-75.0732421875
-75.0732421875
-75.0732421875
-75.98876953125
-77.81982421875
-80.56640625
-82.3974609375
-79.65087890625
-75.98876953125
-74.15771484375
-78.7353515625
-77.81982421875
-82.3974609375
-82.3974609375
-81.48193359375
-82.3974609375
-75.98876953125
-76.904296875
-79.65087890625
-75.0732421875
-75.98876953125
-76.904296875
-75.0732421875
-78.7353515625
-75.98876953125
-76.904296875
-79.65087890625
-78.7353515625
-80.56640625
-77.81982421875
-76.904296875
-81.48193359375
-78.7353515625
-76.904296875
-80.56640625
-86.97509765625
-83.31298828125
-82.3974609375
-77.81982421875
-73.2421875
-64.0869140625
-48.52294921875
-36.62109375
-36.62109375
-41.19873046875
-46.69189453125
-52.18505859375
-53.1005859375
-41.19873046875
-25.634765625
-16.4794921875
-10.986328125
-6.40869140625
-9.1552734375
-10.986328125
-11.90185546875
-15.56396484375
-19.22607421875
-20.1416015625
-18.310546875
-15.56396484375
-12.8173828125
-14.6484375
-15.56396484375
-23.8037109375
-37.53662109375
-39.36767578125
-47.607421875
-55.84716796875
-65.91796875
-65.91796875
-64.0869140625
-74.15771484375
-81.48193359375
-90.63720703125
-89.7216796875
-85.14404296875
-87.890625
-99.79248046875
-100.7080078125
-94.29931640625
-97.0458984375
-103.45458984375
-103.45458984375
-103.45458984375
-105.28564453125
-98.876953125
-98.876953125
-107.11669921875
-98.876953125
-97.0458984375
-99.79248046875
-102.5390625
-104.3701171875
-101.62353515625
-97.96142578125
-99.79248046875
-97.0458984375
-103.45458984375
-101.62353515625
-98.876953125
-96.13037109375
-94.29931640625
-94.29931640625
-91.552734375
-93.3837890625
-91.552734375
-90.63720703125
-86.97509765625
-94.29931640625
-100.7080078125
-110.77880859375
-117.1875
-126.3427734375
-132.75146484375
-130.0048828125
-104.3701171875
-75.98876953125
-37.53662109375
34.7900390625
140.9912109375
253.60107421875
358.88671875
477.9052734375
587.7685546875
676.57470703125
778.1982421875
899.0478515625
1019.8974609375
1083.984375
1085.8154296875
1011.65771484375
792.8466796875
473.32763671875
217.8955078125
8.23974609375
-80.56640625
-86.97509765625
-62.255859375
-51.26953125
-37.53662109375
-8.23974609375
6.40869140625
10.07080078125
10.986328125
5.4931640625
-4.57763671875
-11.90185546875
-22.88818359375
-27.4658203125
-39.36767578125
-46.69189453125
-47.607421875
-44.86083984375
-49.4384765625
-51.26953125
-44.86083984375
-48.52294921875
-49.4384765625
-48.52294921875
-53.1005859375
-54.01611328125
-54.931640625
-54.01611328125
-53.1005859375
-55.84716796875
-57.67822265625
-58.59375
-62.255859375
-57.67822265625
-53.1005859375
-53.1005859375
-54.01611328125
-51.26953125
-52.18505859375
-52.18505859375
-52.18505859375
-55.84716796875
-45.7763671875
-43.9453125
-39.36767578125
-40.283203125
-42.1142578125
-45.7763671875
-44.86083984375
-41.19873046875
-40.283203125
-39.36767578125
-37.53662109375
-37.53662109375
-36.62109375
-33.87451171875
-36.62109375
-36.62109375
-33.87451171875
-32.04345703125
-29.296875
-30.21240234375
-27.4658203125
-20.1416015625
-23.8037109375
-24.71923828125
-18.310546875
-22.88818359375
-20.1416015625
-20.1416015625
-17.39501953125
-18.310546875
-18.310546875
-16.4794921875
-18.310546875
-14.6484375
-7.32421875
-1.8310546875
-0.91552734375
0.91552734375
2.74658203125
7.32421875
14.6484375
15.56396484375
14.6484375
16.4794921875
20.1416015625
17.39501953125
15.56396484375
21.97265625
20.1416015625
21.97265625
30.21240234375
32.04345703125
33.87451171875
40.283203125
45.7763671875
51.26953125
55.84716796875
58.59375
63.17138671875
67.7490234375
69.580078125
69.580078125
75.98876953125
77.81982421875
79.65087890625
78.7353515625
85.14404296875
90.63720703125
92.46826171875
95.21484375
104.3701171875
108.94775390625
102.5390625
104.3701171875
103.45458984375
109.86328125
115.3564453125
119.0185546875
122.6806640625
126.3427734375
128.173828125
126.3427734375
123.59619140625
118.10302734375
110.77880859375
97.96142578125
89.7216796875
86.0595703125
85.14404296875
81.48193359375
69.580078125
60.4248046875
50.35400390625
46.69189453125
47.607421875
35.70556640625
23.8037109375
17.39501953125
5.4931640625
0
-2.74658203125
-6.40869140625
-8.23974609375
-12.8173828125
-18.310546875
-24.71923828125
-30.21240234375
-31.1279296875
-33.87451171875
-41.19873046875
-44.86083984375
-52.18505859375
-58.59375
-63.17138671875
-69.580078125
-69.580078125
-63.17138671875
-58.59375
-58.59375
-51.26953125
-49.4384765625
-50.35400390625
-49.4384765625
-46.69189453125
-53.1005859375
-54.931640625
-55.84716796875
-58.59375
-58.59375
-59.50927734375
-60.4248046875
-61.34033203125
-58.59375
-63.17138671875
-63.17138671875
-65.00244140625
-60.4248046875
-53.1005859375
-54.01611328125
-54.931640625
-54.01611328125
-53.1005859375
-52.18505859375
-51.26953125
-51.26953125
-51.26953125
-50.35400390625
-47.607421875
-48.52294921875
-51.26953125
-53.1005859375
-54.931640625
-53.1005859375
-51.26953125
-54.931640625
-55.84716796875
-49.4384765625
-44.86083984375
-50.35400390625
-54.01611328125
-54.01611328125
-46.69189453125
-42.1142578125
-38.4521484375
-32.958984375
-36.62109375
-42.1142578125
-41.19873046875
-36.62109375
-40.283203125
-43.9453125
-44.86083984375
-47.607421875
-45.7763671875
-44.86083984375
-44.86083984375
-48.52294921875
-47.607421875
-47.607421875
-43.9453125
-43.9453125
-49.4384765625
-43.9453125
-39.36767578125
-43.9453125
-46.69189453125
-43.9453125
-47.607421875
-55.84716796875
-51.26953125
-49.4384765625
-48.52294921875
-52.18505859375
-53.1005859375
-49.4384765625
-54.931640625
-54.01611328125
-53.1005859375
-52.18505859375
-49.4384765625
-50.35400390625
-51.26953125
-46.69189453125
-45.7763671875
-45.7763671875
-46.69189453125
-49.4384765625
-53.1005859375
-55.84716796875
-62.255859375
-57.67822265625
-58.59375
-58.59375
-51.26953125
-54.931640625
-57.67822265625
-59.50927734375
-57.67822265625
-59.50927734375
-56.7626953125
-58.59375
-59.50927734375
-60.4248046875
-58.59375
-59.50927734375
-62.255859375
-64.0869140625
-63.17138671875
-61.34033203125
-62.255859375
-70.49560546875
-67.7490234375
-65.00244140625
-64.0869140625
-66.83349609375
-65.91796875
-64.0869140625
-66.83349609375
-69.580078125
-66.83349609375
-63.17138671875
-60.4248046875
-64.0869140625
-65.00244140625
-65.91796875
-64.0869140625
-61.34033203125
-68.66455078125
-67.7490234375
-67.7490234375
-66.83349609375
-65.91796875
-62.255859375
-61.34033203125
-58.59375
-56.7626953125
-59.50927734375
-61.34033203125
-64.0869140625
-64.0869140625
-58.59375
-63.17138671875
-64.0869140625
-71.4111328125
-71.4111328125
-68.66455078125
-72.32666015625
-70.49560546875
-66.83349609375
-62.255859375
-68.66455078125
-72.32666015625
-70.49560546875
-67.7490234375
-68.66455078125
-67.7490234375
-67.7490234375
-72.32666015625
-69.580078125
-65.91796875
-70.49560546875
-77.81982421875
-85.14404296875
-82.3974609375
-76.904296875
-75.0732421875
-68.66455078125
-65.91796875
-65.00244140625
-63.17138671875
-66.83349609375
-66.83349609375
-61.34033203125
-57.67822265625
-44.86083984375
-32.04345703125
-25.634765625
-30.21240234375
-38.4521484375
-41.19873046875
-53.1005859375
-47.607421875
-28.38134765625
-20.1416015625
-7.32421875
2.74658203125
13.73291015625
10.07080078125
3.662109375
1.8310546875
-9.1552734375
-14.6484375
-15.56396484375
-10.07080078125
-8.23974609375
-5.4931640625
-13.73291015625
-21.05712890625
-28.38134765625
-35.70556640625
-47.607421875
-55.84716796875
-54.01611328125
-54.01611328125
-58.59375
-61.34033203125
-69.580078125
-82.3974609375
-90.63720703125
-86.97509765625
-91.552734375
-97.0458984375
-95.21484375
-90.63720703125
-90.63720703125
-86.97509765625
-85.14404296875
-90.63720703125
-88.80615234375
-95.21484375
-89.7216796875
-91.552734375
-97.96142578125
-101.62353515625
-100.7080078125
-97.0458984375
-92.46826171875
-88.80615234375
-88.80615234375
-95.21484375
-101.62353515625
-96.13037109375
-95.21484375
-94.29931640625
-92.46826171875
-97.96142578125
-101.62353515625
-102.5390625
-97.0458984375
-94.29931640625
-95.21484375
-86.97509765625
-86.97509765625
-90.63720703125
-97.0458984375
-107.11669921875
-118.10302734375
-130.92041015625
-130.0048828125
-126.3427734375
-115.3564453125
-83.31298828125
-39.36767578125
18.310546875
119.0185546875
236.2060546875
351.5625
482.48291015625
606.99462890625
684.814453125
779.11376953125
909.11865234375
1038.2080078125
1114.19677734375
1122.4365234375
1055.60302734375
866.0888671875
557.55615234375
273.74267578125
41.19873046875
-81.48193359375
-82.3974609375
-60.4248046875
-41.19873046875
-42.1142578125
-21.05712890625
-3.662109375
12.8173828125
9.1552734375
0
-13.73291015625
-24.71923828125
-38.4521484375
-39.36767578125
-39.36767578125
-35.70556640625
-43.9453125
-52.18505859375
-54.01611328125
-53.1005859375
-45.7763671875
-48.52294921875
-51.26953125
-54.01611328125
-56.7626953125
-57.67822265625
-58.59375
-54.01611328125
-51.26953125
-57.67822265625
-46.69189453125
-53.1005859375
-51.26953125
-54.931640625
-53.1005859375
-51.26953125
-47.607421875
-48.52294921875
-54.01611328125
-58.59375
-61.34033203125
-49.4384765625
-50.35400390625
-53.1005859375
-51.26953125
-54.01611328125
-52.18505859375
-45.7763671875
-46.69189453125
-46.69189453125
-43.02978515625
-45.7763671875
-41.19873046875
-38.4521484375
-42.1142578125
-43.9453125
-40.283203125
-34.7900390625
-33.87451171875
-35.70556640625
-38.4521484375
-40.283203125
-37.53662109375
-43.02978515625
-36.62109375
-43.02978515625
-36.62109375
-25.634765625
-21.97265625
-20.1416015625
-16.4794921875
-15.56396484375
-15.56396484375
-13.73291015625
-15.56396484375
-11.90185546875
-10.07080078125
-8.23974609375
-7.32421875
-2.74658203125
-0.91552734375
-6.40869140625
-3.662109375
4.57763671875
13.73291015625
6.40869140625
1.8310546875
3.662109375
12.8173828125
14.6484375
18.310546875
25.634765625
22.88818359375
20.1416015625
26.55029296875
35.70556640625
35.70556640625
39.36767578125
50.35400390625
45.7763671875
55.84716796875
59.50927734375
55.84716796875
60.4248046875
59.50927734375
67.7490234375
65.91796875
72.32666015625
75.98876953125
75.98876953125
72.32666015625
76.904296875
79.65087890625
82.3974609375
86.0595703125
93.3837890625
99.79248046875
102.5390625
106.201171875
107.11669921875
107.11669921875
110.77880859375
108.94775390625
107.11669921875
104.3701171875
99.79248046875
95.21484375
91.552734375
90.63720703125
78.7353515625
71.4111328125
75.98876953125
62.255859375
54.931640625
48.52294921875
42.1142578125
40.283203125
38.4521484375
24.71923828125
10.07080078125
1.8310546875
-3.662109375
-7.32421875
-11.90185546875
-18.310546875
-21.97265625
-30.21240234375
-41.19873046875
-52.18505859375
-51.26953125
-48.52294921875
-56.7626953125
-54.01611328125
-52.18505859375
-54.931640625
-56.7626953125
-65.00244140625
-66.83349609375
-65.00244140625
-67.7490234375
-67.7490234375
-63.17138671875
-65.00244140625
-64.0869140625
-66.83349609375
-65.00244140625
-61.34033203125
-60.4248046875
-63.17138671875
-70.49560546875
-69.580078125
-64.0869140625
-70.49560546875
-73.2421875
-70.49560546875
-69.580078125
-73.2421875
-74.15771484375
-76.904296875
-75.0732421875
-72.32666015625
-62.255859375
-67.7490234375
-67.7490234375
-59.50927734375
-58.59375
-60.4248046875
-59.50927734375
-60.4248046875
-65.00244140625
-62.255859375
-59.50927734375
-63.17138671875
-75.0732421875
-76.904296875
-80.56640625
-71.4111328125
-64.0869140625
-65.00244140625
-62.255859375
-58.59375
-60.4248046875
-54.01611328125
-49.4384765625
-49.4384765625
-60.4248046875
-63.17138671875
-54.931640625
-58.59375
-69.580078125
-65.00244140625
-64.0869140625
-60.4248046875
-60.4248046875
-65.00244140625
-60.4248046875
-57.67822265625
-59.50927734375
-61.34033203125
-65.00244140625
-61.34033203125
-57.67822265625
-61.34033203125
-62.255859375
-63.17138671875
-65.91796875
-64.0869140625
-63.17138671875
-66.83349609375
-77.81982421875
-65.91796875
-63.17138671875
-64.0869140625
-70.49560546875
-74.15771484375
-65.91796875
-68.66455078125
-66.83349609375
-61.34033203125
-57.67822265625
-59.50927734375
-61.34033203125
-60.4248046875
-65.91796875
-71.4111328125
-77.81982421875
-80.56640625
-81.48193359375
-85.14404296875
-80.56640625
-78.7353515625
-75.0732421875
-71.4111328125
-74.15771484375
-74.15771484375
-74.15771484375
-78.7353515625
-75.0732421875
-81.48193359375
-83.31298828125
-77.81982421875
-78.7353515625
-78.7353515625
-81.48193359375
-75.0732421875
-77.81982421875
-76.904296875
-75.0732421875
-79.65087890625
-81.48193359375
-79.65087890625
-79.65087890625
-80.56640625
-81.48193359375
-82.3974609375
-86.0595703125
-85.14404296875
-85.14404296875
-78.7353515625
-83.31298828125
-87.890625
-86.97509765625
-87.890625
-90.63720703125
-90.63720703125
-85.14404296875
-82.3974609375
-84.228515625
-84.228515625
-82.3974609375
-75.98876953125
-75.98876953125
-71.4111328125
-75.0732421875
-81.48193359375
-86.97509765625
-81.48193359375
-84.228515625
-87.890625
-87.890625
-92.46826171875
-89.7216796875
-86.0595703125
-84.228515625
-86.0595703125
-88.80615234375
-87.890625
-89.7216796875
-87.890625
-86.0595703125
-81.48193359375
-82.3974609375
-86.0595703125
-79.65087890625
-80.56640625
-86.97509765625
-87.890625
-88.80615234375
-87.890625
-88.80615234375
-91.552734375
-93.3837890625
-92.46826171875
-89.7216796875
-91.552734375
-83.31298828125
-73.2421875
-60.4248046875
-54.01611328125
-52.18505859375
-53.1005859375
-63.17138671875
-65.00244140625
-54.01611328125
-34.7900390625
-23.8037109375
-17.39501953125
-8.23974609375
-14.6484375
-11.90185546875
-14.6484375
-15.56396484375
-18.310546875
-21.97265625
-29.296875
-22.88818359375
-23.8037109375
-26.55029296875
-28.38134765625
-29.296875
-37.53662109375
-46.69189453125
-54.931640625
-64.0869140625
-66.83349609375
-73.2421875
-74.15771484375
-85.14404296875
-87.890625
-90.63720703125
-97.96142578125
-97.0458984375
-101.62353515625
-99.79248046875
-102.5390625
-104.3701171875
-104.3701171875
-103.45458984375
-97.0458984375
-96.13037109375
-97.0458984375
-102.5390625
-102.5390625
-101.62353515625
-108.0322265625
-101.62353515625
-101.62353515625
-96.13037109375
-100.7080078125
-107.11669921875
-114.44091796875
-108.0322265625
-103.45458984375
-106.201171875
-105.28564453125
-107.11669921875
-107.11669921875
-107.11669921875
-103.45458984375
-102.5390625
-97.96142578125
-96.13037109375
-96.13037109375
-97.96142578125
-97.0458984375
-102.5390625
-109.86328125
-119.0185546875
-130.0048828125
-140.07568359375
-142.822265625
-136.41357421875
-114.44091796875
-85.14404296875
-42.1142578125
25.634765625
146.484375
270.99609375
393.6767578125
527.34375
646.3623046875
732.421875
824.89013671875
966.796875
1086.73095703125
1127.9296875
1118.7744140625
1017.15087890625
778.1982421875
452.2705078125
166.6259765625
-48.52294921875
-112.60986328125
-88.80615234375
-58.59375
-41.19873046875
-38.4521484375
-29.296875
-12.8173828125
-3.662109375
0
-5.4931640625
-17.39501953125
-26.55029296875
-32.958984375
-34.7900390625
-34.7900390625
-38.4521484375
-41.19873046875
-45.7763671875
-52.18505859375
-54.931640625
-54.931640625
-57.67822265625
-60.4248046875
-64.0869140625
-65.00244140625
-56.7626953125
-55.84716796875
-49.4384765625
-47.607421875
-50.35400390625
-54.01611328125
-57.67822265625
-59.50927734375
-57.67822265625
-57.67822265625
-59.50927734375
-60.4248046875
-54.01611328125
-53.1005859375
-50.35400390625
-48.52294921875
-46.69189453125
-48.52294921875
-46.69189453125
-41.19873046875
-41.19873046875
-42.1142578125
-43.02978515625
-44.86083984375
-47.607421875
-44.86083984375
-44.86083984375
-43.9453125
-37.53662109375
-31.1279296875
-32.958984375
-40.283203125
-41.19873046875
-43.9453125
-40.283203125
-38.4521484375
-38.4521484375
-38.4521484375
-34.7900390625
-27.4658203125
-27.4658203125
-28.38134765625
-22.88818359375
-20.1416015625
-20.1416015625
-16.4794921875
-11.90185546875
-6.40869140625
-12.8173828125
-15.56396484375
-10.986328125
-9.1552734375
-10.986328125
-8.23974609375
-5.4931640625
-2.74658203125
-2.74658203125
6.40869140625
3.662109375
1.8310546875
8.23974609375
12.8173828125
19.22607421875
20.1416015625
23.8037109375
31.1279296875
29.296875
27.4658203125
24.71923828125
22.88818359375
29.296875
40.283203125
39.36767578125
44.86083984375
53.1005859375
57.67822265625
58.59375
59.50927734375
62.255859375
64.0869140625
63.17138671875
68.66455078125
68.66455078125
68.66455078125
70.49560546875
76.904296875
87.890625
89.7216796875
91.552734375
96.13037109375
102.5390625
104.3701171875
105.28564453125
104.3701171875
100.7080078125
104.3701171875
103.45458984375
101.62353515625
99.79248046875
97.0458984375
97.0458984375
96.13037109375
87.890625
83.31298828125
76.904296875
70.49560546875
67.7490234375
65.00244140625
55.84716796875
47.607421875
39.36767578125
31.1279296875
20.1416015625
10.986328125
0.91552734375
-5.4931640625
-10.986328125
-13.73291015625
-14.6484375
-19.22607421875
-17.39501953125
-31.1279296875
-39.36767578125
-51.26953125
-54.931640625
-46.69189453125
-37.53662109375
-34.7900390625
-38.4521484375
-43.02978515625
-43.9453125
-45.7763671875
-43.9453125
-44.86083984375
-48.52294921875
-54.931640625
-54.931640625
-54.01611328125
-50.35400390625
-54.01611328125
-53.1005859375
-53.1005859375
-52.18505859375
-55.84716796875
-56.7626953125
-56.7626953125
-61.34033203125
-58.59375
-60.4248046875
-58.59375
-61.34033203125
-61.34033203125
-54.01611328125
-49.4384765625
-52.18505859375
-51.26953125
-50.35400390625
-61.34033203125
-67.7490234375
-69.580078125
-68.66455078125
-63.17138671875
-54.01611328125
-46.69189453125
-41.19873046875
-43.9453125
-43.9453125
-43.9453125
-41.19873046875
-43.9453125
-36.62109375
-37.53662109375
-36.62109375
-34.7900390625
-39.36767578125
-35.70556640625
-34.7900390625
-32.04345703125
-34.7900390625
-32.958984375
-32.958984375
-37.53662109375
-34.7900390625
-37.53662109375
-36.62109375
-38.4521484375
-39.36767578125
-41.19873046875
-45.7763671875
-44.86083984375
-41.19873046875
-35.70556640625
-35.70556640625
-39.36767578125
-39.36767578125
-37.53662109375
-43.02978515625
-44.86083984375
-43.9453125
-43.9453125
-39.36767578125
-42.1142578125
-45.7763671875
-45.7763671875
-43.02978515625
-39.36767578125
-37.53662109375
-41.19873046875
-36.62109375
-38.4521484375
-37.53662109375
-39.36767578125
-40.283203125
-39.36767578125
-40.283203125
-38.4521484375
-38.4521484375
-44.86083984375
-45.7763671875
-43.02978515625
-41.19873046875
-43.02978515625
-45.7763671875
-49.4384765625
-50.35400390625
-54.931640625
-50.35400390625
-54.931640625
-57.67822265625
-58.59375
-54.931640625
-53.1005859375
-51.26953125
-54.931640625
-55.84716796875
-54.931640625
-55.84716796875
-57.67822265625
-55.84716796875
-58.59375
-60.4248046875
-64.0869140625
-66.83349609375
-65.00244140625
-66.83349609375
-70.49560546875
-60.4248046875
-61.34033203125
-57.67822265625
-54.931640625
-55.84716796875
-58.59375
-60.4248046875
-54.931640625
-55.84716796875
-61.34033203125
-65.91796875
-63.17138671875
-59.50927734375
-56.7626953125
-57.67822265625
-57.67822265625
-59.50927734375
-56.7626953125
-58.59375
-59.50927734375
-62.255859375
-60.4248046875
-60.4248046875
-62.255859375
-61.34033203125
-64.0869140625
-61.34033203125
-65.91796875
-64.0869140625
-65.91796875
-62.255859375
-59.50927734375
-61.34033203125
-65.00244140625
-67.7490234375
-68.66455078125
-74.15771484375
-81.48193359375
-84.228515625
-82.3974609375
-75.0732421875
-66.83349609375
-64.0869140625
-54.931640625
-50.35400390625
-54.01611328125
-56.7626953125
-57.67822265625
-57.67822265625
-56.7626953125
-57.67822265625
-64.0869140625
-62.255859375
-61.34033203125
-61.34033203125
-65.00244140625
-66.83349609375
-68.66455078125
-65.00244140625
-57.67822265625
-61.34033203125
-60.4248046875
-59.50927734375
-63.17138671875
-62.255859375
-55.84716796875
-54.01611328125
-56.7626953125
-63.17138671875
-61.34033203125
-62.255859375
-66.83349609375
-68.66455078125
-69.580078125
-66.83349609375
-60.4248046875
-60.4248046875
-58.59375
-54.931640625
-55.84716796875
-63.17138671875
-68.66455078125
-54.931640625
-36.62109375
-23.8037109375
-15.56396484375
-7.32421875
-5.4931640625
-15.56396484375
-20.1416015625
-12.8173828125
2.74658203125
9.1552734375
14.6484375
20.1416015625
19.22607421875
16.4794921875
11.90185546875
7.32421875
2.74658203125
4.57763671875
2.74658203125
5.4931640625
6.40869140625
3.662109375
-3.662109375
-1.8310546875
-10.986328125
-27.4658203125
-36.62109375
-40.283203125
-39.36767578125
-43.02978515625
-45.7763671875
-58.59375
-66.83349609375
-74.15771484375
-79.65087890625
-81.48193359375
-84.228515625
-85.14404296875
-81.48193359375
-74.15771484375
-67.7490234375
-66.83349609375
-66.83349609375
-69.580078125
-71.4111328125
-72.32666015625
-68.66455078125
-71.4111328125
-71.4111328125
-73.2421875
-76.904296875
-75.98876953125
-75.98876953125
-75.98876953125
-75.0732421875
-73.2421875
-73.2421875
-70.49560546875
-71.4111328125
-67.7490234375
-68.66455078125
-70.49560546875
-72.32666015625
-74.15771484375
-73.2421875
-74.15771484375
-80.56640625
-80.56640625
-83.31298828125
-85.14404296875
-94.29931640625
-104.3701171875
-109.86328125
-109.86328125
-98.876953125
-73.2421875
-33.87451171875
21.97265625
112.60986328125
220.64208984375
328.67431640625
451.35498046875
570.37353515625
656.43310546875
754.39453125
874.32861328125
1007.99560546875
1099.54833984375
1123.35205078125
1097.71728515625
946.6552734375
650.93994140625
357.0556640625
125.42724609375
-42.1142578125
-73.2421875
-54.01611328125
-30.21240234375
-25.634765625
2.74658203125
30.21240234375
41.19873046875
40.283203125
30.21240234375
22.88818359375
14.6484375
10.07080078125
-3.662109375
-10.986328125
-13.73291015625
-17.39501953125
-19.22607421875
-22.88818359375
-25.634765625
-22.88818359375
-27.4658203125
-28.38134765625
-27.4658203125
-25.634765625
-25.634765625
-25.634765625
-25.634765625
-26.55029296875
-33.87451171875
-42.1142578125
-40.283203125
-32.04345703125
-29.296875
-24.71923828125
-23.8037109375
-24.71923828125
-28.38134765625
-25.634765625
-24.71923828125
-20.1416015625
-22.88818359375
-26.55029296875
-27.4658203125
-25.634765625
-28.38134765625
-24.71923828125
-21.97265625
-17.39501953125
-13.73291015625
-11.90185546875
-11.90185546875
-10.986328125
-5.4931640625
-8.23974609375
-11.90185546875
-10.07080078125
-13.73291015625
-13.73291015625
-1.8310546875
-4.57763671875
-9.1552734375
-13.73291015625
-15.56396484375
-10.07080078125
-7.32421875
-2.74658203125
3.662109375
8.23974609375
5.4931640625
4.57763671875
4.57763671875
5.4931640625
15.56396484375
20.1416015625
15.56396484375
15.56396484375
18.310546875
18.310546875
18.310546875
15.56396484375
10.07080078125
20.1416015625
22.88818359375
26.55029296875
30.21240234375
32.958984375
42.1142578125
46.69189453125
48.52294921875
47.607421875
48.52294921875
44.86083984375
50.35400390625
55.84716796875
61.34033203125
68.66455078125
75.0732421875
75.0732421875
83.31298828125
92.46826171875
103.45458984375
110.77880859375
115.3564453125
119.0185546875
125.42724609375
128.173828125
132.75146484375
136.41357421875
140.9912109375
141.90673828125
143.73779296875
145.56884765625
154.72412109375
160.21728515625
166.6259765625
162.9638671875
162.9638671875
162.9638671875
169.37255859375
174.86572265625
180.35888671875
180.35888671875
184.02099609375
180.35888671875
178.52783203125
174.86572265625
167.54150390625
166.6259765625
159.3017578125
144.6533203125
139.16015625
133.6669921875
127.25830078125
121.76513671875
113.525390625
108.94775390625
99.79248046875
93.3837890625
85.14404296875
76.904296875
71.4111328125
66.83349609375
54.931640625
50.35400390625
45.7763671875
39.36767578125
32.04345703125
21.97265625
12.8173828125
9.1552734375
10.07080078125
8.23974609375
8.23974609375
6.40869140625
10.986328125
10.986328125
2.74658203125
0
0
1.8310546875
2.74658203125
1.8310546875
0.91552734375
2.74658203125
0.91552734375
-4.57763671875
-1.8310546875
-2.74658203125
-4.57763671875
-6.40869140625
-6.40869140625
-4.57763671875
-4.57763671875
-10.07080078125
-10.07080078125
-1.8310546875
1.8310546875
-3.662109375
-2.74658203125
-1.8310546875
-2.74658203125
-3.662109375
-10.07080078125
-13.73291015625
-15.56396484375
-10.07080078125
-3.662109375
-4.57763671875
8.23974609375
7.32421875
9.1552734375
7.32421875
7.32421875
1.8310546875
1.8310546875
8.23974609375
10.07080078125
7.32421875
12.8173828125
13.73291015625
7.32421875
5.4931640625
10.986328125
7.32421875
1.8310546875
3.662109375
6.40869140625
10.986328125
10.986328125
14.6484375
14.6484375
15.56396484375
10.07080078125
13.73291015625
14.6484375
17.39501953125
13.73291015625
10.986328125
7.32421875
2.74658203125
0.91552734375
2.74658203125
9.1552734375
10.986328125
3.662109375
2.74658203125
4.57763671875
4.57763671875
5.4931640625
8.23974609375
6.40869140625
7.32421875
7.32421875
8.23974609375
2.74658203125
7.32421875
8.23974609375
10.986328125
5.4931640625
0
0.91552734375
0
1.8310546875
1.8310546875
2.74658203125
-0.91552734375
-1.8310546875
1.8310546875
3.662109375
1.8310546875
3.662109375
2.74658203125
0
-2.74658203125
-5.4931640625
-6.40869140625
-7.32421875
-10.986328125
-13.73291015625
-13.73291015625
-8.23974609375
-5.4931640625
-11.90185546875
-15.56396484375
-11.90185546875
-10.986328125
-11.90185546875
-10.07080078125
-12.8173828125
-16.4794921875
-21.05712890625
-21.97265625
-21.05712890625
-15.56396484375
-11.90185546875
-10.986328125
-9.1552734375
-7.32421875
-6.40869140625
-6.40869140625
-6.40869140625
-5.4931640625
-9.1552734375
-9.1552734375
-11.90185546875
-19.22607421875
-21.05712890625
-17.39501953125
-21.05712890625
-21.05712890625
-15.56396484375
-9.1552734375
-6.40869140625
-9.1552734375
-8.23974609375
-6.40869140625
-9.1552734375
-10.07080078125
-12.8173828125
-18.310546875
-15.56396484375
-13.73291015625
-12.8173828125
-18.310546875
-19.22607421875
-17.39501953125
-14.6484375
-13.73291015625
-16.4794921875
-15.56396484375
-20.1416015625
-28.38134765625
-26.55029296875
-23.8037109375
-21.97265625
-20.1416015625
-16.4794921875
-12.8173828125
-16.4794921875
-18.310546875
-15.56396484375
-17.39501953125
-18.310546875
-20.1416015625
-18.310546875
-15.56396484375
-17.39501953125
-25.634765625
-21.97265625
-21.97265625
-23.8037109375
-19.22607421875
-15.56396484375
-13.73291015625
-13.73291015625
-15.56396484375
-18.310546875
-23.8037109375
-27.4658203125
-30.21240234375
-25.634765625
-23.8037109375
-25.634765625
-18.310546875
-11.90185546875
-8.23974609375
-7.32421875
-10.07080078125
-13.73291015625
-16.4794921875
-18.310546875
-17.39501953125
-16.4794921875
-15.56396484375
-17.39501953125
-21.97265625
-19.22607421875
-19.22607421875
-14.6484375
2.74658203125
17.39501953125
23.8037109375
21.05712890625
21.05712890625
12.8173828125
6.40869140625
8.23974609375
24.71923828125
30.21240234375
36.62109375
47.607421875
56.7626953125
54.01611328125
52.18505859375
48.52294921875
45.7763671875
39.36767578125
35.70556640625
41.19873046875
41.19873046875
32.958984375
27.4658203125
26.55029296875
17.39501953125
2.74658203125
-6.40869140625
-6.40869140625
-10.986328125
-16.4794921875
-21.97265625
-21.05712890625
-24.71923828125
-24.71923828125
-28.38134765625
-30.21240234375
-32.958984375
-32.04345703125
-24.71923828125
-31.1279296875
-38.4521484375
-37.53662109375
-34.7900390625
-31.1279296875
-38.4521484375
-40.283203125
-39.36767578125
-41.19873046875
-44.86083984375
-46.69189453125
-44.86083984375
-44.86083984375
-43.02978515625
-46.69189453125
-44.86083984375
-43.9453125
-44.86083984375
-51.26953125
-49.4384765625
-44.86083984375
-44.86083984375
-48.52294921875
-43.9453125
-39.36767578125
-38.4521484375
-41.19873046875
-43.9453125
-43.02978515625
-48.52294921875
-54.01611328125
-59.50927734375
-75.0732421875
-85.14404296875
-85.14404296875
-62.255859375
-29.296875
11.90185546875
75.98876953125
182.18994140625
291.1376953125
407.40966796875
526.42822265625
641.78466796875
729.67529296875
825.8056640625
960.38818359375
1085.8154296875
1152.64892578125
1159.97314453125
1098.6328125
900.87890625
581.35986328125
312.19482421875
78.7353515625
-40.283203125
-46.69189453125
-29.296875
-17.39501953125
-10.986328125
16.4794921875
41.19873046875
43.9453125
39.36767578125
39.36767578125
36.62109375
36.62109375
25.634765625
12.8173828125
7.32421875
6.40869140625
5.4931640625
-4.57763671875
-13.73291015625
-21.05712890625
-27.4658203125
-21.97265625
-28.38134765625
-30.21240234375
-28.38134765625
-20.1416015625
-11.90185546875
-10.07080078125
-9.1552734375
-12.8173828125
-10.986328125
-13.73291015625
-14.6484375
-14.6484375
-9.1552734375
-11.90185546875
-5.4931640625
-1.8310546875
-1.8310546875
-0.91552734375
-3.662109375
-2.74658203125
-14.6484375
-12.8173828125
-8.23974609375
-10.07080078125
-14.6484375
-5.4931640625
-9.1552734375
-14.6484375
-5.4931640625
-6.40869140625
-7.32421875
-3.662109375
-9.1552734375
-10.07080078125
1.8310546875
2.74658203125
0
-4.57763671875
-2.74658203125
2.74658203125
3.662109375
6.40869140625
11.90185546875
16.4794921875
14.6484375
9.1552734375
11.90185546875
13.73291015625
6.40869140625
15.56396484375
23.8037109375
22.88818359375
27.4658203125
30.21240234375
29.296875
27.4658203125
27.4658203125
34.7900390625
32.958984375
38.4521484375
42.1142578125
44.86083984375
52.18505859375
51.26953125
48.52294921875
46.69189453125
43.9453125
49.4384765625
53.1005859375
51.26953125
51.26953125
54.01611328125
58.59375
65.00244140625
74.15771484375
76.904296875
71.4111328125
75.98876953125
85.14404296875
93.3837890625
99.79248046875
93.3837890625
99.79248046875
99.79248046875
98.876953125
108.0322265625
110.77880859375
108.94775390625
120.849609375
129.08935546875
133.6669921875
136.41357421875
143.73779296875
142.822265625
147.39990234375
151.06201171875
152.89306640625
151.9775390625
152.89306640625
155.6396484375
149.23095703125
157.470703125
150.146484375
148.3154296875
154.72412109375
151.06201171875
147.39990234375
135.498046875
132.75146484375
121.76513671875
104.3701171875
103.45458984375
100.7080078125
90.63720703125
78.7353515625
72.32666015625
72.32666015625
61.34033203125
52.18505859375
44.86083984375
36.62109375
32.958984375
30.21240234375
25.634765625
14.6484375
11.90185546875
0
-10.986328125
-16.4794921875
-10.986328125
-19.22607421875
-19.22607421875
-18.310546875
-22.88818359375
-22.88818359375
-31.1279296875
-37.53662109375
-44.86083984375
-46.69189453125
-36.62109375
-43.02978515625
-46.69189453125
-40.283203125
-32.958984375
-29.296875
-31.1279296875
-25.634765625
-20.1416015625
-34.7900390625
-38.4521484375
-30.21240234375
-24.71923828125
-32.04345703125
-32.04345703125
-20.1416015625
-27.4658203125
-34.7900390625
-40.283203125
-37.53662109375
-29.296875
-24.71923828125
-32.04345703125
-20.1416015625
-22.88818359375
-18.310546875
-18.310546875
-29.296875
-38.4521484375
-30.21240234375
-34.7900390625
-21.97265625
-24.71923828125
-28.38134765625
-24.71923828125
-33.87451171875
-37.53662109375
-30.21240234375
-21.05712890625
-27.4658203125
-22.88818359375
-23.8037109375
-28.38134765625
-30.21240234375
-30.21240234375
-27.4658203125
-27.4658203125
-27.4658203125
-32.04345703125
-34.7900390625
-40.283203125
-46.69189453125
-44.86083984375
-38.4521484375
-34.7900390625
-42.1142578125
-30.21240234375
-28.38134765625
-28.38134765625
-34.7900390625
-44.86083984375
-43.02978515625
-41.19873046875
-43.02978515625
-42.1142578125
-43.02978515625
-46.69189453125
-43.9453125
-54.01611328125
-54.01611328125
-48.52294921875
-47.607421875
-45.7763671875
-53.1005859375
-51.26953125
-50.35400390625
-55.84716796875
-54.931640625
-50.35400390625
-58.59375
-49.4384765625
-58.59375
-61.34033203125
-65.00244140625
-52.18505859375
-51.26953125
-57.67822265625
-60.4248046875
-63.17138671875
-61.34033203125
-64.0869140625
-66.83349609375
-62.255859375
-60.4248046875
-57.67822265625
-58.59375
-61.34033203125
-59.50927734375
-74.15771484375
-75.98876953125
-64.0869140625
-51.26953125
-67.7490234375
-71.4111328125
-62.255859375
-66.83349609375
-73.2421875
-70.49560546875
-67.7490234375
-65.00244140625
-62.255859375
-57.67822265625
-65.00244140625
-70.49560546875
-66.83349609375
-65.91796875
-60.4248046875
-65.00244140625
-78.7353515625
-78.7353515625
-69.580078125
-66.83349609375
-75.0732421875
-75.0732421875
-71.4111328125
-73.2421875
-65.00244140625
-65.91796875
-71.4111328125
-69.580078125
-75.0732421875
-77.81982421875
-80.56640625
-79.65087890625
-78.7353515625
-76.904296875
-65.00244140625
-70.49560546875
-79.65087890625
-81.48193359375
-75.98876953125
-77.81982421875
-76.904296875
-81.48193359375
-80.56640625
-70.49560546875
-72.32666015625
-74.15771484375
-77.81982421875
-78.7353515625
-77.81982421875
-76.904296875
-76.904296875
-80.56640625
-83.31298828125
-79.65087890625
-86.0595703125
-78.7353515625
-78.7353515625
-75.0732421875
-69.580078125
-74.15771484375
-74.15771484375
-80.56640625
-87.890625
-94.29931640625
-92.46826171875
-88.80615234375
-78.7353515625
-73.2421875
-73.2421875
-75.0732421875
-72.32666015625
-72.32666015625
-74.15771484375
-80.56640625
-86.97509765625
-80.56640625
-81.48193359375
-77.81982421875
-77.81982421875
-82.3974609375
-88.80615234375
-79.65087890625
-75.0732421875
-82.3974609375
-86.0595703125
-86.97509765625
-84.228515625
-78.7353515625
-63.17138671875
-60.4248046875
-51.26953125
-39.36767578125
-36.62109375
-44.86083984375
-48.52294921875
-46.69189453125
-32.958984375
-23.8037109375
-17.39501953125
-10.986328125
-7.32421875
-9.1552734375
-7.32421875
-9.1552734375
-8.23974609375
-21.05712890625
-26.55029296875
-20.1416015625
-23.8037109375
-29.296875
-23.8037109375
-21.97265625
-30.21240234375
-35.70556640625
-45.7763671875
-58.59375
-65.00244140625
-66.83349609375
-74.15771484375
-72.32666015625
-84.228515625
-93.3837890625
-92.46826171875
-89.7216796875
-89.7216796875
-89.7216796875
-93.3837890625
-88.80615234375
-89.7216796875
-94.29931640625
-95.21484375
-97.0458984375
-99.79248046875
-100.7080078125
-98.876953125
-98.876953125
-101.62353515625
-91.552734375
-89.7216796875
-88.80615234375
-87.890625
-95.21484375
-97.96142578125
-100.7080078125
-101.62353515625
-103.45458984375
-93.3837890625
-86.97509765625
-94.29931640625
-88.80615234375
-86.0595703125
-95.21484375
-97.96142578125
-93.3837890625
-86.0595703125
-94.29931640625
-103.45458984375
-108.94775390625
-120.849609375
-130.92041015625
-127.25830078125
-114.44091796875
-93.3837890625
-65.00244140625
-13.73291015625
55.84716796875
165.71044921875
281.06689453125
397.3388671875
532.8369140625
650.93994140625
736.083984375
834.04541015625
963.134765625
1083.984375
1132.50732421875
1127.9296875
1037.29248046875
812.98828125
484.31396484375
198.66943359375
-28.38134765625
-111.6943359375
-89.7216796875
-65.00244140625
-43.02978515625
-48.52294921875
-35.70556640625
-3.662109375
14.6484375
11.90185546875
6.40869140625
-4.57763671875
-16.4794921875
-27.4658203125
-26.55029296875
-32.04345703125
-32.958984375
-35.70556640625
-42.1142578125
-43.02978515625
-41.19873046875
-34.7900390625
-40.283203125
-44.86083984375
-48.52294921875
-45.7763671875
-46.69189453125
-49.4384765625
-54.931640625
-54.931640625
-54.931640625
-52.18505859375
-53.1005859375
-53.1005859375
-46.69189453125
-44.86083984375
-43.9453125
-51.26953125
-53.1005859375
-47.607421875
-44.86083984375
-45.7763671875
-39.36767578125
-45.7763671875
-43.9453125
-41.19873046875
-33.87451171875
-37.53662109375
-37.53662109375
-32.958984375
-35.70556640625
-32.958984375
-36.62109375
-37.53662109375
-29.296875
-30.21240234375
-21.05712890625
-21.05712890625
-20.1416015625
-18.310546875
-21.97265625
-21.97265625
-21.05712890625
-21.97265625
-20.1416015625
-25.634765625
-22.88818359375
-17.39501953125
-16.4794921875
-13.73291015625
-10.07080078125
-12.8173828125
-12.8173828125
-8.23974609375
-7.32421875
-5.4931640625
-1.8310546875
0
-7.32421875
-8.23974609375
3.662109375
6.40869140625
6.40869140625
0
8.23974609375
8.23974609375
8.23974609375
11.90185546875
14.6484375
19.22607421875
26.55029296875
22.88818359375
30.21240234375
34.7900390625
40.283203125
39.36767578125
41.19873046875
46.69189453125
52.18505859375
51.26953125
57.67822265625
64.0869140625
64.0869140625
66.83349609375
65.91796875
66.83349609375
71.4111328125
78.7353515625
80.56640625
87.890625
88.80615234375
87.890625
89.7216796875
92.46826171875
91.552734375
100.7080078125
108.94775390625
109.86328125
110.77880859375
108.94775390625
110.77880859375
109.86328125
108.0322265625
106.201171875
100.7080078125
100.7080078125
100.7080078125
98.876953125
94.29931640625
90.63720703125
84.228515625
77.81982421875
71.4111328125
68.66455078125
66.83349609375
63.17138671875
58.59375
52.18505859375
39.36767578125
31.1279296875
28.38134765625
18.310546875
6.40869140625
-0.91552734375
-4.57763671875
-5.4931640625
-13.73291015625
-16.4794921875
-16.4794921875
-26.55029296875
-30.21240234375
-33.87451171875
-29.296875
-33.87451171875
-36.62109375
-42.1142578125
-41.19873046875
-49.4384765625
-54.931640625
-56.7626953125
-55.84716796875
-62.255859375
-64.0869140625
-62.255859375
-65.91796875
-67.7490234375
-64.0869140625
-57.67822265625
-49.4384765625
-51.26953125
-59.50927734375
-57.67822265625
-53.1005859375
-52.18505859375
-52.18505859375
-51.26953125
-51.26953125
-53.1005859375
-52.18505859375
-54.931640625
-58.59375
-59.50927734375
-59.50927734375
-59.50927734375
-56.7626953125
-48.52294921875
-47.607421875
-44.86083984375
-43.9453125
-50.35400390625
-49.4384765625
-45.7763671875
-46.69189453125
-49.4384765625
-43.9453125
-42.1142578125
-40.283203125
-42.1142578125
-43.9453125
-49.4384765625
-43.02978515625
-41.19873046875
-44.86083984375
-50.35400390625
-47.607421875
-46.69189453125
-47.607421875
-47.607421875
-45.7763671875
-44.86083984375
-48.52294921875
-54.01611328125
-47.607421875
-42.1142578125
-38.4521484375
-36.62109375
-34.7900390625
-39.36767578125
-42.1142578125
-44.86083984375
-45.7763671875
-48.52294921875
-49.4384765625
-52.18505859375
-54.931640625
-47.607421875
-47.607421875
-48.52294921875
-48.52294921875
-45.7763671875
-48.52294921875
-44.86083984375
-43.9453125
-47.607421875
-43.9453125
-33.87451171875
-40.283203125
-51.26953125
-45.7763671875
-50.35400390625
-56.7626953125
-62.255859375
-54.931640625
-52.18505859375
-54.931640625
-56.7626953125
-63.17138671875
-63.17138671875
-60.4248046875
-62.255859375
-65.00244140625
-64.0869140625
-64.0869140625
-60.4248046875
-62.255859375
-67.7490234375
-68.66455078125
-67.7490234375
-65.91796875
-66.83349609375
-72.32666015625
-65.91796875
-68.66455078125
-72.32666015625
-75.0732421875
-78.7353515625
-75.0732421875
-72.32666015625
-75.0732421875
-82.3974609375
-80.56640625
-78.7353515625
-75.98876953125
-71.4111328125
-72.32666015625
-65.00244140625
-74.15771484375
-79.65087890625
-72.32666015625
-65.91796875
-70.49560546875
-79.65087890625
-83.31298828125
-78.7353515625
-77.81982421875
-83.31298828125
-80.56640625
-80.56640625
-87.890625
-72.32666015625
-61.34033203125
-64.0869140625
-65.00244140625
-75.0732421875
-73.2421875
-72.32666015625
-75.98876953125
-80.56640625
-77.81982421875
-78.7353515625
-79.65087890625
-75.98876953125
-74.15771484375
-77.81982421875
-76.904296875
-78.7353515625
-75.0732421875
-73.2421875
-73.2421875
-84.228515625
-89.7216796875
-86.97509765625
-85.14404296875
-82.3974609375
-82.3974609375
-84.228515625
-82.3974609375
-87.890625
-96.13037109375
-100.7080078125
-96.13037109375
-91.552734375
-83.31298828125
-79.65087890625
-79.65087890625
-82.3974609375
-78.7353515625
-83.31298828125
-86.0595703125
-86.0595703125
-82.3974609375
-76.904296875
-78.7353515625
-84.228515625
-81.48193359375
-77.81982421875
-83.31298828125
-90.63720703125
-90.63720703125
-87.890625
-86.97509765625
-82.3974609375
-80.56640625
-76.904296875
-76.904296875
-77.81982421875
-84.228515625
-76.904296875
-79.65087890625
-85.14404296875
-79.65087890625
-79.65087890625
-84.228515625
-81.48193359375
-78.7353515625
-85.14404296875
-90.63720703125
-93.3837890625
-97.0458984375
-87.890625
-79.65087890625
-70.49560546875
-60.4248046875
-46.69189453125
-39.36767578125
-33.87451171875
-30.21240234375
-38.4521484375
-35.70556640625
-28.38134765625
-29.296875
-25.634765625
-15.56396484375
-16.4794921875
-10.986328125
-6.40869140625
-17.39501953125
-34.7900390625
-32.04345703125
-34.7900390625
-31.1279296875
-27.4658203125
-17.39501953125
-21.97265625
-27.4658203125
-32.958984375
-36.62109375
-44.86083984375
-45.7763671875
-53.1005859375
-62.255859375
-68.66455078125
-75.98876953125
-82.3974609375
-88.80615234375
-89.7216796875
-87.890625
-86.97509765625
-86.0595703125
-88.80615234375
-90.63720703125
-90.63720703125
-88.80615234375
-93.3837890625
-96.13037109375
-93.3837890625
-97.0458984375
-97.0458984375
-97.96142578125
-97.0458984375
-98.876953125
-93.3837890625
-93.3837890625
-99.79248046875
-97.0458984375
-96.13037109375
-97.96142578125
-97.96142578125
-98.876953125
-100.7080078125
-100.7080078125
-97.96142578125
-87.890625
-90.63720703125
-92.46826171875
-92.46826171875
-95.21484375
-97.0458984375
-103.45458984375
-117.1875
-126.3427734375
-130.0048828125
-134.58251953125
-126.3427734375
-103.45458984375
-69.580078125
-24.71923828125
43.9453125
155.6396484375
270.08056640625
392.76123046875
518.1884765625
624.3896484375
714.111328125
821.22802734375
955.810546875
1072.08251953125
1116.943359375
1118.7744140625
1029.052734375
782.77587890625
461.42578125
211.48681640625
-0.91552734375
-75.0732421875
-76.904296875
-55.84716796875
-50.35400390625
-41.19873046875
-0.91552734375
13.73291015625
14.6484375
2.74658203125
-7.32421875
-10.986328125
-15.56396484375
-22.88818359375
-27.4658203125
-35.70556640625
-34.7900390625
-40.283203125
-48.52294921875
-50.35400390625
-57.67822265625
-52.18505859375
-43.9453125
-45.7763671875
-43.02978515625
-33.87451171875
-40.283203125
-48.52294921875
-46.69189453125
-48.52294921875
-44.86083984375
-43.02978515625
-45.7763671875
-49.4384765625
-50.35400390625
-43.02978515625
-37.53662109375
-45.7763671875
-45.7763671875
-52.18505859375
-52.18505859375
-50.35400390625
-51.26953125
-48.52294921875
-41.19873046875
-32.958984375
-36.62109375
-40.283203125
-39.36767578125
-32.958984375
-40.283203125
-42.1142578125
-42.1142578125
-43.9453125
-42.1142578125
-40.283203125
-41.19873046875
-37.53662109375
-36.62109375
-32.958984375
-28.38134765625
-25.634765625
-27.4658203125
-34.7900390625
-41.19873046875
-39.36767578125
-32.958984375
-22.88818359375
-17.39501953125
-17.39501953125
-12.8173828125
-15.56396484375
-10.07080078125
-13.73291015625
-15.56396484375
-13.73291015625
-12.8173828125
-9.1552734375
-5.4931640625
-8.23974609375
-3.662109375
-3.662109375
0.91552734375
2.74658203125
4.57763671875
6.40869140625
5.4931640625
6.40869140625
9.1552734375
18.310546875
20.1416015625
15.56396484375
24.71923828125
31.1279296875
32.04345703125
31.1279296875
37.53662109375
43.9453125
44.86083984375
54.931640625
54.931640625
57.67822265625
57.67822265625
62.255859375
65.91796875
68.66455078125
74.15771484375
76.904296875
83.31298828125
86.97509765625
90.63720703125
100.7080078125
102.5390625
106.201171875
108.0322265625
107.11669921875
107.11669921875
111.6943359375
112.60986328125
110.77880859375
111.6943359375
118.10302734375
120.849609375
124.51171875
130.0048828125
129.08935546875
119.93408203125
116.27197265625
112.60986328125
100.7080078125
91.552734375
89.7216796875
82.3974609375
79.65087890625
75.98876953125
73.2421875
65.00244140625
50.35400390625
43.9453125
36.62109375
24.71923828125
16.4794921875
8.23974609375
0
-8.23974609375
-11.90185546875
-15.56396484375
-21.05712890625
-22.88818359375
-31.1279296875
-31.1279296875
-40.283203125
-42.1142578125
-45.7763671875
-44.86083984375
-46.69189453125
-53.1005859375
-54.01611328125
-54.931640625
-56.7626953125
-59.50927734375
-57.67822265625
-60.4248046875
-64.0869140625
-65.91796875
-65.91796875
-62.255859375
-61.34033203125
-66.83349609375
-71.4111328125
-69.580078125
-63.17138671875
-69.580078125
-70.49560546875
-73.2421875
-71.4111328125
-62.255859375
-54.931640625
-59.50927734375
-62.255859375
-60.4248046875
-59.50927734375
-63.17138671875
-67.7490234375
-65.91796875
-59.50927734375
-60.4248046875
-59.50927734375
-63.17138671875
-59.50927734375
-58.59375
-58.59375
-59.50927734375
-57.67822265625
-61.34033203125
-66.83349609375
-64.0869140625
-57.67822265625
-55.84716796875
-53.1005859375
-54.01611328125
-57.67822265625
-55.84716796875
-51.26953125
-51.26953125
-54.01611328125
-49.4384765625
-49.4384765625
-50.35400390625
-55.84716796875
-57.67822265625
-61.34033203125
-63.17138671875
-60.4248046875
-57.67822265625
-58.59375
-59.50927734375
-62.255859375
-60.4248046875
-57.67822265625
-57.67822265625
-57.67822265625
-53.1005859375
-49.4384765625
-56.7626953125
-57.67822265625
-57.67822265625
-54.01611328125
-60.4248046875
-61.34033203125
-55.84716796875
-59.50927734375
-61.34033203125
-63.17138671875
-62.255859375
-57.67822265625
-55.84716796875
-56.7626953125
-54.01611328125
-56.7626953125
-51.26953125
-54.931640625
-61.34033203125
-60.4248046875
-61.34033203125
-65.00244140625
-66.83349609375
-70.49560546875
-66.83349609375
-67.7490234375
-65.00244140625
-64.0869140625
-66.83349609375
-69.580078125
-68.66455078125
-66.83349609375
-73.2421875
-75.0732421875
-70.49560546875
-74.15771484375
-71.4111328125
-73.2421875
-72.32666015625
-68.66455078125
-64.0869140625
-65.00244140625
-69.580078125
-65.91796875
-67.7490234375
-73.2421875
-72.32666015625
-78.7353515625
-78.7353515625
-79.65087890625
-75.98876953125
-78.7353515625
-83.31298828125
-76.904296875
-74.15771484375
-85.14404296875
-89.7216796875
-88.80615234375
-88.80615234375
-81.48193359375
-82.3974609375
-77.81982421875
-73.2421875
-77.81982421875
-75.0732421875
-75.0732421875
-74.15771484375
-76.904296875
-77.81982421875
-77.81982421875
-77.81982421875
-75.0732421875
-73.2421875
-75.98876953125
-80.56640625
-77.81982421875
-74.15771484375
-74.15771484375
-76.904296875
-76.904296875
-77.81982421875
-78.7353515625
-81.48193359375
-84.228515625
-86.0595703125
-86.0595703125
-85.14404296875
-86.97509765625
-83.31298828125
-75.98876953125
-76.904296875
-75.0732421875
-76.904296875
-74.15771484375
-75.0732421875
-76.904296875
-80.56640625
-76.904296875
-77.81982421875
-79.65087890625
-83.31298828125
-80.56640625
-82.3974609375
-82.3974609375
-84.228515625
-86.0595703125
-82.3974609375
-84.228515625
-85.14404296875
-86.0595703125
-85.14404296875
-83.31298828125
-80.56640625
-78.7353515625
-81.48193359375
-82.3974609375
-79.65087890625
-80.56640625
-79.65087890625
-83.31298828125
-83.31298828125
-77.81982421875
-80.56640625
-78.7353515625
-78.7353515625
-79.65087890625
-87.890625
-85.14404296875
-81.48193359375
-80.56640625
-78.7353515625
-76.904296875
-72.32666015625
-75.98876953125
-73.2421875
-69.580078125
-74.15771484375
-75.0732421875
-76.904296875
-72.32666015625
-61.34033203125
-54.01611328125
-54.01611328125
-48.52294921875
-46.69189453125
-43.02978515625
-47.607421875
-50.35400390625
-31.1279296875
-24.71923828125
-21.05712890625
-6.40869140625
-0.91552734375
-5.4931640625
-0.91552734375
-7.32421875
-10.986328125
-3.662109375
-5.4931640625
-6.40869140625
-7.32421875
-12.8173828125
-17.39501953125
-21.05712890625
-35.70556640625
-47.607421875
-50.35400390625
-57.67822265625
-60.4248046875
-67.7490234375
-72.32666015625
-76.904296875
-80.56640625
-85.14404296875
-88.80615234375
-86.97509765625
-93.3837890625
-94.29931640625
-97.96142578125
-100.7080078125
-98.876953125
-100.7080078125
-97.96142578125
-96.13037109375
-96.13037109375
-92.46826171875
-95.21484375
-105.28564453125
-110.77880859375
-108.0322265625
-101.62353515625
-100.7080078125
-100.7080078125
-94.29931640625
-86.97509765625
-96.13037109375
-96.13037109375
-98.876953125
-105.28564453125
-101.62353515625
-99.79248046875
-100.7080078125
-97.0458984375
-92.46826171875
-92.46826171875
-99.79248046875
-103.45458984375
-101.62353515625
-110.77880859375
-124.51171875
-134.58251953125
-134.58251953125
-129.08935546875
-115.3564453125
-89.7216796875
-46.69189453125
21.05712890625
130.0048828125
245.361328125
359.80224609375
496.2158203125
610.65673828125
694.88525390625
797.42431640625
933.837890625
1060.1806640625
1128.84521484375
1129.7607421875
1062.92724609375
847.7783203125
520.93505859375
254.5166015625
14.6484375
-97.96142578125
-94.29931640625
-65.91796875
-56.7626953125
-65.00244140625
-37.53662109375
-7.32421875
1.8310546875
-0.91552734375
-7.32421875
-19.22607421875
-23.8037109375
-27.4658203125
-43.9453125
-43.02978515625
-44.86083984375
-50.35400390625
-48.52294921875
-48.52294921875
-52.18505859375
-54.01611328125
-55.84716796875
-58.59375
-66.83349609375
-63.17138671875
-63.17138671875
-55.84716796875
-52.18505859375
-58.59375
-59.50927734375
-63.17138671875
-65.91796875
-63.17138671875
-62.255859375
-62.255859375
-62.255859375
-58.59375
-60.4248046875
-64.0869140625
-54.931640625
-52.18505859375
-49.4384765625
-54.931640625
-59.50927734375
-58.59375
-58.59375
-57.67822265625
-52.18505859375
-57.67822265625
-54.931640625
-48.52294921875
-43.9453125
-49.4384765625
-55.84716796875
-54.931640625
-46.69189453125
-42.1142578125
-42.1142578125
-43.9453125
-46.69189453125
-38.4521484375
-36.62109375
-39.36767578125
