ECG
-104.3701171875
-110.77880859375
-113.525390625
-128.173828125
-146.484375
-151.06201171875
-156.55517578125
-161.1328125
-162.04833984375
-158.38623046875
-159.3017578125
-153.80859375
-151.9775390625
-163.87939453125
-175.78125
-172.119140625
-171.20361328125
-171.20361328125
-165.71044921875
-168.45703125
-179.443359375
-172.119140625
-170.2880859375
-156.55517578125
-165.71044921875
-161.1328125
-155.6396484375
-158.38623046875
-159.3017578125
-165.71044921875
-173.9501953125
-170.2880859375
-168.45703125
-169.37255859375
-176.69677734375
-178.52783203125
-179.443359375
-182.18994140625
-186.767578125
-180.35888671875
-176.69677734375
-192.2607421875
-194.091796875
-187.68310546875
-207.82470703125
-243.5302734375
-273.74267578125
-276.4892578125
-251.77001953125
-209.65576171875
-184.9365234375
-131.8359375
-72.32666015625
-2.74658203125
78.7353515625
144.6533203125
219.7265625
309.4482421875
422.05810546875
528.25927734375
661.92626953125
744.32373046875
730.5908203125
631.7138671875
476.98974609375
355.224609375
318.603515625
251.77001953125
145.56884765625
61.34033203125
0
-50.35400390625
-93.3837890625
-113.525390625
-120.849609375
-119.0185546875
-97.96142578125
-78.7353515625
-75.98876953125
-73.2421875
-66.83349609375
-65.00244140625
-65.91796875
-77.81982421875
-80.56640625
-90.63720703125
-104.3701171875
-108.0322265625
-119.0185546875
-110.77880859375
-108.0322265625
-98.876953125
-103.45458984375
-110.77880859375
-115.3564453125
-127.25830078125
-124.51171875
-123.59619140625
-111.6943359375
-102.5390625
-98.876953125
-97.96142578125
-96.13037109375
-102.5390625
-104.3701171875
-108.94775390625
-114.44091796875
-113.525390625
-112.60986328125
-105.28564453125
-106.201171875
-111.6943359375
-114.44091796875
-94.29931640625
-91.552734375
-97.0458984375
-89.7216796875
-95.21484375
-93.3837890625
-93.3837890625
-87.890625
-75.98876953125
-73.2421875
-72.32666015625
-77.81982421875
-81.48193359375
-84.228515625
-85.14404296875
-72.32666015625
-66.83349609375
-72.32666015625
-74.15771484375
-76.904296875
-71.4111328125
-72.32666015625
-65.91796875
-59.50927734375
-52.18505859375
-57.67822265625
-65.91796875
-64.0869140625
-65.00244140625
-60.4248046875
-51.26953125
-51.26953125
-48.52294921875
-49.4384765625
-54.931640625
-51.26953125
-45.7763671875
-43.9453125
-44.86083984375
-40.283203125
-43.02978515625
-41.19873046875
-36.62109375
-30.21240234375
-23.8037109375
-25.634765625
-34.7900390625
-22.88818359375
-34.7900390625
-21.97265625
4.57763671875
2.74658203125
-2.74658203125
6.40869140625
17.39501953125
23.8037109375
20.1416015625
21.05712890625
15.56396484375
15.56396484375
10.986328125
18.310546875
25.634765625
24.71923828125
27.4658203125
45.7763671875
65.91796875
69.580078125
72.32666015625
75.0732421875
77.81982421875
72.32666015625
76.904296875
95.21484375
102.5390625
108.94775390625
108.0322265625
102.5390625
105.28564453125
101.62353515625
108.94775390625
110.77880859375
108.0322265625
98.876953125
103.45458984375
95.21484375
78.7353515625
71.4111328125
64.0869140625
63.17138671875
47.607421875
35.70556640625
24.71923828125
4.57763671875
2.74658203125
2.74658203125
-11.90185546875
-30.21240234375
-47.607421875
-54.01611328125
-53.1005859375
-49.4384765625
-48.52294921875
-48.52294921875
-60.4248046875
-62.255859375
-77.81982421875
-97.96142578125
-103.45458984375
-113.525390625
-120.849609375
-118.10302734375
-123.59619140625
-119.0185546875
-114.44091796875
-112.60986328125
-117.1875
-118.10302734375
-122.6806640625
-137.3291015625
-133.6669921875
-131.8359375
-131.8359375
-136.41357421875
-131.8359375
-130.0048828125
-142.822265625
-141.90673828125
-138.24462890625
-137.3291015625
-140.07568359375
-140.07568359375
-129.08935546875
-123.59619140625
-132.75146484375
-135.498046875
-133.6669921875
-123.59619140625
-127.25830078125
-138.24462890625
-137.3291015625
-138.24462890625
-135.498046875
-136.41357421875
-140.07568359375
-143.73779296875
-124.51171875
-121.76513671875
-119.93408203125
-110.77880859375
-115.3564453125
-119.93408203125
-122.6806640625
-122.6806640625
-114.44091796875
-109.86328125
-118.10302734375
-120.849609375
-123.59619140625
-115.3564453125
-133.6669921875
-130.92041015625
-133.6669921875
-121.76513671875
-119.93408203125
-116.27197265625
-115.3564453125
-116.27197265625
-112.60986328125
-118.10302734375
-120.849609375
-120.849609375
-116.27197265625
-119.0185546875
-128.173828125
-130.92041015625
-135.498046875
-126.3427734375
-113.525390625
-120.849609375
-125.42724609375
-122.6806640625
-119.93408203125
-119.93408203125
-110.77880859375
-111.6943359375
-119.0185546875
-120.849609375
-123.59619140625
-133.6669921875
-130.0048828125
-135.498046875
-139.16015625
-130.92041015625
-131.8359375
-130.92041015625
-129.08935546875
-119.93408203125
-124.51171875
-127.25830078125
-123.59619140625
-128.173828125
-129.08935546875
-130.0048828125
-130.0048828125
-124.51171875
-130.92041015625
-136.41357421875
-140.9912109375
-133.6669921875
-133.6669921875
-138.24462890625
-139.16015625
-143.73779296875
-141.90673828125
-139.16015625
-134.58251953125
-139.16015625
-147.39990234375
-151.06201171875
-140.9912109375
-141.90673828125
-151.9775390625
-142.822265625
-134.58251953125
-134.58251953125
-129.08935546875
-131.8359375
-135.498046875
-136.41357421875
-138.24462890625
-138.24462890625
-141.90673828125
-143.73779296875
-141.90673828125
-140.07568359375
-144.6533203125
-142.822265625
-143.73779296875
-151.9775390625
-152.89306640625
-144.6533203125
-130.0048828125
-129.08935546875
-124.51171875
-126.3427734375
-140.9912109375
-149.23095703125
-147.39990234375
-140.07568359375
-145.56884765625
-144.6533203125
-140.07568359375
-139.16015625
-140.9912109375
-145.56884765625
-140.9912109375
-150.146484375
-158.38623046875
-147.39990234375
-144.6533203125
-139.16015625
-145.56884765625
-146.484375
-143.73779296875
-135.498046875
-137.3291015625
-143.73779296875
-145.56884765625
-133.6669921875
-128.173828125
-139.16015625
-135.498046875
-134.58251953125
-140.9912109375
-143.73779296875
-145.56884765625
-148.3154296875
-144.6533203125
-135.498046875
-140.07568359375
-125.42724609375
-120.849609375
-117.1875
-112.60986328125
-103.45458984375
-97.0458984375
-92.46826171875
-92.46826171875
-101.62353515625
-107.11669921875
-97.96142578125
-86.97509765625
-91.552734375
-84.228515625
-73.2421875
-65.00244140625
-65.91796875
-69.580078125
-80.56640625
-97.96142578125
-92.46826171875
-65.91796875
-65.00244140625
-65.91796875
-66.83349609375
-81.48193359375
-82.3974609375
-84.228515625
-75.98876953125
-75.0732421875
-72.32666015625
-84.228515625
-99.79248046875
-106.201171875
-103.45458984375
-116.27197265625
-118.10302734375
-127.25830078125
-137.3291015625
-146.484375
-158.38623046875
-162.04833984375
-155.6396484375
-155.6396484375
-158.38623046875
-164.794921875
-152.89306640625
-140.9912109375
-147.39990234375
-140.9912109375
-132.75146484375
-135.498046875
-136.41357421875
-143.73779296875
-138.24462890625
-149.23095703125
-159.3017578125
-159.3017578125
-173.03466796875
-172.119140625
-166.6259765625
-157.470703125
-168.45703125
-173.03466796875
-171.20361328125
-183.10546875
-174.86572265625
-181.2744140625
-177.6123046875
-169.37255859375
-164.794921875
-160.21728515625
-157.470703125
-162.04833984375
-170.2880859375
-177.6123046875
-195.00732421875
-242.61474609375
-277.40478515625
-304.87060546875
-286.56005859375
-238.95263671875
-210.5712890625
-162.9638671875
-115.3564453125
-65.00244140625
11.90185546875
100.7080078125
183.10546875
257.26318359375
372.61962890625
491.63818359375
613.4033203125
718.68896484375
765.380859375
711.36474609375
577.69775390625
415.6494140625
342.4072265625
282.89794921875
182.18994140625
85.14404296875
10.07080078125
-40.283203125
-70.49560546875
-93.3837890625
-111.6943359375
-121.76513671875
-109.86328125
-85.14404296875
-78.7353515625
-82.3974609375
-68.66455078125
-58.59375
-69.580078125
-86.0595703125
-92.46826171875
-99.79248046875
-108.0322265625
-108.94775390625
-108.94775390625
-112.60986328125
-116.27197265625
-122.6806640625
-114.44091796875
-110.77880859375
-127.25830078125
-130.92041015625
-126.3427734375
-124.51171875
-121.76513671875
-116.27197265625
-114.44091796875
-110.77880859375
-114.44091796875
-118.10302734375
-111.6943359375
-109.86328125
-119.0185546875
-112.60986328125
-121.76513671875
-129.08935546875
-133.6669921875
-135.498046875
-128.173828125
-121.76513671875
-116.27197265625
-109.86328125
-112.60986328125
-114.44091796875
-114.44091796875
-121.76513671875
-128.173828125
-111.6943359375
-109.86328125
-99.79248046875
-105.28564453125
-119.0185546875
-115.3564453125
-116.27197265625
-112.60986328125
-108.0322265625
-108.94775390625
-101.62353515625
-83.31298828125
-86.0595703125
-91.552734375
-94.29931640625
-91.552734375
-87.890625
-85.14404296875
-79.65087890625
-72.32666015625
-84.228515625
-79.65087890625
-79.65087890625
-68.66455078125
-65.91796875
-69.580078125
-63.17138671875
-59.50927734375
-58.59375
-63.17138671875
-60.4248046875
-61.34033203125
-48.52294921875
-45.7763671875
-51.26953125
-51.26953125
-50.35400390625
-53.1005859375
-44.86083984375
-39.36767578125
-27.4658203125
-15.56396484375
-14.6484375
-16.4794921875
-21.97265625
-17.39501953125
-10.986328125
-11.90185546875
-7.32421875
-14.6484375
-12.8173828125
-11.90185546875
-9.1552734375
-3.662109375
9.1552734375
10.986328125
21.05712890625
41.19873046875
39.36767578125
38.4521484375
47.607421875
40.283203125
37.53662109375
40.283203125
47.607421875
51.26953125
48.52294921875
52.18505859375
43.02978515625
45.7763671875
47.607421875
54.931640625
67.7490234375
75.0732421875
73.2421875
75.98876953125
69.580078125
64.0869140625
64.0869140625
54.931640625
38.4521484375
36.62109375
32.04345703125
24.71923828125
19.22607421875
12.8173828125
2.74658203125
6.40869140625
1.8310546875
-10.07080078125
-30.21240234375
-53.1005859375
-58.59375
-77.81982421875
-81.48193359375
-83.31298828125
-101.62353515625
-104.3701171875
-114.44091796875
-125.42724609375
-124.51171875
-126.3427734375
-135.498046875
-130.0048828125
-136.41357421875
-140.9912109375
-144.6533203125
-150.146484375
-156.55517578125
-156.55517578125
-149.23095703125
-157.470703125
-161.1328125
-155.6396484375
-158.38623046875
-158.38623046875
-158.38623046875
-151.9775390625
-146.484375
-162.04833984375
-165.71044921875
-164.794921875
-168.45703125
-168.45703125
-170.2880859375
-163.87939453125
-155.6396484375
-164.794921875
-168.45703125
-166.6259765625
-160.21728515625
-169.37255859375
-174.86572265625
-168.45703125
-168.45703125
-163.87939453125
-162.9638671875
-167.54150390625
-167.54150390625
-160.21728515625
-156.55517578125
-160.21728515625
-159.3017578125
-151.06201171875
-156.55517578125
-160.21728515625
-156.55517578125
-159.3017578125
-159.3017578125
-164.794921875
-157.470703125
-154.72412109375
-162.04833984375
-165.71044921875
-162.04833984375
-173.03466796875
-171.20361328125
-151.9775390625
-141.90673828125
-138.24462890625
-144.6533203125
-151.9775390625
-157.470703125
-170.2880859375
-172.119140625
-164.794921875
-160.21728515625
-159.3017578125
-155.6396484375
-150.146484375
-146.484375
-155.6396484375
-169.37255859375
-165.71044921875
-167.54150390625
-177.6123046875
-175.78125
-168.45703125
-167.54150390625
-163.87939453125
-162.9638671875
-156.55517578125
-160.21728515625
-170.2880859375
-173.9501953125
-170.2880859375
-169.37255859375
-175.78125
-182.18994140625
-174.86572265625
-166.6259765625
-168.45703125
-166.6259765625
-165.71044921875
-172.119140625
-179.443359375
-177.6123046875
-173.03466796875
-165.71044921875
-177.6123046875
-189.51416015625
-184.02099609375
-180.35888671875
-181.2744140625
-176.69677734375
-177.6123046875
-186.767578125
-192.2607421875
-191.34521484375
-183.10546875
-181.2744140625
-184.02099609375
-184.02099609375
-183.10546875
-190.4296875
-187.68310546875
-187.68310546875
-189.51416015625
-195.9228515625
-191.34521484375
-189.51416015625
-187.68310546875
-183.10546875
-173.9501953125
-166.6259765625
-172.119140625
-185.85205078125
-180.35888671875
-186.767578125
-189.51416015625
-201.416015625
-195.9228515625
-191.34521484375
-191.34521484375
-204.16259765625
-200.50048828125
-196.83837890625
-193.17626953125
-192.2607421875
-183.10546875
-181.2744140625
-185.85205078125
-186.767578125
-182.18994140625
-189.51416015625
-188.5986328125
-191.34521484375
-187.68310546875
-199.5849609375
-206.9091796875
-216.064453125
-214.2333984375
-205.078125
-194.091796875
-192.2607421875
-193.17626953125
-191.34521484375
-192.2607421875
-195.00732421875
-196.83837890625
-195.9228515625
-197.75390625
-205.99365234375
-202.33154296875
-178.52783203125
-169.37255859375
-165.71044921875
-157.470703125
-172.119140625
-180.35888671875
-180.35888671875
-184.02099609375
-174.86572265625
-156.55517578125
-143.73779296875
-132.75146484375
-133.6669921875
-134.58251953125
-129.08935546875
-141.90673828125
-143.73779296875
-151.06201171875
-151.9775390625
-147.39990234375
-136.41357421875
-119.0185546875
-110.77880859375
-101.62353515625
-101.62353515625
-104.3701171875
-106.201171875
-115.3564453125
-123.59619140625
-138.24462890625
-130.0048828125
-111.6943359375
-108.0322265625
-110.77880859375
-109.86328125
-120.849609375
-139.16015625
-140.07568359375
-151.06201171875
-162.9638671875
-179.443359375
-178.52783203125
-186.767578125
-189.51416015625
-191.34521484375
-202.33154296875
-217.8955078125
-213.31787109375
-202.33154296875
-195.00732421875
-200.50048828125
-195.9228515625
-201.416015625
-198.66943359375
-200.50048828125
-206.9091796875
-205.99365234375
-212.40234375
-210.5712890625
-206.9091796875
-203.2470703125
-206.9091796875
-196.83837890625
-206.9091796875
-216.064453125
-216.97998046875
-221.5576171875
-222.47314453125
-212.40234375
-208.740234375
-206.9091796875
-209.65576171875
-208.740234375
-212.40234375
-218.81103515625
-233.45947265625
-240.78369140625
-239.8681640625
-238.95263671875
-237.12158203125
-238.037109375
-256.34765625
-284.72900390625
-309.4482421875
-331.4208984375
-321.35009765625
-289.306640625
-256.34765625
-213.31787109375
-154.72412109375
-106.201171875
-28.38134765625
46.69189453125
126.3427734375
202.33154296875
316.7724609375
447.69287109375
557.55615234375
666.50390625
705.87158203125
664.6728515625
536.4990234375
368.0419921875
285.64453125
238.95263671875
161.1328125
49.4384765625
-20.1416015625
-72.32666015625
-101.62353515625
-135.498046875
-154.72412109375
-160.21728515625
-162.9638671875
-143.73779296875
-130.92041015625
-130.0048828125
-120.849609375
-117.1875
-115.3564453125
-128.173828125
-141.90673828125
-145.56884765625
-148.3154296875
-157.470703125
-167.54150390625
-160.21728515625
-159.3017578125
-158.38623046875
-162.9638671875
-160.21728515625
-158.38623046875
-175.78125
-184.9365234375
-177.6123046875
-170.2880859375
-167.54150390625
-164.794921875
-155.6396484375
-155.6396484375
-156.55517578125
-158.38623046875
-161.1328125
-159.3017578125
-162.04833984375
-160.21728515625
-172.119140625
-175.78125
-165.71044921875
-154.72412109375
-141.90673828125
-130.0048828125
-126.3427734375
-129.08935546875
-128.173828125
-138.24462890625
-149.23095703125
-139.16015625
-129.08935546875
-132.75146484375
-137.3291015625
-139.16015625
-148.3154296875
-151.06201171875
-143.73779296875
-134.58251953125
-149.23095703125
-146.484375
-135.498046875
-130.92041015625
-129.08935546875
-112.60986328125
-109.86328125
-107.11669921875
-107.11669921875
-111.6943359375
-120.849609375
-125.42724609375
-126.3427734375
-124.51171875
-121.76513671875
-110.77880859375
-91.552734375
-102.5390625
-108.94775390625
-99.79248046875
-97.96142578125
-87.890625
-93.3837890625
-87.890625
-82.3974609375
-86.0595703125
-89.7216796875
-89.7216796875
-83.31298828125
-78.7353515625
-74.15771484375
-57.67822265625
-56.7626953125
-44.86083984375
-43.9453125
-43.02978515625
-34.7900390625
-35.70556640625
-36.62109375
-33.87451171875
-24.71923828125
-19.22607421875
-19.22607421875
-24.71923828125
-20.1416015625
-13.73291015625
-8.23974609375
-9.1552734375
0
1.8310546875
1.8310546875
4.57763671875
14.6484375
25.634765625
31.1279296875
24.71923828125
17.39501953125
32.04345703125
32.04345703125
22.88818359375
22.88818359375
30.21240234375
32.958984375
21.05712890625
20.1416015625
32.04345703125
36.62109375
34.7900390625
30.21240234375
26.55029296875
10.986328125
1.8310546875
12.8173828125
13.73291015625
4.57763671875
-1.8310546875
-12.8173828125
-18.310546875
-46.69189453125
-59.50927734375
-68.66455078125
-78.7353515625
-83.31298828125
-83.31298828125
-94.29931640625
-101.62353515625
-116.27197265625
-119.93408203125
-126.3427734375
-140.07568359375
-142.822265625
-148.3154296875
-150.146484375
-146.484375
-148.3154296875
-144.6533203125
-151.06201171875
-169.37255859375
-173.03466796875
-188.5986328125
-194.091796875
-194.091796875
-192.2607421875
-193.17626953125
-190.4296875
-184.9365234375
-190.4296875
-187.68310546875
-193.17626953125
-196.83837890625
-194.091796875
-201.416015625
-196.83837890625
-186.767578125
-185.85205078125
-190.4296875
-191.34521484375
-188.5986328125
-188.5986328125
-179.443359375
-173.03466796875
-182.18994140625
-195.9228515625
-213.31787109375
-205.078125
-199.5849609375
-195.9228515625
-199.5849609375
-194.091796875
-191.34521484375
-188.5986328125
-183.10546875
-177.6123046875
-174.86572265625
-163.87939453125
-158.38623046875
-170.2880859375
-175.78125
-177.6123046875
-174.86572265625
-185.85205078125
-195.00732421875
-188.5986328125
-180.35888671875
-173.9501953125
-184.02099609375
-184.9365234375
-178.52783203125
-182.18994140625
-177.6123046875
-176.69677734375
-172.119140625
-179.443359375
-189.51416015625
-191.34521484375
-173.03466796875
-170.2880859375
-162.9638671875
-155.6396484375
-157.470703125
-156.55517578125
-159.3017578125
-170.2880859375
-174.86572265625
-166.6259765625
-166.6259765625
-177.6123046875
-184.02099609375
-178.52783203125
-174.86572265625
-175.78125
-179.443359375
-189.51416015625
-197.75390625
-187.68310546875
-192.2607421875
-197.75390625
-191.34521484375
-183.10546875
-185.85205078125
-190.4296875
-179.443359375
-174.86572265625
-183.10546875
-185.85205078125
-185.85205078125
-182.18994140625
-183.10546875
-188.5986328125
-194.091796875
-200.50048828125
-202.33154296875
-197.75390625
-200.50048828125
-198.66943359375
-198.66943359375
-203.2470703125
-197.75390625
-193.17626953125
-182.18994140625
-183.10546875
-184.9365234375
-181.2744140625
-185.85205078125
-184.02099609375
-176.69677734375
-178.52783203125
-196.83837890625
-203.2470703125
-201.416015625
-204.16259765625
-202.33154296875
-200.50048828125
-208.740234375
-209.65576171875
-210.5712890625
-203.2470703125
-206.9091796875
-211.48681640625
-214.2333984375
-216.064453125
-216.97998046875
-208.740234375
-194.091796875
-187.68310546875
-188.5986328125
-199.5849609375
-199.5849609375
-204.16259765625
-191.34521484375
-185.85205078125
-195.9228515625
-204.16259765625
-204.16259765625
-198.66943359375
-196.83837890625
-198.66943359375
-197.75390625
-195.00732421875
-205.99365234375
-203.2470703125
-196.83837890625
-204.16259765625
-207.82470703125
-206.9091796875
-203.2470703125
-201.416015625
-201.416015625
-194.091796875
-202.33154296875
-205.078125
-205.99365234375
-207.82470703125
-209.65576171875
-202.33154296875
-190.4296875
-195.9228515625
-192.2607421875
-196.83837890625
-212.40234375
-205.99365234375
-205.078125
-204.16259765625
-206.9091796875
-198.66943359375
-206.9091796875
-216.97998046875
-209.65576171875
-209.65576171875
-200.50048828125
-193.17626953125
-196.83837890625
-212.40234375
-207.82470703125
-206.9091796875
-199.5849609375
-184.9365234375
-174.86572265625
-153.80859375
-146.484375
-145.56884765625
-146.484375
-158.38623046875
-162.04833984375
-158.38623046875
-153.80859375
-159.3017578125
-157.470703125
-144.6533203125
-135.498046875
-118.10302734375
-114.44091796875
-130.0048828125
-128.173828125
-124.51171875
-124.51171875
-122.6806640625
-116.27197265625
-121.76513671875
-126.3427734375
-122.6806640625
-122.6806640625
-121.76513671875
-130.0048828125
-144.6533203125
-160.21728515625
-162.04833984375
-171.20361328125
-181.2744140625
-194.091796875
-192.2607421875
-191.34521484375
-195.00732421875
-191.34521484375
-200.50048828125
-205.99365234375
-196.83837890625
-194.091796875
-188.5986328125
-188.5986328125
-192.2607421875
-195.00732421875
-202.33154296875
-207.82470703125
-211.48681640625
-212.40234375
-212.40234375
-213.31787109375
-209.65576171875
-216.064453125
-207.82470703125
-197.75390625
-209.65576171875
-209.65576171875
-219.7265625
-225.2197265625
-224.30419921875
-216.064453125
-210.5712890625
-224.30419921875
-225.2197265625
-219.7265625
-207.82470703125
-216.064453125
-213.31787109375
-210.5712890625
-204.16259765625
-209.65576171875
-221.5576171875
-235.29052734375
-267.333984375
-302.1240234375
-335.0830078125
-331.4208984375
-303.03955078125
-258.1787109375
-221.5576171875
-161.1328125
-104.3701171875
-46.69189453125
23.8037109375
97.96142578125
174.86572265625
268.24951171875
385.43701171875
500.79345703125
607.91015625
693.05419921875
693.9697265625
611.572265625
452.2705078125
325.927734375
276.4892578125
194.091796875
92.46826171875
10.07080078125
-47.607421875
-99.79248046875
-120.849609375
-131.8359375
-140.07568359375
-144.6533203125
-123.59619140625
-108.0322265625
-113.525390625
-111.6943359375
-108.0322265625
-114.44091796875
-117.1875
-127.25830078125
-137.3291015625
-148.3154296875
-156.55517578125
-157.470703125
-154.72412109375
-141.90673828125
-136.41357421875
-147.39990234375
-152.89306640625
-150.146484375
-148.3154296875
-148.3154296875
-145.56884765625
-151.06201171875
-157.470703125
-152.89306640625
-148.3154296875
-166.6259765625
-178.52783203125
-175.78125
-164.794921875
-149.23095703125
-134.58251953125
-127.25830078125
-128.173828125
-127.25830078125
-136.41357421875
-137.3291015625
-141.90673828125
-141.90673828125
-136.41357421875
-140.9912109375
-139.16015625
-135.498046875
-130.92041015625
-130.92041015625
-123.59619140625
-119.93408203125
-116.27197265625
-113.525390625
-118.10302734375
-117.1875
-121.76513671875
-122.6806640625
-125.42724609375
-123.59619140625
-129.08935546875
-122.6806640625
-117.1875
-112.60986328125
-108.94775390625
-110.77880859375
-103.45458984375
-95.21484375
-103.45458984375
-112.60986328125
-105.28564453125
-100.7080078125
-100.7080078125
-100.7080078125
-93.3837890625
-93.3837890625
-86.0595703125
-83.31298828125
-73.2421875
-76.904296875
-76.904296875
-80.56640625
-78.7353515625
-83.31298828125
-75.98876953125
-77.81982421875
-75.0732421875
-69.580078125
-62.255859375
-54.01611328125
-50.35400390625
-51.26953125
-42.1142578125
-28.38134765625
-21.05712890625
-15.56396484375
-19.22607421875
-16.4794921875
-31.1279296875
-38.4521484375
-22.88818359375
-11.90185546875
0
13.73291015625
23.8037109375
17.39501953125
16.4794921875
16.4794921875
14.6484375
13.73291015625
12.8173828125
11.90185546875
22.88818359375
36.62109375
40.283203125
54.931640625
60.4248046875
53.1005859375
45.7763671875
47.607421875
46.69189453125
49.4384765625
57.67822265625
60.4248046875
49.4384765625
47.607421875
54.931640625
49.4384765625
57.67822265625
59.50927734375
51.26953125
40.283203125
23.8037109375
8.23974609375
7.32421875
0.91552734375
-13.73291015625
-21.97265625
-25.634765625
-29.296875
-50.35400390625
-54.931640625
-69.580078125
-77.81982421875
-89.7216796875
-98.876953125
-94.29931640625
-101.62353515625
-105.28564453125
-109.86328125
-123.59619140625
-133.6669921875
-138.24462890625
-134.58251953125
-131.8359375
-149.23095703125
-152.89306640625
-157.470703125
-156.55517578125
-144.6533203125
-155.6396484375
-162.04833984375
-165.71044921875
-160.21728515625
-156.55517578125
-151.9775390625
-157.470703125
-165.71044921875
-172.119140625
-162.9638671875
-160.21728515625
-167.54150390625
-182.18994140625
-186.767578125
-181.2744140625
-161.1328125
-162.9638671875
-169.37255859375
-158.38623046875
-161.1328125
-162.9638671875
-167.54150390625
-169.37255859375
-165.71044921875
-165.71044921875
-163.87939453125
-167.54150390625
-170.2880859375
-177.6123046875
-178.52783203125
-171.20361328125
-174.86572265625
-173.03466796875
-171.20361328125
-171.20361328125
-161.1328125
-151.9775390625
-148.3154296875
-151.06201171875
-146.484375
-158.38623046875
-160.21728515625
-154.72412109375
-149.23095703125
-148.3154296875
-146.484375
-149.23095703125
-151.06201171875
-148.3154296875
-146.484375
-140.9912109375
-150.146484375
-149.23095703125
-157.470703125
-160.21728515625
-161.1328125
-154.72412109375
-169.37255859375
-164.794921875
-150.146484375
-156.55517578125
-151.9775390625
-144.6533203125
-146.484375
-155.6396484375
-149.23095703125
-138.24462890625
-144.6533203125
-140.9912109375
-150.146484375
-154.72412109375
-164.794921875
-162.9638671875
-155.6396484375
-156.55517578125
-163.87939453125
-166.6259765625
-160.21728515625
-157.470703125
-165.71044921875
-167.54150390625
-163.87939453125
-154.72412109375
-151.9775390625
-154.72412109375
-153.80859375
-149.23095703125
-152.89306640625
-163.87939453125
-171.20361328125
-176.69677734375
-182.18994140625
-177.6123046875
-171.20361328125
-173.9501953125
-170.2880859375
-160.21728515625
-164.794921875
-169.37255859375
-170.2880859375
-173.03466796875
-176.69677734375
-175.78125
-172.119140625
-173.03466796875
-158.38623046875
-157.470703125
-160.21728515625
-161.1328125
-158.38623046875
-160.21728515625
-172.119140625
-177.6123046875
-162.04833984375
-157.470703125
-166.6259765625
-176.69677734375
-180.35888671875
-171.20361328125
-183.10546875
-187.68310546875
-169.37255859375
-158.38623046875
-160.21728515625
-158.38623046875
-166.6259765625
-173.9501953125
-171.20361328125
-165.71044921875
-172.119140625
-173.9501953125
-169.37255859375
-166.6259765625
-166.6259765625
-181.2744140625
-180.35888671875
-178.52783203125
-184.02099609375
-187.68310546875
-182.18994140625
-175.78125
-174.86572265625
-171.20361328125
-168.45703125
-170.2880859375
-172.119140625
-182.18994140625
-183.10546875
-181.2744140625
-182.18994140625
-177.6123046875
-177.6123046875
-171.20361328125
-171.20361328125
-181.2744140625
-178.52783203125
-167.54150390625
-156.55517578125
-160.21728515625
-157.470703125
-165.71044921875
-167.54150390625
-167.54150390625
-169.37255859375
-172.119140625
-173.03466796875
-175.78125
-178.52783203125
-185.85205078125
-183.10546875
-177.6123046875
-173.9501953125
-178.52783203125
-165.71044921875
-165.71044921875
-157.470703125
-150.146484375
-142.822265625
-137.3291015625
-131.8359375
-137.3291015625
-140.9912109375
-134.58251953125
-133.6669921875
-126.3427734375
-130.0048828125
-133.6669921875
-122.6806640625
-119.0185546875
-105.28564453125
-103.45458984375
-95.21484375
-83.31298828125
-84.228515625
-77.81982421875
-77.81982421875
-90.63720703125
-101.62353515625
-104.3701171875
-96.13037109375
-97.96142578125
-97.96142578125
-86.0595703125
-98.876953125
-102.5390625
-119.93408203125
-133.6669921875
-130.92041015625
-137.3291015625
-152.89306640625
-151.06201171875
-159.3017578125
-165.71044921875
-160.21728515625
-157.470703125
-156.55517578125
-167.54150390625
-167.54150390625
-164.794921875
-167.54150390625
-170.2880859375
-166.6259765625
-168.45703125
-167.54150390625
-167.54150390625
-173.03466796875
-174.86572265625
-177.6123046875
-183.10546875
-189.51416015625
-191.34521484375
-184.9365234375
-180.35888671875
-194.091796875
-196.83837890625
-188.5986328125
-184.02099609375
-181.2744140625
-171.20361328125
-165.71044921875
-160.21728515625
-147.39990234375
-140.07568359375
-148.3154296875
-162.04833984375
-161.1328125
-167.54150390625
-195.00732421875
-204.16259765625
-209.65576171875
-241.69921875
-272.8271484375
-292.96875
-301.20849609375
-282.89794921875
-246.27685546875
-212.40234375
-151.06201171875
-94.29931640625
-32.958984375
42.1142578125
128.173828125
198.66943359375
273.74267578125
391.845703125
514.5263671875
628.96728515625
732.421875
763.5498046875
694.88525390625
545.654296875
401.91650390625
347.900390625
278.3203125
180.35888671875
81.48193359375
16.4794921875
-39.36767578125
-89.7216796875
-115.3564453125
-119.0185546875
-121.76513671875
-108.0322265625
-83.31298828125
-71.4111328125
-81.48193359375
-75.98876953125
-70.49560546875
-80.56640625
-86.97509765625
-101.62353515625
-108.94775390625
-109.86328125
-107.11669921875
-106.201171875
-118.10302734375
-114.44091796875
-114.44091796875
-120.849609375
-116.27197265625
-119.93408203125
-132.75146484375
-128.173828125
-119.93408203125
-119.0185546875
-108.94775390625
-102.5390625
-96.13037109375
-97.96142578125
-97.96142578125
-101.62353515625
-113.525390625
-120.849609375
-109.86328125
-115.3564453125
-117.1875
-120.849609375
-123.59619140625
-110.77880859375
-108.94775390625
-116.27197265625
-115.3564453125
-116.27197265625
-119.93408203125
-103.45458984375
-90.63720703125
-90.63720703125
-88.80615234375
-80.56640625
-78.7353515625
-92.46826171875
-97.0458984375
-90.63720703125
-85.14404296875
-85.14404296875
-77.81982421875
-75.98876953125
-81.48193359375
-75.98876953125
-71.4111328125
-74.15771484375
-78.7353515625
-73.2421875
-75.0732421875
-75.98876953125
-66.83349609375
-64.0869140625
-51.26953125
-43.9453125
-49.4384765625
-49.4384765625
-57.67822265625
-52.18505859375
-65.00244140625
-63.17138671875
-53.1005859375
-36.62109375
-34.7900390625
-39.36767578125
-40.283203125
-48.52294921875
-36.62109375
-35.70556640625
-25.634765625
-15.56396484375
-21.97265625
-28.38134765625
-20.1416015625
-9.1552734375
1.8310546875
0
0.91552734375
4.57763671875
-6.40869140625
4.57763671875
13.73291015625
14.6484375
25.634765625
26.55029296875
24.71923828125
34.7900390625
45.7763671875
55.84716796875
65.00244140625
74.15771484375
77.81982421875
65.00244140625
65.00244140625
67.7490234375
68.66455078125
71.4111328125
77.81982421875
77.81982421875
81.48193359375
87.890625
85.14404296875
97.0458984375
104.3701171875
100.7080078125
98.876953125
97.96142578125
106.201171875
108.94775390625
99.79248046875
102.5390625
95.21484375
87.890625
88.80615234375
83.31298828125
67.7490234375
47.607421875
41.19873046875
47.607421875
46.69189453125
28.38134765625
16.4794921875
-2.74658203125
-18.310546875
-15.56396484375
-26.55029296875
-41.19873046875
-46.69189453125
-56.7626953125
-63.17138671875
-75.0732421875
-75.98876953125
-80.56640625
-80.56640625
-89.7216796875
-104.3701171875
-107.11669921875
-109.86328125
-113.525390625
-110.77880859375
-112.60986328125
-104.3701171875
-111.6943359375
-110.77880859375
-111.6943359375
-108.0322265625
-108.0322265625
-109.86328125
-114.44091796875
-115.3564453125
-116.27197265625
-115.3564453125
-112.60986328125
-116.27197265625
-111.6943359375
-119.0185546875
-130.0048828125
-131.8359375
-139.16015625
-141.90673828125
-125.42724609375
-130.0048828125
-127.25830078125
-118.10302734375
-109.86328125
-112.60986328125
-119.0185546875
-118.10302734375
-114.44091796875
-123.59619140625
-125.42724609375
-116.27197265625
-104.3701171875
-108.0322265625
-122.6806640625
-120.849609375
-121.76513671875
-115.3564453125
-124.51171875
-137.3291015625
-128.173828125
-127.25830078125
-119.93408203125
-116.27197265625
-106.201171875
-114.44091796875
-114.44091796875
-111.6943359375
-110.77880859375
-113.525390625
-109.86328125
-111.6943359375
-110.77880859375
-108.94775390625
-100.7080078125
-108.94775390625
-109.86328125
-108.94775390625
-113.525390625
-96.13037109375
-95.21484375
-104.3701171875
-106.201171875
-97.96142578125
-98.876953125
-97.96142578125
-105.28564453125
-101.62353515625
-104.3701171875
-106.201171875
-110.77880859375
-125.42724609375
-121.76513671875
-118.10302734375
-126.3427734375
-126.3427734375
-121.76513671875
-116.27197265625
-110.77880859375
-106.201171875
-107.11669921875
-116.27197265625
-136.41357421875
-135.498046875
-124.51171875
-119.0185546875
-114.44091796875
-98.876953125
-96.13037109375
-110.77880859375
-115.3564453125
-120.849609375
-119.93408203125
-114.44091796875
-110.77880859375
-112.60986328125
-120.849609375
-129.08935546875
-125.42724609375
-128.173828125
-126.3427734375
-123.59619140625
-121.76513671875
-124.51171875
-119.93408203125
-117.1875
-117.1875
-128.173828125
-128.173828125
-121.76513671875
-122.6806640625
-130.92041015625
-134.58251953125
-131.8359375
-125.42724609375
-123.59619140625
-127.25830078125
-119.0185546875
-115.3564453125
-119.0185546875
-121.76513671875
-117.1875
-129.08935546875
-130.92041015625
-137.3291015625
-131.8359375
-121.76513671875
-120.849609375
-119.93408203125
-119.0185546875
-129.08935546875
-134.58251953125
-134.58251953125
-126.3427734375
-128.173828125
-122.6806640625
-116.27197265625
-115.3564453125
-118.10302734375
-119.93408203125
-117.1875
-111.6943359375
-108.94775390625
-116.27197265625
-117.1875
-107.11669921875
-100.7080078125
-95.21484375
-89.7216796875
-87.890625
-98.876953125
-111.6943359375
-113.525390625
-118.10302734375
-120.849609375
-123.59619140625
-121.76513671875
-124.51171875
-126.3427734375
-119.0185546875
-116.27197265625
-117.1875
-118.10302734375
-119.93408203125
-118.10302734375
-117.1875
-130.0048828125
-125.42724609375
-122.6806640625
-115.3564453125
-112.60986328125
-114.44091796875
-110.77880859375
-104.3701171875
-113.525390625
-123.59619140625
-128.173828125
-113.525390625
-97.96142578125
-82.3974609375
-84.228515625
-91.552734375
-86.0595703125
-83.31298828125
-70.49560546875
-65.91796875
-67.7490234375
-62.255859375
-54.01611328125
-50.35400390625
-51.26953125
-42.1142578125
-40.283203125
-32.04345703125
-24.71923828125
-25.634765625
-23.8037109375
-26.55029296875
-23.8037109375
-32.04345703125
-39.36767578125
-38.4521484375
-39.36767578125
-39.36767578125
-54.01611328125
-60.4248046875
-64.0869140625
-75.98876953125
-76.904296875
-76.904296875
-84.228515625
-93.3837890625
-99.79248046875
-96.13037109375
-94.29931640625
-90.63720703125
-93.3837890625
-101.62353515625
-116.27197265625
-119.0185546875
-117.1875
-114.44091796875
-115.3564453125
-114.44091796875
-113.525390625
-115.3564453125
-117.1875
-117.1875
-113.525390625
-118.10302734375
-132.75146484375
-124.51171875
-126.3427734375
-131.8359375
-129.08935546875
-124.51171875
-121.76513671875
-116.27197265625
-116.27197265625
-123.59619140625
-115.3564453125
-119.0185546875
-121.76513671875
-123.59619140625
-124.51171875
-117.1875
-116.27197265625
-112.60986328125
-113.525390625
-123.59619140625
-140.9912109375
-158.38623046875
-184.9365234375
-224.30419921875
-234.375
-227.96630859375
-195.00732421875
-155.6396484375
-102.5390625
-49.4384765625
1.8310546875
85.14404296875
153.80859375
221.5576171875
303.955078125
417.48046875
540.1611328125
651.85546875
767.2119140625
818.4814453125
780.029296875
652.77099609375
487.060546875
400.08544921875
348.81591796875
263.671875
166.6259765625
102.5390625
53.1005859375
-2.74658203125
-53.1005859375
-75.98876953125
-69.580078125
-59.50927734375
-43.02978515625
-15.56396484375
-19.22607421875
-25.634765625
-17.39501953125
-15.56396484375
-22.88818359375
-38.4521484375
-48.52294921875
-43.02978515625
-41.19873046875
-43.02978515625
-53.1005859375
-57.67822265625
-49.4384765625
-63.17138671875
-65.00244140625
-59.50927734375
-61.34033203125
-51.26953125
-47.607421875
-45.7763671875
-50.35400390625
-54.931640625
-65.91796875
-85.14404296875
-85.14404296875
-72.32666015625
-61.34033203125
-63.17138671875
-58.59375
-54.01611328125
-54.01611328125
-49.4384765625
-43.9453125
-48.52294921875
-49.4384765625
-43.02978515625
-38.4521484375
-26.55029296875
-16.4794921875
-15.56396484375
-11.90185546875
-12.8173828125
-14.6484375
-25.634765625
-23.8037109375
-19.22607421875
-25.634765625
-21.05712890625
-9.1552734375
-1.8310546875
-10.986328125
-24.71923828125
-21.97265625
-15.56396484375
-4.57763671875
-2.74658203125
-18.310546875
-18.310546875
-13.73291015625
-9.1552734375
-8.23974609375
-4.57763671875
0
-0.91552734375
0
8.23974609375
19.22607421875
13.73291015625
3.662109375
-4.57763671875
-2.74658203125
2.74658203125
-4.57763671875
-2.74658203125
5.4931640625
7.32421875
14.6484375
21.97265625
21.97265625
25.634765625
30.21240234375
34.7900390625
47.607421875
53.1005859375
50.35400390625
48.52294921875
49.4384765625
62.255859375
66.83349609375
68.66455078125
74.15771484375
77.81982421875
74.15771484375
61.34033203125
60.4248046875
77.81982421875
92.46826171875
88.80615234375
87.890625
97.0458984375
113.525390625
110.77880859375
113.525390625
110.77880859375
119.0185546875
129.08935546875
143.73779296875
144.6533203125
139.16015625
137.3291015625
131.8359375
137.3291015625
139.16015625
146.484375
146.484375
145.56884765625
134.58251953125
132.75146484375
144.6533203125
148.3154296875
142.822265625
140.07568359375
137.3291015625
124.51171875
111.6943359375
103.45458984375
88.80615234375
77.81982421875
69.580078125
61.34033203125
54.931640625
44.86083984375
39.36767578125
28.38134765625
12.8173828125
0
-7.32421875
-10.986328125
-12.8173828125
-21.05712890625
-27.4658203125
-31.1279296875
-42.1142578125
-48.52294921875
-66.83349609375
-77.81982421875
-77.81982421875
-75.0732421875
-68.66455078125
-62.255859375
-65.00244140625
-65.91796875
-79.65087890625
-84.228515625
-90.63720703125
-96.13037109375
-95.21484375
-94.29931640625
-88.80615234375
-79.65087890625
-84.228515625
-88.80615234375
-94.29931640625
-89.7216796875
-93.3837890625
-100.7080078125
-93.3837890625
-86.97509765625
-89.7216796875
-91.552734375
-95.21484375
-93.3837890625
-97.0458984375
-93.3837890625
-92.46826171875
-84.228515625
-86.97509765625
-93.3837890625
-95.21484375
-92.46826171875
-81.48193359375
-75.0732421875
-73.2421875
-86.0595703125
-84.228515625
-90.63720703125
-87.890625
-72.32666015625
-76.904296875
-74.15771484375
-79.65087890625
-86.0595703125
-89.7216796875
-98.876953125
-89.7216796875
-86.97509765625
-82.3974609375
-78.7353515625
-75.0732421875
-71.4111328125
-72.32666015625
-77.81982421875
-86.0595703125
-86.97509765625
-95.21484375
-94.29931640625
-98.876953125
-92.46826171875
-85.14404296875
-81.48193359375
-71.4111328125
-73.2421875
-71.4111328125
-79.65087890625
-87.890625
-91.552734375
-88.80615234375
-81.48193359375
-77.81982421875
-70.49560546875
-76.904296875
-71.4111328125
-70.49560546875
-73.2421875
-71.4111328125
-75.0732421875
-75.0732421875
-79.65087890625
-74.15771484375
-84.228515625
-98.876953125
-91.552734375
-87.890625
-83.31298828125
-75.0732421875
-66.83349609375
-74.15771484375
-77.81982421875
-74.15771484375
-82.3974609375
-82.3974609375
-78.7353515625
-80.56640625
-87.890625
-85.14404296875
-89.7216796875
-83.31298828125
-85.14404296875
-91.552734375
-89.7216796875
-96.13037109375
-93.3837890625
-99.79248046875
-102.5390625
-101.62353515625
-101.62353515625
-106.201171875
-103.45458984375
-105.28564453125
-106.201171875
-95.21484375
-87.890625
-94.29931640625
-102.5390625
-113.525390625
-115.3564453125
-108.94775390625
-106.201171875
-98.876953125
-97.96142578125
-101.62353515625
-108.0322265625
-101.62353515625
-97.96142578125
-104.3701171875
-103.45458984375
-113.525390625
-109.86328125
-101.62353515625
-108.0322265625
-105.28564453125
-96.13037109375
-103.45458984375
-107.11669921875
-93.3837890625
-95.21484375
-101.62353515625
-106.201171875
-101.62353515625
-105.28564453125
-103.45458984375
-109.86328125
-115.3564453125
-116.27197265625
-111.6943359375
-105.28564453125
-103.45458984375
-96.13037109375
-95.21484375
-98.876953125
-98.876953125
-109.86328125
-101.62353515625
-99.79248046875
-103.45458984375
-103.45458984375
-108.94775390625
-122.6806640625
-125.42724609375
-119.0185546875
-114.44091796875
-108.94775390625
-101.62353515625
-114.44091796875
-107.11669921875
-99.79248046875
-104.3701171875
-109.86328125
-114.44091796875
-109.86328125
-104.3701171875
-91.552734375
-100.7080078125
-100.7080078125
-91.552734375
-87.890625
-71.4111328125
-73.2421875
-75.0732421875
-65.00244140625
-50.35400390625
-43.9453125
-72.32666015625
-69.580078125
-66.83349609375
-61.34033203125
-44.86083984375
-24.71923828125
-24.71923828125
-23.8037109375
-27.4658203125
-37.53662109375
-38.4521484375
-32.04345703125
-25.634765625
-31.1279296875
-39.36767578125
-43.02978515625
-53.1005859375
-46.69189453125
-32.958984375
-22.88818359375
-39.36767578125
-52.18505859375
-53.1005859375
-56.7626953125
-70.49560546875
-86.0595703125
-95.21484375
-94.29931640625
-91.552734375
-95.21484375
-101.62353515625
-103.45458984375
-106.201171875
-108.94775390625
-105.28564453125
-110.77880859375
-125.42724609375
-119.93408203125
-107.11669921875
-102.5390625
-110.77880859375
-121.76513671875
-120.849609375
-109.86328125
-120.849609375
-116.27197265625
-107.11669921875
-106.201171875
-119.93408203125
-117.1875
-108.94775390625
-118.10302734375
-115.3564453125
-117.1875
-115.3564453125
-110.77880859375
-117.1875
-123.59619140625
-126.3427734375
-126.3427734375
-127.25830078125
-125.42724609375
-114.44091796875
-116.27197265625
-129.08935546875
-152.89306640625
-192.2607421875
-229.79736328125
-259.09423828125
-260.009765625
-216.97998046875
-170.2880859375
-131.8359375
-72.32666015625
-11.90185546875
68.66455078125
147.39990234375
222.47314453125
294.7998046875
401.91650390625
527.34375
635.3759765625
755.31005859375
817.56591796875
784.60693359375
672.91259765625
503.5400390625
416.56494140625
360.7177734375
257.26318359375
152.89306640625
94.29931640625
45.7763671875
2.74658203125
-24.71923828125
-51.26953125
-57.67822265625
-63.17138671875
-34.7900390625
-6.40869140625
-10.986328125
-10.986328125
0.91552734375
-8.23974609375
-30.21240234375
-50.35400390625
-60.4248046875
-58.59375
-51.26953125
-59.50927734375
-79.65087890625
-93.3837890625
-81.48193359375
-70.49560546875
-61.34033203125
-59.50927734375
-63.17138671875
-68.66455078125
-64.0869140625
-63.17138671875
-61.34033203125
-65.00244140625
-77.81982421875
-63.17138671875
-72.32666015625
-88.80615234375
-77.81982421875
-70.49560546875
-73.2421875
-75.0732421875
-67.7490234375
-63.17138671875
-63.17138671875
-58.59375
-64.0869140625
-61.34033203125
-62.255859375
-48.52294921875
-36.62109375
-43.02978515625
-48.52294921875
-53.1005859375
-54.01611328125
-65.91796875
-58.59375
-54.01611328125
-46.69189453125
-49.4384765625
-35.70556640625
-29.296875
-43.9453125
-37.53662109375
-25.634765625
-42.1142578125
-44.86083984375
-44.86083984375
-47.607421875
-34.7900390625
-38.4521484375
-32.958984375
-20.1416015625
-21.97265625
-25.634765625
-21.05712890625
-10.986328125
-16.4794921875
-20.1416015625
-27.4658203125
-27.4658203125
-28.38134765625
-23.8037109375
-8.23974609375
-3.662109375
-4.57763671875
1.8310546875
10.986328125
13.73291015625
17.39501953125
16.4794921875
14.6484375
23.8037109375
27.4658203125
26.55029296875
16.4794921875
29.296875
43.9453125
51.26953125
53.1005859375
54.931640625
55.84716796875
52.18505859375
43.02978515625
48.52294921875
67.7490234375
78.7353515625
70.49560546875
80.56640625
75.0732421875
91.552734375
109.86328125
106.201171875
109.86328125
117.1875
108.94775390625
118.10302734375
113.525390625
124.51171875
117.1875
111.6943359375
115.3564453125
122.6806640625
117.1875
115.3564453125
131.8359375
143.73779296875
137.3291015625
145.56884765625
145.56884765625
151.9775390625
148.3154296875
149.23095703125
148.3154296875
130.92041015625
117.1875
109.86328125
104.3701171875
88.80615234375
75.98876953125
61.34033203125
56.7626953125
52.18505859375
43.02978515625
34.7900390625
31.1279296875
23.8037109375
8.23974609375
-5.4931640625
-19.22607421875
-27.4658203125
-44.86083984375
-40.283203125
-36.62109375
-43.02978515625
-52.18505859375
-57.67822265625
-51.26953125
-65.00244140625
-77.81982421875
-70.49560546875
-76.904296875
-97.96142578125
-88.80615234375
-73.2421875
-83.31298828125
-73.2421875
-65.91796875
-68.66455078125
-68.66455078125
-71.4111328125
-72.32666015625
-66.83349609375
-65.91796875
-75.0732421875
-75.0732421875
-81.48193359375
-91.552734375
-94.29931640625
-83.31298828125
-77.81982421875
-76.904296875
-73.2421875
-76.904296875
-75.98876953125
-66.83349609375
-61.34033203125
-56.7626953125
-69.580078125
-75.0732421875
-65.00244140625
-67.7490234375
-78.7353515625
-72.32666015625
-72.32666015625
-86.0595703125
-91.552734375
-74.15771484375
-81.48193359375
-85.14404296875
-77.81982421875
-76.904296875
-74.15771484375
-64.0869140625
-61.34033203125
-65.00244140625
-67.7490234375
-66.83349609375
-66.83349609375
-75.98876953125
-80.56640625
-89.7216796875
-74.15771484375
-79.65087890625
-65.91796875
-56.7626953125
-58.59375
-61.34033203125
-65.91796875
-66.83349609375
-65.91796875
-56.7626953125
-67.7490234375
-76.904296875
-79.65087890625
-76.904296875
-79.65087890625
-77.81982421875
-68.66455078125
-65.00244140625
-82.3974609375
-86.0595703125
-69.580078125
-83.31298828125
-79.65087890625
-71.4111328125
-67.7490234375
-70.49560546875
-74.15771484375
-80.56640625
-77.81982421875
-74.15771484375
-73.2421875
-67.7490234375
-73.2421875
-77.81982421875
-82.3974609375
-75.98876953125
-88.80615234375
-87.890625
-86.97509765625
-86.0595703125
-83.31298828125
-86.0595703125
-89.7216796875
-86.0595703125
-78.7353515625
-85.14404296875
-87.890625
-65.00244140625
-67.7490234375
-71.4111328125
-86.0595703125
-96.13037109375
-91.552734375
-100.7080078125
-105.28564453125
-107.11669921875
-102.5390625
-94.29931640625
-88.80615234375
-88.80615234375
-94.29931640625
-97.0458984375
-105.28564453125
-102.5390625
-91.552734375
-84.228515625
-76.904296875
-68.66455078125
-75.98876953125
-87.890625
-93.3837890625
-94.29931640625
-90.63720703125
-87.890625
-87.890625
-97.0458984375
-103.45458984375
-108.94775390625
-94.29931640625
-78.7353515625
-91.552734375
-95.21484375
-108.0322265625
-115.3564453125
-104.3701171875
-102.5390625
-93.3837890625
-86.97509765625
-85.14404296875
-77.81982421875
-86.0595703125
-87.890625
-94.29931640625
-90.63720703125
-88.80615234375
-89.7216796875
-86.0595703125
-88.80615234375
-89.7216796875
-86.0595703125
-84.228515625
-99.79248046875
-99.79248046875
-89.7216796875
-84.228515625
-102.5390625
-108.0322265625
-100.7080078125
-94.29931640625
-88.80615234375
-83.31298828125
-70.49560546875
-80.56640625
-105.28564453125
-93.3837890625
-76.904296875
-72.32666015625
-59.50927734375
-63.17138671875
-67.7490234375
-56.7626953125
-51.26953125
-46.69189453125
-44.86083984375
-43.02978515625
-39.36767578125
-33.87451171875
-43.9453125
-57.67822265625
-60.4248046875
-54.931640625
-47.607421875
-21.97265625
-7.32421875
-16.4794921875
-10.986328125
-6.40869140625
7.32421875
10.07080078125
7.32421875
0.91552734375
-7.32421875
-10.07080078125
-10.07080078125
-17.39501953125
-10.07080078125
-6.40869140625
-21.97265625
-28.38134765625
-23.8037109375
-39.36767578125
-65.00244140625
-79.65087890625
-82.3974609375
-83.31298828125
-78.7353515625
-66.83349609375
-87.890625
-90.63720703125
-81.48193359375
-97.0458984375
-99.79248046875
-104.3701171875
-97.0458984375
-92.46826171875
-81.48193359375
-80.56640625
-88.80615234375
-97.0458984375
-97.96142578125
-97.0458984375
-118.10302734375
-114.44091796875
-108.94775390625
-102.5390625
-101.62353515625
-117.1875
-117.1875
-104.3701171875
-120.849609375
-121.76513671875
-116.27197265625
-117.1875
-108.94775390625
-103.45458984375
-105.28564453125
-101.62353515625
-108.0322265625
-102.5390625
-114.44091796875
-123.59619140625
-132.75146484375
-158.38623046875
-199.5849609375
-230.712890625
-238.95263671875
-211.48681640625
-162.04833984375
-108.94775390625
-74.15771484375
-21.97265625
21.97265625
113.525390625
195.00732421875
260.009765625
350.64697265625
480.65185546875
595.0927734375
726.01318359375
816.650390625
832.21435546875
747.0703125
585.9375
441.2841796875
396.42333984375
352.47802734375
260.009765625
158.38623046875
87.890625
39.36767578125
3.662109375
-28.38134765625
-43.02978515625
-51.26953125
-58.59375
-32.04345703125
-21.05712890625
-32.04345703125
-40.283203125
-15.56396484375
-21.97265625
-29.296875
-42.1142578125
-42.1142578125
-32.958984375
-26.55029296875
-27.4658203125
-30.21240234375
-32.04345703125
-25.634765625
-35.70556640625
-42.1142578125
-36.62109375
-38.4521484375
-51.26953125
-59.50927734375
-63.17138671875
-74.15771484375
-76.904296875
-71.4111328125
-61.34033203125
-47.607421875
-45.7763671875
-45.7763671875
-50.35400390625
-52.18505859375
-55.84716796875
-61.34033203125
-54.01611328125
-43.9453125
-43.02978515625
-31.1279296875
-35.70556640625
-34.7900390625
-32.04345703125
-32.04345703125
-30.21240234375
-30.21240234375
-33.87451171875
-36.62109375
-44.86083984375
-48.52294921875
-49.4384765625
-49.4384765625
-36.62109375
-35.70556640625
-34.7900390625
-21.05712890625
-28.38134765625
-28.38134765625
-34.7900390625
-35.70556640625
-35.70556640625
-29.296875
-20.1416015625
-25.634765625
-32.04345703125
-9.1552734375
-3.662109375
-10.07080078125
-8.23974609375
-6.40869140625
0
-8.23974609375
-10.986328125
-13.73291015625
-13.73291015625
-4.57763671875
1.8310546875
4.57763671875
12.8173828125
14.6484375
9.1552734375
14.6484375
15.56396484375
27.4658203125
37.53662109375
36.62109375
33.87451171875
38.4521484375
49.4384765625
65.91796875
57.67822265625
67.7490234375
68.66455078125
75.0732421875
68.66455078125
71.4111328125
74.15771484375
84.228515625
92.46826171875
91.552734375
86.0595703125
93.3837890625
90.63720703125
93.3837890625
99.79248046875
96.13037109375
92.46826171875
112.60986328125
110.77880859375
110.77880859375
116.27197265625
119.93408203125
130.92041015625
127.25830078125
116.27197265625
113.525390625
136.41357421875
130.92041015625
130.0048828125
136.41357421875
129.08935546875
135.498046875
140.9912109375
131.8359375
122.6806640625
103.45458984375
86.97509765625
76.904296875
83.31298828125
92.46826171875
91.552734375
96.13037109375
76.904296875
64.0869140625
53.1005859375
52.18505859375
56.7626953125
40.283203125
25.634765625
9.1552734375
-3.662109375
-16.4794921875
-25.634765625
-33.87451171875
-30.21240234375
-38.4521484375
-53.1005859375
-48.52294921875
-44.86083984375
-46.69189453125
-58.59375
-64.0869140625
-59.50927734375
-67.7490234375
-65.91796875
-66.83349609375
-70.49560546875
-73.2421875
-84.228515625
-92.46826171875
-89.7216796875
-99.79248046875
-94.29931640625
-89.7216796875
-97.0458984375
-93.3837890625
-87.890625
-72.32666015625
-70.49560546875
-71.4111328125
-75.98876953125
-73.2421875
-71.4111328125
-86.0595703125
-88.80615234375
-97.96142578125
-97.96142578125
-99.79248046875
-90.63720703125
-84.228515625
-76.904296875
-76.904296875
-74.15771484375
-75.0732421875
-75.98876953125
-69.580078125
-75.98876953125
-72.32666015625
-74.15771484375
-75.0732421875
-75.98876953125
-72.32666015625
-65.00244140625
-72.32666015625
-82.3974609375
-79.65087890625
-66.83349609375
-84.228515625
-92.46826171875
-93.3837890625
-97.96142578125
-95.21484375
-93.3837890625
-79.65087890625
-68.66455078125
-77.81982421875
-76.904296875
-71.4111328125
-79.65087890625
-83.31298828125
-80.56640625
-63.17138671875
-57.67822265625
-61.34033203125
-71.4111328125
-71.4111328125
-65.00244140625
-65.91796875
-74.15771484375
-74.15771484375
-71.4111328125
-76.904296875
-74.15771484375
-83.31298828125
-72.32666015625
-74.15771484375
-84.228515625
-86.97509765625
-81.48193359375
-83.31298828125
-85.14404296875
-81.48193359375
-72.32666015625
-60.4248046875
-59.50927734375
-60.4248046875
-55.84716796875
-68.66455078125
-85.14404296875
-82.3974609375
-93.3837890625
-87.890625
-81.48193359375
-88.80615234375
-86.0595703125
-81.48193359375
-86.0595703125
-78.7353515625
-80.56640625
-81.48193359375
-81.48193359375
-84.228515625
-86.97509765625
-83.31298828125
-73.2421875
-74.15771484375
-76.904296875
-73.2421875
-72.32666015625
-81.48193359375
-80.56640625
-80.56640625
-89.7216796875
-91.552734375
-87.890625
-78.7353515625
-71.4111328125
-77.81982421875
-93.3837890625
-106.201171875
-113.525390625
-106.201171875
-108.0322265625
-110.77880859375
-98.876953125
-95.21484375
-97.0458984375
-89.7216796875
-88.80615234375
-85.14404296875
-100.7080078125
-100.7080078125
-93.3837890625
-92.46826171875
-95.21484375
-106.201171875
-104.3701171875
-84.228515625
-83.31298828125
-83.31298828125
-83.31298828125
-92.46826171875
-102.5390625
-105.28564453125
-100.7080078125
-88.80615234375
-93.3837890625
-97.96142578125
-101.62353515625
-92.46826171875
-95.21484375
-100.7080078125
-99.79248046875
-97.0458984375
-97.0458984375
-89.7216796875
-80.56640625
-84.228515625
-83.31298828125
-84.228515625
-90.63720703125
-87.890625
-86.0595703125
-70.49560546875
-71.4111328125
-68.66455078125
-74.15771484375
-72.32666015625
-69.580078125
-58.59375
-53.1005859375
-45.7763671875
-42.1142578125
-34.7900390625
-23.8037109375
-21.97265625
-23.8037109375
-17.39501953125
-16.4794921875
-25.634765625
-21.97265625
-22.88818359375
-39.36767578125
-32.04345703125
-43.02978515625
-31.1279296875
-10.07080078125
-4.57763671875
-19.22607421875
-45.7763671875
-53.1005859375
-68.66455078125
-82.3974609375
-76.904296875
-87.890625
-93.3837890625
-99.79248046875
-114.44091796875
-119.93408203125
-100.7080078125
-104.3701171875
-104.3701171875
-101.62353515625
-105.28564453125
-99.79248046875
-99.79248046875
-108.0322265625
-97.96142578125
-105.28564453125
-121.76513671875
-118.10302734375
-121.76513671875
-116.27197265625
-108.94775390625
-116.27197265625
-116.27197265625
-110.77880859375
-110.77880859375
-117.1875
-108.94775390625
-115.3564453125
-130.92041015625
-125.42724609375
-120.849609375
-120.849609375
-107.11669921875
-104.3701171875
-112.60986328125
-115.3564453125
-125.42724609375
-127.25830078125
-132.75146484375
-140.07568359375
-159.3017578125
-198.66943359375
-240.78369140625
-260.009765625
-250.8544921875
-201.416015625
-158.38623046875
-110.77880859375
-52.18505859375
3.662109375
76.904296875
162.9638671875
227.96630859375
305.7861328125
404.6630859375
522.76611328125
638.12255859375
760.80322265625
819.39697265625
791.93115234375
658.26416015625
477.9052734375
399.169921875
362.548828125
286.56005859375
181.2744140625
104.3701171875
58.59375
21.97265625
-3.662109375
-36.62109375
-59.50927734375
-59.50927734375
-37.53662109375
-14.6484375
-7.32421875
-18.310546875
-29.296875
-36.62109375
-46.69189453125
-51.26953125
-53.1005859375
-50.35400390625
-52.18505859375
-44.86083984375
-50.35400390625
-60.4248046875
-65.91796875
-62.255859375
-54.931640625
-44.86083984375
-49.4384765625
-57.67822265625
-57.67822265625
-58.59375
-58.59375
-54.01611328125
-62.255859375
-65.91796875
-65.00244140625
-58.59375
-52.18505859375
-52.18505859375
-58.59375
-52.18505859375
-45.7763671875
-48.52294921875
-54.01611328125
-54.931640625
-55.84716796875
-46.69189453125
-46.69189453125
-45.7763671875
-36.62109375
-26.55029296875
-40.283203125
-42.1142578125
-43.02978515625
-44.86083984375
-37.53662109375
-34.7900390625
-47.607421875
-43.9453125
-37.53662109375
-32.958984375
-40.283203125
-27.4658203125
-30.21240234375
-32.04345703125
-23.8037109375
-21.97265625
-18.310546875
-11.90185546875
-19.22607421875
-21.97265625
-20.1416015625
-16.4794921875
-18.310546875
-12.8173828125
-2.74658203125
-17.39501953125
-20.1416015625
-10.07080078125
-11.90185546875
-5.4931640625
10.07080078125
16.4794921875
19.22607421875
12.8173828125
2.74658203125
4.57763671875
18.310546875
18.310546875
22.88818359375
14.6484375
21.97265625
28.38134765625
35.70556640625
50.35400390625
49.4384765625
57.67822265625
66.83349609375
58.59375
64.0869140625
58.59375
61.34033203125
69.580078125
70.49560546875
77.81982421875
80.56640625
81.48193359375
83.31298828125
90.63720703125
91.552734375
97.96142578125
110.77880859375
107.11669921875
104.3701171875
109.86328125
111.6943359375
115.3564453125
115.3564453125
115.3564453125
112.60986328125
116.27197265625
131.8359375
135.498046875
134.58251953125
139.16015625
140.07568359375
139.16015625
133.6669921875
128.173828125
114.44091796875
112.60986328125
118.10302734375
115.3564453125
103.45458984375
95.21484375
99.79248046875
92.46826171875
77.81982421875
60.4248046875
59.50927734375
54.931640625
43.9453125
37.53662109375
27.4658203125
20.1416015625
9.1552734375
-9.1552734375
-21.05712890625
-23.8037109375
-27.4658203125
-35.70556640625
-34.7900390625
-34.7900390625
-46.69189453125
-54.01611328125
-63.17138671875
-69.580078125
-69.580078125
-83.31298828125
-88.80615234375
-75.98876953125
-79.65087890625
-87.890625
-83.31298828125
-88.80615234375
-93.3837890625
-76.904296875
-70.49560546875
-69.580078125
-69.580078125
-85.14404296875
-92.46826171875
-85.14404296875
-83.31298828125
-80.56640625
-71.4111328125
-76.904296875
-86.97509765625
-85.14404296875
-87.890625
-94.29931640625
-91.552734375
-92.46826171875
-91.552734375
-86.97509765625
-71.4111328125
-73.2421875
-66.83349609375
-66.83349609375
-72.32666015625
-77.81982421875
-88.80615234375
-99.79248046875
-101.62353515625
-91.552734375
-86.97509765625
-88.80615234375
-96.13037109375
-91.552734375
-83.31298828125
-86.0595703125
-78.7353515625
-77.81982421875
-70.49560546875
-84.228515625
-87.890625
-86.0595703125
-81.48193359375
-75.98876953125
-71.4111328125
-67.7490234375
-63.17138671875
-61.34033203125
-68.66455078125
-64.0869140625
-63.17138671875
-75.98876953125
-75.98876953125
-70.49560546875
-71.4111328125
-79.65087890625
-86.0595703125
-85.14404296875
-91.552734375
-82.3974609375
-65.91796875
-79.65087890625
-83.31298828125
-92.46826171875
-89.7216796875
-84.228515625
-75.98876953125
-81.48193359375
-87.890625
-75.98876953125
-68.66455078125
-71.4111328125
-65.00244140625
-68.66455078125
-75.98876953125
-85.14404296875
-86.0595703125
-90.63720703125
-90.63720703125
-87.890625
-97.96142578125
-86.97509765625
-96.13037109375
-100.7080078125
-99.79248046875
-96.13037109375
-84.228515625
-82.3974609375
-78.7353515625
-87.890625
-89.7216796875
-92.46826171875
-98.876953125
-96.13037109375
-93.3837890625
-92.46826171875
-87.890625
-80.56640625
-77.81982421875
-81.48193359375
-92.46826171875
-97.0458984375
-82.3974609375
-76.904296875
-85.14404296875
-91.552734375
-94.29931640625
-86.97509765625
-88.80615234375
-86.97509765625
-85.14404296875
-81.48193359375
-79.65087890625
-83.31298828125
-81.48193359375
-83.31298828125
-78.7353515625
-89.7216796875
-97.0458984375
-103.45458984375
-103.45458984375
-94.29931640625
-91.552734375
-87.890625
-80.56640625
-84.228515625
-83.31298828125
-82.3974609375
-90.63720703125
-92.46826171875
-95.21484375
-119.0185546875
-109.86328125
-97.0458984375
-100.7080078125
-103.45458984375
-102.5390625
-106.201171875
-111.6943359375
-99.79248046875
-116.27197265625
-111.6943359375
-103.45458984375
-94.29931640625
-87.890625
-93.3837890625
-93.3837890625
-88.80615234375
-97.0458984375
-96.13037109375
-101.62353515625
-99.79248046875
-96.13037109375
-93.3837890625
-91.552734375
-77.81982421875
-68.66455078125
-69.580078125
-61.34033203125
-46.69189453125
-57.67822265625
-54.01611328125
-55.84716796875
-54.931640625
-58.59375
-60.4248046875
-50.35400390625
-40.283203125
-32.04345703125
-33.87451171875
-24.71923828125
-15.56396484375
-10.986328125
-9.1552734375
-18.310546875
-13.73291015625
-22.88818359375
-25.634765625
-36.62109375
-34.7900390625
-35.70556640625
-33.87451171875
-39.36767578125
-46.69189453125
-49.4384765625
-62.255859375
-72.32666015625
-90.63720703125
-92.46826171875
-94.29931640625
-98.876953125
-105.28564453125
-113.525390625
-112.60986328125
-104.3701171875
-110.77880859375
-110.77880859375
-96.13037109375
-107.11669921875
-106.201171875
-108.0322265625
-111.6943359375
-104.3701171875
-108.0322265625
-104.3701171875
-108.94775390625
-121.76513671875
-117.1875
-111.6943359375
-116.27197265625
-120.849609375
-121.76513671875
-116.27197265625
-117.1875
-111.6943359375
-116.27197265625
-120.849609375
-126.3427734375
-124.51171875
-120.849609375
-124.51171875
-124.51171875
-113.525390625
-117.1875
-115.3564453125
-115.3564453125
-120.849609375
-141.90673828125
-178.52783203125
-223.388671875
-249.93896484375
-245.361328125
-216.97998046875
-164.794921875
-118.10302734375
-57.67822265625
-1.8310546875
64.0869140625
142.822265625
213.31787109375
282.89794921875
372.61962890625
497.13134765625
607.91015625
727.84423828125
799.25537109375
785.5224609375
680.23681640625
510.8642578125
387.26806640625
341.49169921875
254.5166015625
161.1328125
106.201171875
42.1142578125
-12.8173828125
-48.52294921875
-59.50927734375
-66.83349609375
-59.50927734375
-32.04345703125
-12.8173828125
-3.662109375
-11.90185546875
-12.8173828125
-11.90185546875
-21.97265625
-35.70556640625
-39.36767578125
-47.607421875
-46.69189453125
-45.7763671875
-52.18505859375
-51.26953125
-54.01611328125
-56.7626953125
-67.7490234375
-70.49560546875
-69.580078125
-69.580078125
-65.00244140625
-65.00244140625
-68.66455078125
-66.83349609375
-61.34033203125
-54.01611328125
-55.84716796875
-57.67822265625
-52.18505859375
-55.84716796875
-49.4384765625
-48.52294921875
-48.52294921875
-49.4384765625
-56.7626953125
-53.1005859375
-46.69189453125
-35.70556640625
-22.88818359375
-21.05712890625
-25.634765625
-24.71923828125
-30.21240234375
-39.36767578125
-34.7900390625
-51.26953125
-58.59375
-49.4384765625
-33.87451171875
-21.97265625
-19.22607421875
-19.22607421875
-18.310546875
-14.6484375
-21.05712890625
-27.4658203125
-25.634765625
-22.88818359375
-13.73291015625
-7.32421875
-12.8173828125
-7.32421875
-2.74658203125
-5.4931640625
4.57763671875
7.32421875
7.32421875
16.4794921875
17.39501953125
17.39501953125
25.634765625
29.296875
30.21240234375
30.21240234375
35.70556640625
33.87451171875
42.1142578125
46.69189453125
38.4521484375
34.7900390625
37.53662109375
35.70556640625
43.9453125
54.01611328125
54.01611328125
47.607421875
35.70556640625
35.70556640625
44.86083984375
52.18505859375
70.49560546875
86.97509765625
81.48193359375
75.0732421875
91.552734375
97.0458984375
100.7080078125
108.94775390625
117.1875
121.76513671875
117.1875
116.27197265625
117.1875
110.77880859375
122.6806640625
132.75146484375
137.3291015625
134.58251953125
134.58251953125
144.6533203125
152.89306640625
151.9775390625
147.39990234375
158.38623046875
165.71044921875
173.9501953125
189.51416015625
184.02099609375
169.37255859375
162.9638671875
149.23095703125
151.06201171875
161.1328125
151.06201171875
138.24462890625
113.525390625
106.201171875
110.77880859375
103.45458984375
90.63720703125
86.97509765625
79.65087890625
70.49560546875
49.4384765625
35.70556640625
28.38134765625
24.71923828125
16.4794921875
9.1552734375
-7.32421875
-11.90185546875
-17.39501953125
-33.87451171875
-47.607421875
-38.4521484375
-52.18505859375
-55.84716796875
-52.18505859375
-54.01611328125
-54.01611328125
-54.931640625
-55.84716796875
-62.255859375
-61.34033203125
-60.4248046875
-65.00244140625
-66.83349609375
-72.32666015625
-75.98876953125
-70.49560546875
-70.49560546875
-79.65087890625
-71.4111328125
-63.17138671875
-71.4111328125
-67.7490234375
-77.81982421875
-87.890625
-94.29931640625
-83.31298828125
-86.97509765625
-93.3837890625
-97.0458984375
-91.552734375
-95.21484375
-91.552734375
-77.81982421875
-80.56640625
-86.0595703125
-80.56640625
-73.2421875
-79.65087890625
-72.32666015625
-69.580078125
-64.0869140625
-54.931640625
-54.931640625
-57.67822265625
-65.91796875
-66.83349609375
-58.59375
-67.7490234375
-68.66455078125
-65.00244140625
-76.904296875
-76.904296875
-78.7353515625
-72.32666015625
-61.34033203125
-60.4248046875
-71.4111328125
-73.2421875
-73.2421875
-69.580078125
-70.49560546875
-66.83349609375
-68.66455078125
-55.84716796875
-55.84716796875
-63.17138671875
-59.50927734375
-64.0869140625
-67.7490234375
-64.0869140625
-64.0869140625
-57.67822265625
-55.84716796875
-65.00244140625
-59.50927734375
-70.49560546875
-58.59375
-64.0869140625
-67.7490234375
-66.83349609375
-73.2421875
-74.15771484375
-72.32666015625
-62.255859375
-71.4111328125
-82.3974609375
-77.81982421875
-65.00244140625
-61.34033203125
-63.17138671875
-67.7490234375
-68.66455078125
-69.580078125
-66.83349609375
-75.98876953125
-71.4111328125
-76.904296875
-75.98876953125
-70.49560546875
-61.34033203125
-66.83349609375
-66.83349609375
-72.32666015625
-81.48193359375
-84.228515625
-87.890625
-88.80615234375
-79.65087890625
-75.98876953125
-73.2421875
-75.98876953125
-75.98876953125
-71.4111328125
-70.49560546875
-68.66455078125
-72.32666015625
-79.65087890625
-79.65087890625
-92.46826171875
-91.552734375
-83.31298828125
-80.56640625
-80.56640625
-91.552734375
-93.3837890625
-89.7216796875
-88.80615234375
-82.3974609375
-88.80615234375
-86.97509765625
-81.48193359375
-85.14404296875
-94.29931640625
-98.876953125
-97.0458984375
-94.29931640625
-94.29931640625
-96.13037109375
-85.14404296875
-77.81982421875
-92.46826171875
-95.21484375
-97.0458984375
-97.0458984375
-93.3837890625
-97.96142578125
-95.21484375
-97.0458984375
-97.0458984375
-97.96142578125
-99.79248046875
-99.79248046875
-102.5390625
-97.0458984375
-81.48193359375
-82.3974609375
-80.56640625
-89.7216796875
-97.0458984375
-99.79248046875
-94.29931640625
-90.63720703125
-90.63720703125
-86.0595703125
-82.3974609375
-82.3974609375
-86.97509765625
-93.3837890625
-86.0595703125
-88.80615234375
-90.63720703125
-83.31298828125
-83.31298828125
-74.15771484375
-66.83349609375
-68.66455078125
-69.580078125
-70.49560546875
-70.49560546875
-66.83349609375
-50.35400390625
-43.02978515625
-41.19873046875
-44.86083984375
-47.607421875
-41.19873046875
-42.1142578125
-35.70556640625
-25.634765625
-14.6484375
-4.57763671875
0.91552734375
-0.91552734375
-8.23974609375
-13.73291015625
-16.4794921875
-10.07080078125
-11.90185546875
-25.634765625
-31.1279296875
-35.70556640625
-38.4521484375
-36.62109375
-30.21240234375
-32.958984375
-32.958984375
-30.21240234375
-50.35400390625
-52.18505859375
-64.0869140625
-73.2421875
-67.7490234375
-71.4111328125
-86.97509765625
-92.46826171875
-86.97509765625
-90.63720703125
-87.890625
-88.80615234375
-83.31298828125
-85.14404296875
-91.552734375
-86.97509765625
-86.97509765625
-86.0595703125
-84.228515625
-91.552734375
-89.7216796875
-89.7216796875
-100.7080078125
-112.60986328125
-104.3701171875
-101.62353515625
-93.3837890625
-95.21484375
-96.13037109375
-97.96142578125
-99.79248046875
-106.201171875
-103.45458984375
-96.13037109375
-88.80615234375
-84.228515625
-88.80615234375
-97.96142578125
-103.45458984375
-103.45458984375
-92.46826171875
-93.3837890625
-111.6943359375
-135.498046875
-152.89306640625
-181.2744140625
-195.00732421875
-187.68310546875
-149.23095703125
-119.93408203125
-66.83349609375
-9.1552734375
43.02978515625
121.76513671875
193.17626953125
267.333984375
351.5625
457.763671875
587.7685546875
708.6181640625
804.74853515625
833.1298828125
778.1982421875
639.95361328125
480.65185546875
413.818359375
347.900390625
254.5166015625
164.794921875
99.79248046875
39.36767578125
-3.662109375
-23.8037109375
-37.53662109375
-45.7763671875
-34.7900390625
-9.1552734375
-11.90185546875
-11.90185546875
-8.23974609375
-5.4931640625
-10.07080078125
-24.71923828125
-37.53662109375
-33.87451171875
-27.4658203125
-32.04345703125
-30.21240234375
-18.310546875
-20.1416015625
-27.4658203125
-28.38134765625
-30.21240234375
-40.283203125
-37.53662109375
-30.21240234375
-10.986328125
-22.88818359375
-43.02978515625
-55.84716796875
-64.0869140625
-61.34033203125
-57.67822265625
-47.607421875
-36.62109375
-32.04345703125
-36.62109375
-34.7900390625
-34.7900390625
-44.86083984375
-43.02978515625
-40.283203125
-27.4658203125
-24.71923828125
-20.1416015625
-28.38134765625
-32.04345703125
-32.958984375
-38.4521484375
-43.02978515625
-43.02978515625
-30.21240234375
-16.4794921875
-12.8173828125
-11.90185546875
-7.32421875
-5.4931640625
-10.07080078125
-13.73291015625
-10.986328125
-9.1552734375
-9.1552734375
-11.90185546875
-21.97265625
-15.56396484375
-1.8310546875
1.8310546875
11.90185546875
11.90185546875
2.74658203125
7.32421875
8.23974609375
5.4931640625
11.90185546875
21.05712890625
26.55029296875
24.71923828125
35.70556640625
39.36767578125
40.283203125
44.86083984375
53.1005859375
54.01611328125
42.1142578125
33.87451171875
36.62109375
53.1005859375
59.50927734375
64.0869140625
73.2421875
66.83349609375
61.34033203125
48.52294921875
51.26953125
56.7626953125
61.34033203125
76.904296875
87.890625
89.7216796875
100.7080078125
112.60986328125
124.51171875
132.75146484375
134.58251953125
132.75146484375
135.498046875
135.498046875
143.73779296875
158.38623046875
156.55517578125
153.80859375
151.9775390625
154.72412109375
158.38623046875
166.6259765625
171.20361328125
165.71044921875
164.794921875
167.54150390625
170.2880859375
179.443359375
185.85205078125
188.5986328125
204.16259765625
202.33154296875
193.17626953125
193.17626953125
184.02099609375
169.37255859375
158.38623046875
161.1328125
161.1328125
153.80859375
148.3154296875
136.41357421875
124.51171875
116.27197265625
105.28564453125
99.79248046875
94.29931640625
79.65087890625
59.50927734375
51.26953125
49.4384765625
45.7763671875
33.87451171875
21.05712890625
20.1416015625
8.23974609375
0.91552734375
-7.32421875
-18.310546875
-17.39501953125
-19.22607421875
-25.634765625
-21.97265625
-20.1416015625
-20.1416015625
-32.04345703125
-42.1142578125
-37.53662109375
-54.931640625
-58.59375
-54.01611328125
-55.84716796875
-57.67822265625
-64.0869140625
-65.91796875
-65.00244140625
-56.7626953125
-50.35400390625
-33.87451171875
-35.70556640625
-37.53662109375
-46.69189453125
-53.1005859375
-62.255859375
-65.00244140625
-59.50927734375
-49.4384765625
-49.4384765625
-45.7763671875
-42.1142578125
-41.19873046875
-39.36767578125
-42.1142578125
-38.4521484375
-43.02978515625
-48.52294921875
-40.283203125
-39.36767578125
-51.26953125
-57.67822265625
-51.26953125
-43.9453125
-43.9453125
-40.283203125
-39.36767578125
-33.87451171875
-41.19873046875
-42.1142578125
-36.62109375
-36.62109375
-43.02978515625
-48.52294921875
-46.69189453125
-48.52294921875
-49.4384765625
-38.4521484375
-25.634765625
-16.4794921875
-30.21240234375
-39.36767578125
-34.7900390625
-40.283203125
-58.59375
-43.9453125
-33.87451171875
-38.4521484375
-53.1005859375
-65.91796875
-53.1005859375
-57.67822265625
-59.50927734375
-50.35400390625
-35.70556640625
-39.36767578125
-32.958984375
-40.283203125
-44.86083984375
-42.1142578125
-38.4521484375
-44.86083984375
-48.52294921875
-46.69189453125
-45.7763671875
-59.50927734375
-52.18505859375
-54.931640625
-59.50927734375
-50.35400390625
-46.69189453125
-46.69189453125
-46.69189453125
-55.84716796875
-51.26953125
-44.86083984375
-43.02978515625
-50.35400390625
-52.18505859375
-59.50927734375
-62.255859375
-53.1005859375
-54.931640625
-45.7763671875
-41.19873046875
-50.35400390625
-52.18505859375
-68.66455078125
-74.15771484375
-77.81982421875
-68.66455078125
-68.66455078125
-68.66455078125
-63.17138671875
-69.580078125
-75.0732421875
-76.904296875
-65.00244140625
-54.01611328125
-61.34033203125
-62.255859375
-60.4248046875
-56.7626953125
-63.17138671875
-72.32666015625
-78.7353515625
-65.91796875
-66.83349609375
-64.0869140625
-66.83349609375
-70.49560546875
-65.91796875
-60.4248046875
-70.49560546875
-78.7353515625
-68.66455078125
-61.34033203125
-59.50927734375
-61.34033203125
-75.0732421875
-70.49560546875
-79.65087890625
-74.15771484375
-68.66455078125
-67.7490234375
-75.98876953125
-76.904296875
-69.580078125
-56.7626953125
-60.4248046875
-65.91796875
-62.255859375
-61.34033203125
-67.7490234375
-69.580078125
-64.0869140625
-68.66455078125
-60.4248046875
-57.67822265625
-65.91796875
-67.7490234375
-63.17138671875
-54.931640625
-58.59375
-72.32666015625
-77.81982421875
-71.4111328125
-59.50927734375
-62.255859375
-63.17138671875
-57.67822265625
-52.18505859375
-53.1005859375
-52.18505859375
-50.35400390625
-46.69189453125
-44.86083984375
-43.02978515625
-51.26953125
-54.931640625
-51.26953125
-44.86083984375
-39.36767578125
-29.296875
-27.4658203125
-13.73291015625
-23.8037109375
-26.55029296875
-20.1416015625
-21.97265625
-26.55029296875
-24.71923828125
-13.73291015625
-1.8310546875
9.1552734375
22.88818359375
30.21240234375
25.634765625
21.05712890625
15.56396484375
23.8037109375
32.04345703125
25.634765625
14.6484375
1.8310546875
10.07080078125
3.662109375
3.662109375
6.40869140625
8.23974609375
7.32421875
-14.6484375
-21.97265625
-19.22607421875
-32.04345703125
-32.04345703125
-29.296875
-33.87451171875
-54.931640625
-64.0869140625
-56.7626953125
-59.50927734375
-68.66455078125
-60.4248046875
-54.01611328125
-61.34033203125
-68.66455078125
-62.255859375
-70.49560546875
-79.65087890625
-66.83349609375
-75.98876953125
-81.48193359375
-75.98876953125
-74.15771484375
-74.15771484375
-65.91796875
-75.98876953125
-75.0732421875
-69.580078125
-67.7490234375
-70.49560546875
-64.0869140625
-67.7490234375
-78.7353515625
-78.7353515625
-83.31298828125
-82.3974609375
-85.14404296875
-77.81982421875
-83.31298828125
-79.65087890625
-86.0595703125
-86.0595703125
-86.97509765625
-111.6943359375
-130.0048828125
-156.55517578125
-191.34521484375
-199.5849609375
-177.6123046875
-121.76513671875
-82.3974609375
-24.71923828125
27.4658203125
75.0732421875
136.41357421875
205.078125
288.39111328125
365.29541015625
487.97607421875
621.64306640625
726.01318359375
826.72119140625
847.7783203125
773.62060546875
631.7138671875
489.80712890625
454.1015625
382.6904296875
275.57373046875
173.03466796875
108.0322265625
64.0869140625
16.4794921875
-12.8173828125
-31.1279296875
-26.55029296875
-4.57763671875
32.04345703125
37.53662109375
30.21240234375
32.958984375
30.21240234375
14.6484375
0.91552734375
-5.4931640625
-12.8173828125
-24.71923828125
-15.56396484375
-16.4794921875
-26.55029296875
-26.55029296875
-29.296875
-19.22607421875
-14.6484375
-7.32421875
-7.32421875
-6.40869140625
-17.39501953125
-22.88818359375
-16.4794921875
-16.4794921875
-13.73291015625
-17.39501953125
-17.39501953125
-22.88818359375
-32.04345703125
-33.87451171875
-29.296875
-16.4794921875
-5.4931640625
-5.4931640625
-1.8310546875
1.8310546875
4.57763671875
-10.07080078125
-10.986328125
-6.40869140625
3.662109375
6.40869140625
4.57763671875
1.8310546875
6.40869140625
-4.57763671875
-10.986328125
-10.07080078125
-6.40869140625
-0.91552734375
0.91552734375
9.1552734375
3.662109375
5.4931640625
15.56396484375
18.310546875
22.88818359375
13.73291015625
13.73291015625
29.296875
32.958984375
31.1279296875
29.296875
34.7900390625
32.04345703125
31.1279296875
40.283203125
40.283203125
37.53662109375
39.36767578125
37.53662109375
39.36767578125
38.4521484375
39.36767578125
42.1142578125
46.69189453125
49.4384765625
53.1005859375
62.255859375
63.17138671875
59.50927734375
54.931640625
54.931640625
49.4384765625
67.7490234375
78.7353515625
79.65087890625
81.48193359375
93.3837890625
107.11669921875
119.0185546875
123.59619140625
128.173828125
135.498046875
135.498046875
130.92041015625
129.08935546875
121.76513671875
119.0185546875
122.6806640625
144.6533203125
140.9912109375
149.23095703125
156.55517578125
156.55517578125
162.9638671875
171.20361328125
180.35888671875
188.5986328125
186.767578125
167.54150390625
170.2880859375
184.02099609375
195.9228515625
199.5849609375
194.091796875
197.75390625
187.68310546875
184.9365234375
182.18994140625
186.767578125
188.5986328125
183.10546875
186.767578125
184.9365234375
157.470703125
145.56884765625
146.484375
138.24462890625
131.8359375
120.849609375
111.6943359375
97.96142578125
85.14404296875
80.56640625
67.7490234375
58.59375
53.1005859375
42.1142578125
55.84716796875
50.35400390625
48.52294921875
35.70556640625
23.8037109375
16.4794921875
4.57763671875
-8.23974609375
-10.07080078125
-10.07080078125
-10.986328125
-16.4794921875
-8.23974609375
-2.74658203125
-0.91552734375
-6.40869140625
-5.4931640625
-0.91552734375
-11.90185546875
-17.39501953125
-16.4794921875
-13.73291015625
-18.310546875
-27.4658203125
-32.04345703125
-28.38134765625
-16.4794921875
-28.38134765625
-32.04345703125
-32.04345703125
-26.55029296875
-23.8037109375
-13.73291015625
-14.6484375
-21.97265625
-23.8037109375
-26.55029296875
-23.8037109375
-25.634765625
-37.53662109375
-49.4384765625
-36.62109375
-32.04345703125
-41.19873046875
-43.9453125
-35.70556640625
-29.296875
-32.958984375
-40.283203125
-33.87451171875
-37.53662109375
-29.296875
-35.70556640625
-32.04345703125
-28.38134765625
-21.97265625
-30.21240234375
-18.310546875
-7.32421875
-17.39501953125
-29.296875
-32.958984375
-26.55029296875
-25.634765625
-32.04345703125
-33.87451171875
-36.62109375
-24.71923828125
-26.55029296875
-29.296875
-24.71923828125
-22.88818359375
-11.90185546875
-16.4794921875
-12.8173828125
-16.4794921875
-29.296875
-25.634765625
-27.4658203125
-26.55029296875
-26.55029296875
-20.1416015625
-28.38134765625
-56.7626953125
-44.86083984375
-32.04345703125
-31.1279296875
-25.634765625
-26.55029296875
-25.634765625
-30.21240234375
-41.19873046875
-40.283203125
-39.36767578125
-43.02978515625
-40.283203125
-43.02978515625
-27.4658203125
-32.04345703125
-30.21240234375
-31.1279296875
-33.87451171875
-29.296875
-27.4658203125
-31.1279296875
-36.62109375
-43.02978515625
-51.26953125
-54.931640625
-51.26953125
-41.19873046875
-37.53662109375
-43.02978515625
-45.7763671875
-54.01611328125
-62.255859375
-53.1005859375
-38.4521484375
-40.283203125
-43.02978515625
-38.4521484375
-41.19873046875
-44.86083984375
-44.86083984375
-42.1142578125
-43.02978515625
-58.59375
-66.83349609375
-62.255859375
-61.34033203125
-46.69189453125
-31.1279296875
-22.88818359375
-21.05712890625
-29.296875
-34.7900390625
-30.21240234375
-22.88818359375
-31.1279296875
-40.283203125
-46.69189453125
-50.35400390625
-65.00244140625
-67.7490234375
-60.4248046875
-51.26953125
-43.9453125
-37.53662109375
-45.7763671875
-53.1005859375
-47.607421875
-46.69189453125
-48.52294921875
-44.86083984375
-48.52294921875
-50.35400390625
-50.35400390625
-46.69189453125
-50.35400390625
-50.35400390625
-58.59375
-51.26953125
-50.35400390625
-52.18505859375
-50.35400390625
-48.52294921875
-43.02978515625
-45.7763671875
-46.69189453125
-49.4384765625
-46.69189453125
-45.7763671875
-43.9453125
-42.1142578125
-39.36767578125
-43.9453125
-44.86083984375
-38.4521484375
-36.62109375
-27.4658203125
-21.97265625
-19.22607421875
-21.97265625
-16.4794921875
-3.662109375
6.40869140625
1.8310546875
0
-2.74658203125
-3.662109375
9.1552734375
16.4794921875
21.97265625
29.296875
36.62109375
42.1142578125
30.21240234375
21.97265625
19.22607421875
21.05712890625
24.71923828125
28.38134765625
19.22607421875
19.22607421875
27.4658203125
20.1416015625
21.97265625
16.4794921875
6.40869140625
-1.8310546875
-17.39501953125
-33.87451171875
-36.62109375
-32.04345703125
-40.283203125
-47.607421875
-48.52294921875
-54.01611328125
-46.69189453125
-50.35400390625
-46.69189453125
-45.7763671875
-54.01611328125
-65.00244140625
-68.66455078125
-65.91796875
-56.7626953125
-43.02978515625
-43.9453125
-55.84716796875
-66.83349609375
-67.7490234375
-75.98876953125
-71.4111328125
-66.83349609375
-68.66455078125
-61.34033203125
-55.84716796875
-58.59375
-59.50927734375
-64.0869140625
-64.0869140625
-65.00244140625
-61.34033203125
-63.17138671875
-65.00244140625
-53.1005859375
-54.01611328125
-59.50927734375
-68.66455078125
-54.01611328125
-57.67822265625
-74.15771484375
-106.201171875
-141.90673828125
-176.69677734375
-181.2744140625
-147.39990234375
-96.13037109375
-69.580078125
-15.56396484375
35.70556640625
92.46826171875
175.78125
246.27685546875
321.35009765625
406.494140625
525.5126953125
634.46044921875
758.056640625
856.01806640625
859.68017578125
774.5361328125
623.47412109375
486.14501953125
437.6220703125
390.93017578125
295.71533203125
200.50048828125
134.58251953125
79.65087890625
47.607421875
28.38134765625
3.662109375
0
5.4931640625
22.88818359375
30.21240234375
27.4658203125
27.4658203125
25.634765625
22.88818359375
10.07080078125
2.74658203125
-3.662109375
-10.07080078125
-0.91552734375
12.8173828125
12.8173828125
16.4794921875
7.32421875
4.57763671875
-8.23974609375
-10.986328125
-5.4931640625
-9.1552734375
-12.8173828125
-1.8310546875
0
0.91552734375
4.57763671875
7.32421875
1.8310546875
0.91552734375
2.74658203125
8.23974609375
5.4931640625
-2.74658203125
-12.8173828125
-19.22607421875
-11.90185546875
-5.4931640625
-10.986328125
0
16.4794921875
23.8037109375
29.296875
17.39501953125
10.07080078125
8.23974609375
12.8173828125
21.97265625
14.6484375
10.07080078125
10.07080078125
23.8037109375
25.634765625
18.310546875
26.55029296875
28.38134765625
29.296875
29.296875
27.4658203125
25.634765625
23.8037109375
21.97265625
32.04345703125
32.04345703125
32.04345703125
45.7763671875
41.19873046875
43.9453125
51.26953125
47.607421875
67.7490234375
60.4248046875
57.67822265625
60.4248046875
61.34033203125
48.52294921875
43.9453125
45.7763671875
61.34033203125
62.255859375
67.7490234375
75.0732421875
72.32666015625
75.98876953125
76.904296875
85.14404296875
97.96142578125
102.5390625
104.3701171875
101.62353515625
105.28564453125
105.28564453125
118.10302734375
128.173828125
131.8359375
136.41357421875
128.173828125
129.08935546875
136.41357421875
143.73779296875
136.41357421875
139.16015625
160.21728515625
169.37255859375
177.6123046875
174.86572265625
167.54150390625
158.38623046875
148.3154296875
162.04833984375
176.69677734375
182.18994140625
188.5986328125
195.00732421875
195.00732421875
197.75390625
196.83837890625
197.75390625
192.2607421875
198.66943359375
205.078125
206.9091796875
209.65576171875
207.82470703125
204.16259765625
196.83837890625
187.68310546875
169.37255859375
156.55517578125
147.39990234375
144.6533203125
137.3291015625
133.6669921875
121.76513671875
114.44091796875
106.201171875
96.13037109375
92.46826171875
77.81982421875
62.255859375
48.52294921875
39.36767578125
32.04345703125
10.986328125
7.32421875
18.310546875
21.97265625
8.23974609375
-1.8310546875
-0.91552734375
0.91552734375
-0.91552734375
-1.8310546875
-5.4931640625
-17.39501953125
-23.8037109375
-17.39501953125
-21.05712890625
-27.4658203125
-35.70556640625
-35.70556640625
-33.87451171875
-28.38134765625
-38.4521484375
-48.52294921875
-46.69189453125
-38.4521484375
-32.958984375
-22.88818359375
-27.4658203125
-21.05712890625
-21.97265625
-14.6484375
-16.4794921875
-26.55029296875
-23.8037109375
-22.88818359375
-39.36767578125
-53.1005859375
-54.01611328125
-48.52294921875
-38.4521484375
-40.283203125
-35.70556640625
-39.36767578125
-29.296875
-21.97265625
-28.38134765625
-24.71923828125
-26.55029296875
-29.296875
-16.4794921875
-12.8173828125
-20.1416015625
-21.97265625
-27.4658203125
-28.38134765625
-29.296875
-29.296875
-43.02978515625
-44.86083984375
-33.87451171875
-31.1279296875
-28.38134765625
-23.8037109375
-14.6484375
-7.32421875
-3.662109375
-15.56396484375
-20.1416015625
-11.90185546875
-10.07080078125
-13.73291015625
-13.73291015625
-12.8173828125
-20.1416015625
-32.04345703125
-27.4658203125
-23.8037109375
-13.73291015625
-16.4794921875
-21.05712890625
-23.8037109375
-26.55029296875
-23.8037109375
-28.38134765625
-29.296875
-29.296875
-29.296875
-32.958984375
-42.1142578125
-49.4384765625
-42.1142578125
-32.04345703125
-17.39501953125
-16.4794921875
-17.39501953125
-14.6484375
-18.310546875
-27.4658203125
-31.1279296875
-35.70556640625
-37.53662109375
-37.53662109375
-32.04345703125
-32.04345703125
-38.4521484375
-32.04345703125
-29.296875
-34.7900390625
-54.01611328125
-50.35400390625
-43.02978515625
-35.70556640625
-38.4521484375
-43.02978515625
-43.02978515625
-35.70556640625
-48.52294921875
-57.67822265625
-47.607421875
-29.296875
-29.296875
-26.55029296875
-21.97265625
-30.21240234375
-44.86083984375
-43.9453125
-38.4521484375
-47.607421875
-39.36767578125
-21.97265625
-24.71923828125
-33.87451171875
-32.958984375
-41.19873046875
-55.84716796875
-53.1005859375
-44.86083984375
-45.7763671875
-49.4384765625
-45.7763671875
-39.36767578125
-30.21240234375
-19.22607421875
-36.62109375
-34.7900390625
-33.87451171875
-45.7763671875
-42.1142578125
-36.62109375
-39.36767578125
-33.87451171875
-27.4658203125
-21.97265625
-17.39501953125
-20.1416015625
-32.04345703125
-28.38134765625
-27.4658203125
-34.7900390625
-42.1142578125
-45.7763671875
-44.86083984375
-45.7763671875
-47.607421875
-56.7626953125
-45.7763671875
-40.283203125
-45.7763671875
-58.59375
-54.01611328125
-46.69189453125
-42.1142578125
-46.69189453125
-41.19873046875
-43.9453125
-49.4384765625
-39.36767578125
-46.69189453125
-54.931640625
-48.52294921875
-34.7900390625
-41.19873046875
-46.69189453125
-48.52294921875
-49.4384765625
-32.04345703125
-18.310546875
-15.56396484375
-10.986328125
-1.8310546875
7.32421875
9.1552734375
8.23974609375
6.40869140625
0.91552734375
-8.23974609375
-7.32421875
6.40869140625
15.56396484375
23.8037109375
29.296875
23.8037109375
31.1279296875
48.52294921875
54.01611328125
41.19873046875
43.02978515625
43.02978515625
34.7900390625
28.38134765625
21.05712890625
10.07080078125
7.32421875
10.986328125
-0.91552734375
-17.39501953125
-9.1552734375
-17.39501953125
-26.55029296875
-33.87451171875
-36.62109375
-46.69189453125
-46.69189453125
-40.283203125
-32.04345703125
-34.7900390625
-43.02978515625
-49.4384765625
-45.7763671875
-53.1005859375
-60.4248046875
-56.7626953125
-47.607421875
-45.7763671875
-49.4384765625
-54.01611328125
-61.34033203125
-54.931640625
-56.7626953125
-55.84716796875
-65.91796875
-64.0869140625
-70.49560546875
-73.2421875
-61.34033203125
-50.35400390625
-49.4384765625
-57.67822265625
-63.17138671875
-60.4248046875
-54.01611328125
-46.69189453125
-54.931640625
-55.84716796875
-50.35400390625
-57.67822265625
-72.32666015625
-88.80615234375
-98.876953125
-112.60986328125
-143.73779296875
-179.443359375
-183.10546875
-174.86572265625
-139.16015625
-97.96142578125
-61.34033203125
-0.91552734375
46.69189453125
108.94775390625
192.2607421875
271.91162109375
338.7451171875
432.12890625
568.54248046875
674.74365234375
780.94482421875
850.52490234375
834.9609375
729.67529296875
574.03564453125
467.83447265625
416.56494140625
333.251953125
232.5439453125
167.54150390625
114.44091796875
63.17138671875
32.04345703125
16.4794921875
2.74658203125
5.4931640625
12.8173828125
36.62109375
36.62109375
36.62109375
46.69189453125
46.69189453125
31.1279296875
22.88818359375
15.56396484375
7.32421875
7.32421875
0.91552734375
13.73291015625
23.8037109375
24.71923828125
19.22607421875
7.32421875
15.56396484375
12.8173828125
21.05712890625
18.310546875
11.90185546875
7.32421875
8.23974609375
10.07080078125
6.40869140625
10.07080078125
0.91552734375
2.74658203125
17.39501953125
14.6484375
14.6484375
21.97265625
29.296875
43.9453125
43.02978515625
33.87451171875
11.90185546875
-2.74658203125
2.74658203125
17.39501953125
24.71923828125
10.986328125
15.56396484375
15.56396484375
14.6484375
8.23974609375
13.73291015625
21.97265625
32.04345703125
27.4658203125
32.958984375
41.19873046875
45.7763671875
40.283203125
33.87451171875
31.1279296875
31.1279296875
29.296875
39.36767578125
37.53662109375
42.1142578125
48.52294921875
49.4384765625
54.931640625
57.67822265625
52.18505859375
41.19873046875
44.86083984375
48.52294921875
54.01611328125
54.01611328125
65.91796875
73.2421875
78.7353515625
82.3974609375
92.46826171875
87.890625
80.56640625
75.0732421875
79.65087890625
88.80615234375
94.29931640625
92.46826171875
96.13037109375
97.96142578125
102.5390625
108.0322265625
106.201171875
115.3564453125
120.849609375
121.76513671875
117.1875
125.42724609375
123.59619140625
140.07568359375
152.89306640625
158.38623046875
166.6259765625
168.45703125
167.54150390625
168.45703125
172.119140625
176.69677734375
173.03466796875
171.20361328125
172.119140625
179.443359375
191.34521484375
192.2607421875
188.5986328125
192.2607421875
192.2607421875
195.00732421875
198.66943359375
209.65576171875
219.7265625
215.14892578125
206.9091796875
211.48681640625
223.388671875
221.5576171875
210.5712890625
205.99365234375
195.00732421875
182.18994140625
172.119140625
181.2744140625
174.86572265625
163.87939453125
148.3154296875
140.07568359375
130.0048828125
114.44091796875
112.60986328125
110.77880859375
102.5390625
101.62353515625
86.97509765625
68.66455078125
43.02978515625
35.70556640625
19.22607421875
21.05712890625
21.05712890625
10.986328125
2.74658203125
1.8310546875
0
6.40869140625
-5.4931640625
-8.23974609375
-6.40869140625
-20.1416015625
-19.22607421875
-16.4794921875
-24.71923828125
-23.8037109375
-21.97265625
-15.56396484375
-21.05712890625
-21.97265625
-26.55029296875
-21.97265625
-13.73291015625
-13.73291015625
-12.8173828125
-17.39501953125
-21.05712890625
-27.4658203125
-26.55029296875
-17.39501953125
-17.39501953125
-22.88818359375
-19.22607421875
-22.88818359375
-28.38134765625
-26.55029296875
-22.88818359375
-24.71923828125
-20.1416015625
-12.8173828125
-24.71923828125
-33.87451171875
-22.88818359375
-18.310546875
-21.05712890625
-19.22607421875
-12.8173828125
6.40869140625
11.90185546875
10.986328125
-2.74658203125
-21.05712890625
-2.74658203125
0
9.1552734375
11.90185546875
13.73291015625
7.32421875
5.4931640625
13.73291015625
11.90185546875
4.57763671875
-4.57763671875
-4.57763671875
-13.73291015625
-17.39501953125
-10.07080078125
-0.91552734375
3.662109375
2.74658203125
7.32421875
3.662109375
-2.74658203125
-10.07080078125
-9.1552734375
-4.57763671875
-11.90185546875
-12.8173828125
-6.40869140625
-5.4931640625
-10.07080078125
-9.1552734375
-7.32421875
-12.8173828125
-7.32421875
-10.07080078125
-21.97265625
-25.634765625
-23.8037109375
-21.97265625
-32.958984375
-19.22607421875
-17.39501953125
-9.1552734375
-14.6484375
-21.97265625
-15.56396484375
-12.8173828125
-18.310546875
-28.38134765625
-35.70556640625
-30.21240234375
-32.958984375
-23.8037109375
-18.310546875
-10.07080078125
-7.32421875
-23.8037109375
-24.71923828125
-25.634765625
-22.88818359375
-28.38134765625
-32.04345703125
-36.62109375
-32.04345703125
-34.7900390625
-29.296875
-35.70556640625
-32.958984375
-29.296875
-22.88818359375
-17.39501953125
-21.97265625
-24.71923828125
-24.71923828125
-22.88818359375
-18.310546875
-16.4794921875
-13.73291015625
-14.6484375
-34.7900390625
-51.26953125
-46.69189453125
-32.04345703125
-31.1279296875
-30.21240234375
-34.7900390625
-42.1142578125
-43.02978515625
-44.86083984375
-50.35400390625
-50.35400390625
-54.01611328125
-43.02978515625
-36.62109375
-42.1142578125
-32.958984375
-37.53662109375
-40.283203125
-41.19873046875
-43.02978515625
-38.4521484375
-36.62109375
-38.4521484375
-41.19873046875
-43.9453125
-42.1142578125
-45.7763671875
-42.1142578125
-39.36767578125
-44.86083984375
-46.69189453125
-52.18505859375
-51.26953125
-38.4521484375
-30.21240234375
-35.70556640625
-35.70556640625
-33.87451171875
-54.931640625
-54.01611328125
-54.01611328125
-45.7763671875
-37.53662109375
-34.7900390625
-30.21240234375
-32.958984375
-48.52294921875
-42.1142578125
-36.62109375
-40.283203125
-49.4384765625
-51.26953125
-52.18505859375
-56.7626953125
-40.283203125
-40.283203125
-42.1142578125
-38.4521484375
-41.19873046875
-21.97265625
-28.38134765625
-31.1279296875
-18.310546875
-7.32421875
2.74658203125
7.32421875
6.40869140625
6.40869140625
13.73291015625
11.90185546875
9.1552734375
7.32421875
10.986328125
18.310546875
21.97265625
31.1279296875
21.97265625
31.1279296875
36.62109375
37.53662109375
43.02978515625
42.1142578125
36.62109375
32.04345703125
25.634765625
24.71923828125
35.70556640625
43.02978515625
32.04345703125
24.71923828125
23.8037109375
7.32421875
12.8173828125
7.32421875
-9.1552734375
-18.310546875
-16.4794921875
-25.634765625
-37.53662109375
-42.1142578125
-41.19873046875
-35.70556640625
-37.53662109375
-32.04345703125
-20.1416015625
-10.986328125
-18.310546875
-24.71923828125
-28.38134765625
-43.02978515625
-53.1005859375
-45.7763671875
-51.26953125
-54.931640625
-58.59375
-51.26953125
-57.67822265625
-54.01611328125
-43.02978515625
-46.69189453125
-44.86083984375
-51.26953125
-53.1005859375
-52.18505859375
-54.01611328125
-52.18505859375
-45.7763671875
-39.36767578125
-55.84716796875
-59.50927734375
-64.0869140625
-52.18505859375
-53.1005859375
-58.59375
-69.580078125
-81.48193359375
-111.6943359375
-154.72412109375
-183.10546875
-174.86572265625
-149.23095703125
-109.86328125
-68.66455078125
-10.07080078125
40.283203125
107.11669921875
190.4296875
281.982421875
368.95751953125
472.412109375
593.26171875
699.462890625
823.05908203125
893.5546875
863.34228515625
749.81689453125
566.71142578125
460.51025390625
417.48046875
330.50537109375
234.375
164.794921875
106.201171875
51.26953125
32.958984375
0
-4.57763671875
2.74658203125
17.39501953125
30.21240234375
30.21240234375
25.634765625
32.04345703125
30.21240234375
33.87451171875
33.87451171875
14.6484375
5.4931640625
2.74658203125
9.1552734375
10.07080078125
4.57763671875
-0.91552734375
-0.91552734375
0.91552734375
-9.1552734375
-6.40869140625
-10.986328125
-13.73291015625
-17.39501953125
-20.1416015625
-12.8173828125
1.8310546875
2.74658203125
2.74658203125
0
-2.74658203125
-0.91552734375
-10.07080078125
-17.39501953125
-13.73291015625
2.74658203125
17.39501953125
9.1552734375
-0.91552734375
7.32421875
3.662109375
1.8310546875
6.40869140625
0
0
3.662109375
11.90185546875
13.73291015625
16.4794921875
23.8037109375
29.296875
27.4658203125
23.8037109375
20.1416015625
19.22607421875
11.90185546875
12.8173828125
16.4794921875
10.986328125
0.91552734375
15.56396484375
19.22607421875
29.296875
40.283203125
46.69189453125
47.607421875
35.70556640625
37.53662109375
46.69189453125
46.69189453125
34.7900390625
26.55029296875
30.21240234375
35.70556640625
59.50927734375
69.580078125
74.15771484375
75.98876953125
75.0732421875
68.66455078125
78.7353515625
91.552734375
88.80615234375
91.552734375
90.63720703125
91.552734375
96.13037109375
108.94775390625
108.94775390625
113.525390625
112.60986328125
114.44091796875
117.1875
104.3701171875
108.0322265625
122.6806640625
126.3427734375
136.41357421875
144.6533203125
149.23095703125
148.3154296875
153.80859375
157.470703125
156.55517578125
153.80859375
164.794921875
162.04833984375
157.470703125
151.9775390625
153.80859375
143.73779296875
140.9912109375
154.72412109375
176.69677734375
186.767578125
196.83837890625
209.65576171875
216.064453125
212.40234375
208.740234375
204.16259765625
203.2470703125
198.66943359375
202.33154296875
206.9091796875
195.9228515625
185.85205078125
175.78125
174.86572265625
163.87939453125
146.484375
143.73779296875
144.6533203125
145.56884765625
121.76513671875
106.201171875
93.3837890625
90.63720703125
65.00244140625
57.67822265625
48.52294921875
43.9453125
33.87451171875
24.71923828125
29.296875
21.97265625
6.40869140625
4.57763671875
-5.4931640625
-15.56396484375
-6.40869140625
-4.57763671875
-0.91552734375
-3.662109375
-8.23974609375
-11.90185546875
-18.310546875
-29.296875
-32.958984375
-34.7900390625
-44.86083984375
-37.53662109375
-32.958984375
-36.62109375
-35.70556640625
-37.53662109375
-43.9453125
-29.296875
-32.04345703125
-26.55029296875
-29.296875
-21.97265625
-22.88818359375
-19.22607421875
-24.71923828125
-31.1279296875
-30.21240234375
-33.87451171875
-42.1142578125
-43.02978515625
-41.19873046875
-43.9453125
-33.87451171875
-27.4658203125
-32.958984375
-32.958984375
-31.1279296875
-37.53662109375
-36.62109375
-32.04345703125
-30.21240234375
-32.04345703125
-36.62109375
-39.36767578125
-29.296875
-28.38134765625
-20.1416015625
-21.05712890625
-15.56396484375
-21.05712890625
-31.1279296875
-31.1279296875
-28.38134765625
-32.04345703125
-43.9453125
-47.607421875
-37.53662109375
-29.296875
-11.90185546875
-23.8037109375
-26.55029296875
-29.296875
-22.88818359375
-28.38134765625
-29.296875
-32.958984375
-33.87451171875
-37.53662109375
-36.62109375
-33.87451171875
-32.04345703125
-36.62109375
-42.1142578125
-39.36767578125
-37.53662109375
-37.53662109375
-25.634765625
-23.8037109375
-27.4658203125
-21.05712890625
-13.73291015625
-16.4794921875
-25.634765625
-32.958984375
-45.7763671875
-52.18505859375
-60.4248046875
-47.607421875
-41.19873046875
-35.70556640625
-27.4658203125
-37.53662109375
-43.02978515625
-38.4521484375
-40.283203125
-44.86083984375
-43.9453125
-43.02978515625
-39.36767578125
-36.62109375
-36.62109375
-41.19873046875
-39.36767578125
-51.26953125
-59.50927734375
-58.59375
-61.34033203125
-49.4384765625
-37.53662109375
-43.02978515625
-51.26953125
-52.18505859375
-52.18505859375
-62.255859375
-60.4248046875
-60.4248046875
-53.1005859375
-46.69189453125
-48.52294921875
-57.67822265625
-58.59375
-54.931640625
-46.69189453125
-48.52294921875
-53.1005859375
-47.607421875
-43.02978515625
-55.84716796875
-67.7490234375
-75.98876953125
-75.98876953125
-77.81982421875
-70.49560546875
-54.931640625
-57.67822265625
-61.34033203125
-53.1005859375
-46.69189453125
-42.1142578125
-34.7900390625
-38.4521484375
-39.36767578125
-44.86083984375
-50.35400390625
-58.59375
-62.255859375
-65.91796875
-71.4111328125
-70.49560546875
-70.49560546875
-65.91796875
-55.84716796875
-47.607421875
-54.01611328125
-48.52294921875
-60.4248046875
-65.00244140625
-65.91796875
-65.91796875
-64.0869140625
-65.91796875
-65.91796875
-62.255859375
-60.4248046875
-54.01611328125
-43.02978515625
-36.62109375
-46.69189453125
-52.18505859375
-58.59375
-55.84716796875
-53.1005859375
-50.35400390625
-47.607421875
-43.02978515625
-40.283203125
-20.1416015625
-6.40869140625
-2.74658203125
3.662109375
-7.32421875
-8.23974609375
-11.90185546875
-18.310546875
-14.6484375
-13.73291015625
0
10.986328125
30.21240234375
33.87451171875
27.4658203125
21.05712890625
19.22607421875
32.04345703125
28.38134765625
22.88818359375
18.310546875
19.22607421875
13.73291015625
7.32421875
12.8173828125
12.8173828125
14.6484375
3.662109375
-13.73291015625
-19.22607421875
-27.4658203125
-22.88818359375
-40.283203125
-41.19873046875
-41.19873046875
-54.01611328125
-54.01611328125
-48.52294921875
-45.7763671875
-56.7626953125
-65.00244140625
-60.4248046875
-59.50927734375
-64.0869140625
-63.17138671875
-58.59375
-59.50927734375
-69.580078125
-63.17138671875
-59.50927734375
-65.00244140625
-72.32666015625
-74.15771484375
-72.32666015625
-69.580078125
-61.34033203125
-61.34033203125
-57.67822265625
-56.7626953125
-65.00244140625
-70.49560546875
-68.66455078125
-75.0732421875
-75.0732421875
-67.7490234375
-68.66455078125
-75.98876953125
-81.48193359375
-67.7490234375
-58.59375
-52.18505859375
-65.91796875
-90.63720703125
-119.93408203125
-176.69677734375
-203.2470703125
-202.33154296875
-173.03466796875
-132.75146484375
-97.0458984375
-36.62109375
12.8173828125
77.81982421875
161.1328125
249.0234375
325.927734375
411.07177734375
534.66796875
648.193359375
763.5498046875
846.86279296875
845.947265625
769.04296875
615.234375
471.49658203125
420.22705078125
350.64697265625
254.5166015625
153.80859375
94.29931640625
54.01611328125
14.6484375
-7.32421875
-26.55029296875
-32.958984375
-18.310546875
5.4931640625
19.22607421875
25.634765625
18.310546875
18.310546875
6.40869140625
4.57763671875
4.57763671875
10.986328125
6.40869140625
2.74658203125
-4.57763671875
-6.40869140625
-18.310546875
-13.73291015625
-9.1552734375
-10.986328125
-9.1552734375
-0.91552734375
-0.91552734375
0
0
-7.32421875
-10.986328125
-16.4794921875
-19.22607421875
-22.88818359375
-23.8037109375
-25.634765625
-21.97265625
-25.634765625
-17.39501953125
-8.23974609375
-2.74658203125
-3.662109375
2.74658203125
2.74658203125
4.57763671875
-5.4931640625
-10.986328125
-0.91552734375
2.74658203125
0
-0.91552734375
3.662109375
0.91552734375
5.4931640625
6.40869140625
12.8173828125
11.90185546875
11.90185546875
5.4931640625
14.6484375
24.71923828125
23.8037109375
22.88818359375
7.32421875
0
10.07080078125
25.634765625
35.70556640625
40.283203125
33.87451171875
37.53662109375
36.62109375
28.38134765625
37.53662109375
43.9453125
47.607421875
43.9453125
45.7763671875
50.35400390625
53.1005859375
52.18505859375
57.67822265625
64.0869140625
65.00244140625
64.0869140625
54.931640625
54.01611328125
58.59375
67.7490234375
76.904296875
85.14404296875
79.65087890625
84.228515625
89.7216796875
90.63720703125
96.13037109375
110.77880859375
119.0185546875
119.0185546875
111.6943359375
113.525390625
113.525390625
119.93408203125
118.10302734375
120.849609375
118.10302734375
117.1875
129.08935546875
136.41357421875
153.80859375
162.04833984375
162.04833984375
163.87939453125
160.21728515625
163.87939453125
169.37255859375
179.443359375
181.2744140625
190.4296875
187.68310546875
192.2607421875
188.5986328125
193.17626953125
198.66943359375
197.75390625
196.83837890625
189.51416015625
184.02099609375
181.2744140625
184.02099609375
184.02099609375
180.35888671875
175.78125
164.794921875
154.72412109375
151.9775390625
139.16015625
119.0185546875
108.94775390625
106.201171875
88.80615234375
69.580078125
56.7626953125
49.4384765625
43.02978515625
39.36767578125
29.296875
23.8037109375
19.22607421875
12.8173828125
14.6484375
6.40869140625
-3.662109375
-0.91552734375
-7.32421875
-15.56396484375
-30.21240234375
-32.04345703125
-37.53662109375
-43.02978515625
-41.19873046875
-29.296875
-31.1279296875
-30.21240234375
-29.296875
-32.958984375
-34.7900390625
-28.38134765625
-30.21240234375
-34.7900390625
-43.02978515625
-46.69189453125
-45.7763671875
-32.958984375
-27.4658203125
-27.4658203125
-21.97265625
-34.7900390625
-49.4384765625
-50.35400390625
-43.9453125
-36.62109375
-39.36767578125
-39.36767578125
-40.283203125
-34.7900390625
-32.958984375
-36.62109375
-44.86083984375
-44.86083984375
-45.7763671875
-53.1005859375
-45.7763671875
-49.4384765625
-40.283203125
-34.7900390625
-44.86083984375
-42.1142578125
-28.38134765625
-15.56396484375
-23.8037109375
-32.04345703125
-21.05712890625
-24.71923828125
-25.634765625
-22.88818359375
-27.4658203125
-45.7763671875
-41.19873046875
-31.1279296875
-30.21240234375
-24.71923828125
-33.87451171875
-38.4521484375
-39.36767578125
-32.04345703125
-27.4658203125
-32.04345703125
-33.87451171875
-30.21240234375
-26.55029296875
-30.21240234375
-26.55029296875
-23.8037109375
-21.97265625
-27.4658203125
-25.634765625
-20.1416015625
-21.97265625
-22.88818359375
-17.39501953125
-22.88818359375
-26.55029296875
-21.05712890625
-23.8037109375
-21.05712890625
-30.21240234375
-31.1279296875
-28.38134765625
-26.55029296875
-34.7900390625
-37.53662109375
-35.70556640625
-40.283203125
-44.86083984375
-49.4384765625
-43.9453125
-43.9453125
-39.36767578125
-51.26953125
-60.4248046875
-59.50927734375
-42.1142578125
-29.296875
-34.7900390625
-37.53662109375
-40.283203125
-49.4384765625
-54.931640625
-54.931640625
-53.1005859375
-49.4384765625
-47.607421875
-37.53662109375
-42.1142578125
-43.9453125
-30.21240234375
-25.634765625
-38.4521484375
-47.607421875
-49.4384765625
-49.4384765625
-42.1142578125
-27.4658203125
-24.71923828125
-34.7900390625
-36.62109375
-46.69189453125
-64.0869140625
-84.228515625
-75.98876953125
-56.7626953125
-48.52294921875
-45.7763671875
-44.86083984375
-44.86083984375
-47.607421875
-43.02978515625
-46.69189453125
-44.86083984375
-50.35400390625
-54.01611328125
-46.69189453125
-54.931640625
-56.7626953125
-56.7626953125
-51.26953125
-43.02978515625
-36.62109375
-42.1142578125
-47.607421875
-56.7626953125
-58.59375
-52.18505859375
-51.26953125
-50.35400390625
-59.50927734375
-59.50927734375
-55.84716796875
-43.9453125
-46.69189453125
-53.1005859375
-51.26953125
-54.931640625
-53.1005859375
-48.52294921875
-46.69189453125
-54.931640625
-58.59375
-61.34033203125
-58.59375
-58.59375
-54.01611328125
-57.67822265625
-63.17138671875
-52.18505859375
-64.0869140625
-70.49560546875
-71.4111328125
-73.2421875
-72.32666015625
-61.34033203125
-73.2421875
-76.904296875
-72.32666015625
-64.0869140625
-45.7763671875
-32.04345703125
-18.310546875
-19.22607421875
-18.310546875
-11.90185546875
0.91552734375
5.4931640625
-10.986328125
-6.40869140625
-10.986328125
-8.23974609375
-6.40869140625
-0.91552734375
11.90185546875
26.55029296875
31.1279296875
29.296875
27.4658203125
20.1416015625
18.310546875
13.73291015625
18.310546875
6.40869140625
0.91552734375
0
8.23974609375
11.90185546875
14.6484375
12.8173828125
-8.23974609375
-7.32421875
-23.8037109375
-37.53662109375
-51.26953125
-54.931640625
-43.02978515625
-43.9453125
-44.86083984375
-49.4384765625
-47.607421875
-52.18505859375
-56.7626953125
-58.59375
-64.0869140625
-70.49560546875
-73.2421875
-58.59375
-47.607421875
-55.84716796875
-63.17138671875
-67.7490234375
-66.83349609375
-64.0869140625
-72.32666015625
-79.65087890625
-74.15771484375
-68.66455078125
-63.17138671875
-58.59375
-75.0732421875
-78.7353515625
-82.3974609375
-65.91796875
-64.0869140625
-69.580078125
-73.2421875
-64.0869140625
-66.83349609375
-68.66455078125
-63.17138671875
-62.255859375
-62.255859375
-81.48193359375
-86.0595703125
-110.77880859375
-152.89306640625
-191.34521484375
-202.33154296875
-167.54150390625
-124.51171875
-75.98876953125
-14.6484375
36.62109375
99.79248046875
184.02099609375
262.75634765625
327.7587890625
425.72021484375
535.58349609375
646.3623046875
768.12744140625
857.84912109375
856.01806640625
751.64794921875
584.1064453125
461.42578125
423.88916015625
353.3935546875
245.361328125
144.6533203125
80.56640625
43.02978515625
22.88818359375
-1.8310546875
-10.986328125
-13.73291015625
7.32421875
33.87451171875
31.1279296875
32.958984375
37.53662109375
31.1279296875
28.38134765625
13.73291015625
-1.8310546875
-4.57763671875
0.91552734375
6.40869140625
1.8310546875
-6.40869140625
-15.56396484375
-21.05712890625
-14.6484375
-10.986328125
-16.4794921875
-13.73291015625
-17.39501953125
-21.05712890625
-13.73291015625
-14.6484375
-20.1416015625
-27.4658203125
-19.22607421875
-15.56396484375
-17.39501953125
-20.1416015625
-13.73291015625
-10.07080078125
-10.986328125
-8.23974609375
-6.40869140625
-14.6484375
-19.22607421875
-21.97265625
-11.90185546875
-10.986328125
5.4931640625
11.90185546875
8.23974609375
11.90185546875
8.23974609375
0
-0.91552734375
8.23974609375
3.662109375
3.662109375
6.40869140625
12.8173828125
14.6484375
6.40869140625
2.74658203125
5.4931640625
14.6484375
28.38134765625
24.71923828125
26.55029296875
33.87451171875
32.04345703125
23.8037109375
17.39501953125
6.40869140625
17.39501953125
23.8037109375
30.21240234375
43.02978515625
53.1005859375
45.7763671875
36.62109375
32.958984375
33.87451171875
38.4521484375
44.86083984375
55.84716796875
59.50927734375
65.91796875
69.580078125
58.59375
60.4248046875
51.26953125
55.84716796875
77.81982421875
93.3837890625
95.21484375
102.5390625
101.62353515625
95.21484375
93.3837890625
97.0458984375
86.0595703125
95.21484375
109.86328125
119.0185546875
126.3427734375
130.92041015625
129.08935546875
138.24462890625
126.3427734375
131.8359375
134.58251953125
151.06201171875
168.45703125
169.37255859375
168.45703125
171.20361328125
164.794921875
166.6259765625
171.20361328125
184.02099609375
173.9501953125
173.03466796875
173.9501953125
174.86572265625
180.35888671875
174.86572265625
184.02099609375
192.2607421875
188.5986328125
185.85205078125
182.18994140625
188.5986328125
181.2744140625
169.37255859375
156.55517578125
145.56884765625
129.08935546875
137.3291015625
130.92041015625
119.0185546875
115.3564453125
110.77880859375
104.3701171875
99.79248046875
93.3837890625
67.7490234375
56.7626953125
54.01611328125
41.19873046875
32.958984375
24.71923828125
14.6484375
9.1552734375
1.8310546875
-1.8310546875
-4.57763671875
-16.4794921875
-17.39501953125
-13.73291015625
-24.71923828125
-27.4658203125
-37.53662109375
-33.87451171875
-26.55029296875
-23.8037109375
-24.71923828125
-30.21240234375
-27.4658203125
-31.1279296875
-36.62109375
-33.87451171875
-29.296875
-23.8037109375
-34.7900390625
-36.62109375
-43.9453125
-50.35400390625
-61.34033203125
-52.18505859375
-51.26953125
-57.67822265625
-46.69189453125
-35.70556640625
-31.1279296875
-22.88818359375
-27.4658203125
-37.53662109375
-52.18505859375
-50.35400390625
-46.69189453125
-37.53662109375
-29.296875
-24.71923828125
-31.1279296875
-30.21240234375
-29.296875
-33.87451171875
-24.71923828125
-26.55029296875
-22.88818359375
-12.8173828125
-16.4794921875
-20.1416015625
-13.73291015625
-21.05712890625
-37.53662109375
-37.53662109375
-39.36767578125
-34.7900390625
-32.958984375
-30.21240234375
-23.8037109375
-22.88818359375
-14.6484375
-11.90185546875
-20.1416015625
-10.986328125
-16.4794921875
-14.6484375
-21.97265625
-29.296875
-29.296875
-31.1279296875
-27.4658203125
-27.4658203125
-36.62109375
-31.1279296875
-38.4521484375
-39.36767578125
-31.1279296875
-22.88818359375
-26.55029296875
-30.21240234375
-30.21240234375
-32.958984375
-34.7900390625
-35.70556640625
-40.283203125
-37.53662109375
-43.02978515625
-49.4384765625
-49.4384765625
-49.4384765625
-47.607421875
-41.19873046875
-43.02978515625
-35.70556640625
-34.7900390625
-42.1142578125
-40.283203125
-41.19873046875
-39.36767578125
-39.36767578125
-33.87451171875
-43.9453125
-47.607421875
-45.7763671875
-53.1005859375
-57.67822265625
-58.59375
-48.52294921875
-39.36767578125
-37.53662109375
-43.02978515625
-53.1005859375
-64.0869140625
-65.00244140625
-54.931640625
-54.01611328125
-49.4384765625
-39.36767578125
-43.9453125
-44.86083984375
-50.35400390625
-47.607421875
-50.35400390625
-32.04345703125
-38.4521484375
-53.1005859375
-60.4248046875
-50.35400390625
-45.7763671875
-51.26953125
-51.26953125
-63.17138671875
-62.255859375
-66.83349609375
-70.49560546875
-64.0869140625
-60.4248046875
-56.7626953125
-55.84716796875
-47.607421875
-38.4521484375
-29.296875
-32.958984375
-42.1142578125
-49.4384765625
-50.35400390625
-59.50927734375
-56.7626953125
-56.7626953125
-66.83349609375
-57.67822265625
-61.34033203125
-54.01611328125
-48.52294921875
-47.607421875
-49.4384765625
-51.26953125
-51.26953125
-51.26953125
-54.01611328125
-61.34033203125
-60.4248046875
-54.01611328125
-52.18505859375
-57.67822265625
-51.26953125
-47.607421875
-50.35400390625
-55.84716796875
-60.4248046875
-59.50927734375
-57.67822265625
-65.00244140625
-54.01611328125
-44.86083984375
-37.53662109375
-37.53662109375
-31.1279296875
-12.8173828125
-3.662109375
-10.986328125
-15.56396484375
-16.4794921875
-10.986328125
-5.4931640625
-5.4931640625
-17.39501953125
0
28.38134765625
26.55029296875
19.22607421875
32.958984375
32.04345703125
23.8037109375
31.1279296875
34.7900390625
25.634765625
14.6484375
14.6484375
15.56396484375
17.39501953125
20.1416015625
26.55029296875
21.05712890625
17.39501953125
1.8310546875
-6.40869140625
-16.4794921875
-28.38134765625
-31.1279296875
-34.7900390625
-41.19873046875
-47.607421875
-45.7763671875
-54.931640625
-51.26953125
-47.607421875
-54.01611328125
-46.69189453125
-46.69189453125
-49.4384765625
-47.607421875
-45.7763671875
-46.69189453125
-49.4384765625
-43.02978515625
-40.283203125
-37.53662109375
-38.4521484375
-60.4248046875
-71.4111328125
-74.15771484375
-75.98876953125
-72.32666015625
-61.34033203125
-61.34033203125
-57.67822265625
-59.50927734375
-59.50927734375
-62.255859375
-57.67822265625
-57.67822265625
-65.00244140625
-59.50927734375
-65.91796875
-60.4248046875
-70.49560546875
-81.48193359375
-74.15771484375
-87.890625
-108.94775390625
-139.16015625
-174.86572265625
-192.2607421875
-182.18994140625
-149.23095703125
-103.45458984375
-52.18505859375
5.4931640625
54.01611328125
125.42724609375
201.416015625
273.74267578125
339.66064453125
453.18603515625
574.03564453125
681.15234375
802.001953125
867.00439453125
833.1298828125
713.19580078125
543.8232421875
453.18603515625
392.76123046875
310.36376953125
203.2470703125
127.25830078125
78.7353515625
33.87451171875
11.90185546875
-4.57763671875
-21.97265625
-22.88818359375
1.8310546875
12.8173828125
19.22607421875
16.4794921875
23.8037109375
24.71923828125
21.05712890625
7.32421875
0.91552734375
1.8310546875
-2.74658203125
-14.6484375
-15.56396484375
-16.4794921875
-21.05712890625
-21.97265625
-10.986328125
-4.57763671875
-2.74658203125
-4.57763671875
-9.1552734375
-26.55029296875
-28.38134765625
-14.6484375
-13.73291015625
-16.4794921875
-37.53662109375
-29.296875
-13.73291015625
-12.8173828125
-10.986328125
-9.1552734375
-5.4931640625
-6.40869140625
0
2.74658203125
-1.8310546875
-0.91552734375
6.40869140625
10.07080078125
4.57763671875
0
0.91552734375
2.74658203125
6.40869140625
14.6484375
23.8037109375
15.56396484375
12.8173828125
4.57763671875
9.1552734375
20.1416015625
13.73291015625
17.39501953125
20.1416015625
14.6484375
15.56396484375
11.90185546875
12.8173828125
23.8037109375
28.38134765625
26.55029296875
33.87451171875
30.21240234375
21.05712890625
36.62109375
43.02978515625
42.1142578125
32.958984375
34.7900390625
34.7900390625
39.36767578125
41.19873046875
37.53662109375
48.52294921875
64.0869140625
56.7626953125
63.17138671875
65.00244140625
65.91796875
60.4248046875
65.00244140625
63.17138671875
66.83349609375
75.98876953125
74.15771484375
87.890625
96.13037109375
99.79248046875
98.876953125
83.31298828125
83.31298828125
99.79248046875
119.93408203125
135.498046875
138.24462890625
142.822265625
144.6533203125
145.56884765625
139.16015625
142.822265625
154.72412109375
163.87939453125
173.9501953125
168.45703125
164.794921875
165.71044921875
177.6123046875
182.18994140625
186.767578125
190.4296875
194.091796875
192.2607421875
190.4296875
197.75390625
196.83837890625
203.2470703125
204.16259765625
203.2470703125
198.66943359375
182.18994140625
173.9501953125
181.2744140625
174.86572265625
178.52783203125
165.71044921875
155.6396484375
151.9775390625
143.73779296875
138.24462890625
125.42724609375
125.42724609375
119.93408203125
98.876953125
88.80615234375
92.46826171875
78.7353515625
67.7490234375
56.7626953125
52.18505859375
43.02978515625
21.97265625
15.56396484375
19.22607421875
10.07080078125
-4.57763671875
-20.1416015625
-18.310546875
-12.8173828125
-20.1416015625
-19.22607421875
-16.4794921875
-17.39501953125
-22.88818359375
-27.4658203125
-32.04345703125
-30.21240234375
-32.04345703125
-32.958984375
-32.04345703125
-37.53662109375
-52.18505859375
-64.0869140625
-66.83349609375
-55.84716796875
-50.35400390625
-42.1142578125
-36.62109375
-32.04345703125
-33.87451171875
-33.87451171875
-34.7900390625
-38.4521484375
-43.02978515625
-37.53662109375
-42.1142578125
-44.86083984375
-45.7763671875
-38.4521484375
-32.04345703125
-29.296875
-22.88818359375
-26.55029296875
-31.1279296875
-33.87451171875
-28.38134765625
-31.1279296875
-32.958984375
-31.1279296875
-34.7900390625
-40.283203125
-41.19873046875
-24.71923828125
-30.21240234375
-44.86083984375
-43.9453125
-41.19873046875
-49.4384765625
-50.35400390625
-43.02978515625
-42.1142578125
-37.53662109375
-32.04345703125
-32.04345703125
-36.62109375
-38.4521484375
-30.21240234375
-19.22607421875
-12.8173828125
-16.4794921875
-17.39501953125
-19.22607421875
-20.1416015625
-17.39501953125
-25.634765625
-39.36767578125
-45.7763671875
-40.283203125
-44.86083984375
-48.52294921875
-37.53662109375
-38.4521484375
-38.4521484375
-39.36767578125
-33.87451171875
-24.71923828125
-24.71923828125
-32.958984375
-45.7763671875
-58.59375
-63.17138671875
-43.9453125
-38.4521484375
-27.4658203125
-29.296875
-34.7900390625
-28.38134765625
-26.55029296875
-32.04345703125
-37.53662109375
-38.4521484375
-32.04345703125
-26.55029296875
-31.1279296875
-33.87451171875
-24.71923828125
-27.4658203125
-23.8037109375
-24.71923828125
-36.62109375
-49.4384765625
-47.607421875
-51.26953125
-52.18505859375
-49.4384765625
-50.35400390625
-48.52294921875
-47.607421875
-50.35400390625
-47.607421875
-53.1005859375
-54.01611328125
-53.1005859375
-47.607421875
-42.1142578125
-43.02978515625
-47.607421875
-49.4384765625
-57.67822265625
-72.32666015625
-75.98876953125
-64.0869140625
-63.17138671875
-58.59375
-51.26953125
-46.69189453125
-57.67822265625
-52.18505859375
-57.67822265625
-59.50927734375
-49.4384765625
-54.931640625
-54.931640625
-48.52294921875
-54.01611328125
-44.86083984375
-45.7763671875
-52.18505859375
-61.34033203125
-63.17138671875
-54.931640625
-51.26953125
-52.18505859375
-48.52294921875
-42.1142578125
-61.34033203125
-72.32666015625
-63.17138671875
-62.255859375
-57.67822265625
-64.0869140625
-62.255859375
-51.26953125
-55.84716796875
-51.26953125
-53.1005859375
-61.34033203125
-54.01611328125
-53.1005859375
-55.84716796875
-61.34033203125
-70.49560546875
-68.66455078125
-56.7626953125
-54.01611328125
-59.50927734375
-66.83349609375
-61.34033203125
-52.18505859375
-53.1005859375
-49.4384765625
-49.4384765625
-59.50927734375
-67.7490234375
-61.34033203125
-57.67822265625
-47.607421875
-49.4384765625
-52.18505859375
-40.283203125
-32.958984375
-19.22607421875
-18.310546875
-10.07080078125
-5.4931640625
-13.73291015625
-10.986328125
-7.32421875
-17.39501953125
-20.1416015625
-13.73291015625
6.40869140625
27.4658203125
29.296875
24.71923828125
24.71923828125
22.88818359375
17.39501953125
10.986328125
10.07080078125
8.23974609375
13.73291015625
6.40869140625
10.07080078125
5.4931640625
11.90185546875
0.91552734375
-10.07080078125
-6.40869140625
-9.1552734375
-9.1552734375
-32.04345703125
-49.4384765625
-44.86083984375
-43.02978515625
-40.283203125
-42.1142578125
-61.34033203125
-57.67822265625
-52.18505859375
-53.1005859375
-46.69189453125
-57.67822265625
-65.91796875
-66.83349609375
-76.904296875
-65.91796875
-51.26953125
-55.84716796875
-60.4248046875
-54.931640625
-54.01611328125
-49.4384765625
-45.7763671875
-51.26953125
-48.52294921875
-54.931640625
-55.84716796875
-67.7490234375
-67.7490234375
-62.255859375
-68.66455078125
-69.580078125
-64.0869140625
-59.50927734375
-61.34033203125
-61.34033203125
-60.4248046875
-56.7626953125
-54.01611328125
-65.91796875
-89.7216796875
-124.51171875
-154.72412109375
-182.18994140625
-197.75390625
-181.2744140625
-144.6533203125
-104.3701171875
-53.1005859375
-1.8310546875
50.35400390625
124.51171875
206.9091796875
286.56005859375
366.2109375
487.97607421875
600.5859375
706.787109375
821.22802734375
856.01806640625
807.4951171875
676.57470703125
498.046875
430.2978515625
378.11279296875
277.40478515625
193.17626953125
125.42724609375
80.56640625
38.4521484375
4.57763671875
-17.39501953125
-29.296875
-5.4931640625
21.05712890625
32.958984375
24.71923828125
23.8037109375
32.04345703125
32.958984375
20.1416015625
5.4931640625
-1.8310546875
-9.1552734375
-27.4658203125
-26.55029296875
-26.55029296875
-20.1416015625
-18.310546875
-21.05712890625
-19.22607421875
-27.4658203125
-19.22607421875
-11.90185546875
-8.23974609375
-11.90185546875
-11.90185546875
-11.90185546875
-10.07080078125
-9.1552734375
-10.07080078125
-10.986328125
-10.986328125
-8.23974609375
-10.07080078125
-10.07080078125
-6.40869140625
-0.91552734375
-5.4931640625
-15.56396484375
-21.97265625
-11.90185546875
0
6.40869140625
2.74658203125
0
-4.57763671875
-7.32421875
-10.07080078125
-5.4931640625
11.90185546875
11.90185546875
0.91552734375
2.74658203125
2.74658203125
10.07080078125
19.22607421875
20.1416015625
16.4794921875
15.56396484375
2.74658203125
20.1416015625
9.1552734375
-3.662109375
10.986328125
27.4658203125
25.634765625
21.05712890625
21.97265625
24.71923828125
32.04345703125
21.97265625
23.8037109375
35.70556640625
36.62109375
40.283203125
41.19873046875
43.9453125
46.69189453125
54.931640625
43.9453125
50.35400390625
45.7763671875
61.34033203125
67.7490234375
62.255859375
62.255859375
73.2421875
78.7353515625
85.14404296875
80.56640625
91.552734375
93.3837890625
84.228515625
97.0458984375
109.86328125
112.60986328125
107.11669921875
113.525390625
123.59619140625
127.25830078125
129.08935546875
140.07568359375
147.39990234375
151.06201171875
155.6396484375
162.9638671875
160.21728515625
157.470703125
161.1328125
171.20361328125
178.52783203125
180.35888671875
177.6123046875
186.767578125
185.85205078125
180.35888671875
184.9365234375
192.2607421875
193.17626953125
205.99365234375
211.48681640625
206.9091796875
211.48681640625
210.5712890625
199.5849609375
200.50048828125
203.2470703125
195.9228515625
185.85205078125
178.52783203125
161.1328125
165.71044921875
160.21728515625
146.484375
138.24462890625
133.6669921875
113.525390625
97.96142578125
82.3974609375
60.4248046875
51.26953125
51.26953125
49.4384765625
41.19873046875
40.283203125
35.70556640625
21.97265625
10.986328125
2.74658203125
13.73291015625
8.23974609375
-10.986328125
-20.1416015625
-15.56396484375
-21.97265625
-29.296875
-26.55029296875
-23.8037109375
-27.4658203125
-30.21240234375
-31.1279296875
-28.38134765625
-24.71923828125
-31.1279296875
-23.8037109375
-21.97265625
-22.88818359375
-21.97265625
-50.35400390625
-46.69189453125
-45.7763671875
-43.02978515625
-44.86083984375
-38.4521484375
-43.9453125
-36.62109375
-37.53662109375
-43.02978515625
-43.02978515625
-41.19873046875
-33.87451171875
-31.1279296875
-32.04345703125
-32.04345703125
-36.62109375
-28.38134765625
-29.296875
-30.21240234375
-36.62109375
-43.9453125
-35.70556640625
-32.04345703125
