ECG
-7.32421875
-5.4931640625
0
5.4931640625
-10.986328125
-11.90185546875
-10.986328125
-18.310546875
-16.4794921875
-13.73291015625
-10.07080078125
0.91552734375
1.8310546875
-5.4931640625
-17.39501953125
-29.296875
-9.1552734375
-2.74658203125
-15.56396484375
-4.57763671875
-5.4931640625
-18.310546875
-20.1416015625
-16.4794921875
-9.1552734375
-13.73291015625
-21.05712890625
-19.22607421875
-27.4658203125
-34.7900390625
-28.38134765625
-29.296875
-26.55029296875
-35.70556640625
-23.8037109375
-13.73291015625
-11.90185546875
-22.88818359375
-21.05712890625
-21.97265625
-25.634765625
-27.4658203125
-21.97265625
-27.4658203125
-31.1279296875
-18.310546875
-21.97265625
-21.97265625
-15.56396484375
-19.22607421875
-26.55029296875
-21.05712890625
-35.70556640625
-45.7763671875
-35.70556640625
-30.21240234375
-28.38134765625
-30.21240234375
-35.70556640625
-38.4521484375
-40.283203125
-25.634765625
-11.90185546875
-26.55029296875
-31.1279296875
-26.55029296875
-27.4658203125
-36.62109375
-35.70556640625
-31.1279296875
-32.958984375
-28.38134765625
-23.8037109375
-27.4658203125
-19.22607421875
4.57763671875
8.23974609375
15.56396484375
30.21240234375
21.97265625
21.97265625
21.05712890625
10.07080078125
19.22607421875
29.296875
31.1279296875
43.02978515625
33.87451171875
33.87451171875
46.69189453125
48.52294921875
54.931640625
65.00244140625
54.931640625
47.607421875
59.50927734375
46.69189453125
43.02978515625
62.255859375
58.59375
54.01611328125
48.52294921875
35.70556640625
21.05712890625
17.39501953125
15.56396484375
11.90185546875
3.662109375
-5.4931640625
-7.32421875
-9.1552734375
-17.39501953125
-24.71923828125
-27.4658203125
-43.02978515625
-35.70556640625
-32.04345703125
-41.19873046875
-44.86083984375
-21.97265625
-23.8037109375
-29.296875
-24.71923828125
-32.04345703125
-41.19873046875
-55.84716796875
-59.50927734375
-52.18505859375
-52.18505859375
-53.1005859375
-59.50927734375
-46.69189453125
-31.1279296875
-28.38134765625
-38.4521484375
-40.283203125
-31.1279296875
-32.958984375
-31.1279296875
-32.958984375
-33.87451171875
-40.283203125
-37.53662109375
-30.21240234375
-48.52294921875
-44.86083984375
-55.84716796875
-79.65087890625
-100.7080078125
-138.24462890625
-162.04833984375
-153.80859375
-117.1875
-79.65087890625
-43.9453125
15.56396484375
73.2421875
138.24462890625
212.40234375
282.89794921875
367.12646484375
466.00341796875
575.86669921875
693.9697265625
820.3125
897.216796875
870.66650390625
755.31005859375
585.9375
466.9189453125
414.73388671875
325.927734375
234.375
151.06201171875
101.62353515625
58.59375
21.97265625
10.986328125
-3.662109375
-3.662109375
14.6484375
25.634765625
35.70556640625
34.7900390625
37.53662109375
57.67822265625
42.1142578125
30.21240234375
19.22607421875
11.90185546875
7.32421875
15.56396484375
21.97265625
15.56396484375
16.4794921875
17.39501953125
16.4794921875
2.74658203125
-5.4931640625
-1.8310546875
-27.4658203125
-22.88818359375
-14.6484375
-16.4794921875
-6.40869140625
-6.40869140625
0
9.1552734375
10.07080078125
3.662109375
-8.23974609375
4.57763671875
11.90185546875
17.39501953125
17.39501953125
20.1416015625
21.05712890625
12.8173828125
18.310546875
24.71923828125
26.55029296875
22.88818359375
4.57763671875
13.73291015625
14.6484375
22.88818359375
28.38134765625
34.7900390625
26.55029296875
27.4658203125
30.21240234375
32.04345703125
33.87451171875
32.958984375
27.4658203125
29.296875
31.1279296875
23.8037109375
32.958984375
50.35400390625
54.931640625
66.83349609375
63.17138671875
49.4384765625
35.70556640625
29.296875
36.62109375
44.86083984375
44.86083984375
43.02978515625
54.01611328125
59.50927734375
56.7626953125
50.35400390625
55.84716796875
51.26953125
54.931640625
59.50927734375
55.84716796875
61.34033203125
55.84716796875
62.255859375
78.7353515625
89.7216796875
83.31298828125
88.80615234375
114.44091796875
110.77880859375
105.28564453125
112.60986328125
104.3701171875
105.28564453125
102.5390625
118.10302734375
119.93408203125
125.42724609375
123.59619140625
130.0048828125
120.849609375
122.6806640625
139.16015625
144.6533203125
144.6533203125
144.6533203125
151.06201171875
140.07568359375
135.498046875
142.822265625
148.3154296875
140.9912109375
149.23095703125
147.39990234375
151.06201171875
149.23095703125
156.55517578125
162.04833984375
158.38623046875
154.72412109375
151.06201171875
149.23095703125
144.6533203125
142.822265625
137.3291015625
132.75146484375
135.498046875
121.76513671875
114.44091796875
108.0322265625
90.63720703125
87.890625
70.49560546875
73.2421875
70.49560546875
54.01611328125
42.1142578125
39.36767578125
20.1416015625
14.6484375
12.8173828125
0.91552734375
2.74658203125
-3.662109375
-12.8173828125
-25.634765625
-13.73291015625
-22.88818359375
-28.38134765625
-23.8037109375
-21.05712890625
-14.6484375
-21.97265625
-28.38134765625
-16.4794921875
-20.1416015625
-29.296875
-40.283203125
-48.52294921875
-39.36767578125
-26.55029296875
-25.634765625
-35.70556640625
-44.86083984375
-44.86083984375
-43.9453125
-38.4521484375
-36.62109375
-32.04345703125
-52.18505859375
-30.21240234375
-40.283203125
-42.1142578125
-40.283203125
-45.7763671875
-39.36767578125
-28.38134765625
-28.38134765625
-36.62109375
-36.62109375
-47.607421875
-35.70556640625
-41.19873046875
-35.70556640625
-43.9453125
-35.70556640625
-24.71923828125
-10.07080078125
-5.4931640625
-1.8310546875
-10.986328125
-36.62109375
-36.62109375
-29.296875
-38.4521484375
-43.02978515625
-33.87451171875
-28.38134765625
-27.4658203125
-29.296875
-25.634765625
-28.38134765625
-33.87451171875
-32.958984375
-23.8037109375
-24.71923828125
-19.22607421875
-21.97265625
-6.40869140625
-13.73291015625
-33.87451171875
-43.9453125
-37.53662109375
-25.634765625
-25.634765625
-36.62109375
-24.71923828125
-14.6484375
-21.97265625
-21.97265625
-26.55029296875
-33.87451171875
-40.283203125
-37.53662109375
-39.36767578125
-40.283203125
-43.02978515625
-45.7763671875
-43.9453125
-42.1142578125
-44.86083984375
-40.283203125
-21.97265625
-33.87451171875
-42.1142578125
-46.69189453125
-48.52294921875
-46.69189453125
-43.02978515625
-46.69189453125
-45.7763671875
-43.02978515625
-54.01611328125
-70.49560546875
-65.00244140625
-50.35400390625
-39.36767578125
-35.70556640625
-49.4384765625
-42.1142578125
-37.53662109375
-43.9453125
-48.52294921875
-56.7626953125
-42.1142578125
-43.9453125
-74.15771484375
-60.4248046875
-57.67822265625
-66.83349609375
-62.255859375
-67.7490234375
-68.66455078125
-63.17138671875
-55.84716796875
-56.7626953125
-55.84716796875
-63.17138671875
-43.02978515625
-42.1142578125
-47.607421875
-51.26953125
-53.1005859375
-59.50927734375
-52.18505859375
-54.931640625
-51.26953125
-51.26953125
-41.19873046875
-49.4384765625
-38.4521484375
-41.19873046875
-40.283203125
-60.4248046875
-63.17138671875
-33.87451171875
-35.70556640625
-35.70556640625
-25.634765625
-6.40869140625
-7.32421875
-14.6484375
-19.22607421875
-1.8310546875
-3.662109375
8.23974609375
16.4794921875
22.88818359375
29.296875
26.55029296875
23.8037109375
25.634765625
24.71923828125
27.4658203125
26.55029296875
17.39501953125
24.71923828125
28.38134765625
20.1416015625
16.4794921875
9.1552734375
6.40869140625
-11.90185546875
-18.310546875
-19.22607421875
-33.87451171875
-33.87451171875
-36.62109375
-34.7900390625
-41.19873046875
-49.4384765625
-62.255859375
-73.2421875
-75.0732421875
-66.83349609375
-72.32666015625
-73.2421875
-77.81982421875
-67.7490234375
-60.4248046875
-70.49560546875
-63.17138671875
-60.4248046875
-59.50927734375
-65.00244140625
-68.66455078125
-69.580078125
-85.14404296875
-77.81982421875
-73.2421875
-75.98876953125
-80.56640625
-77.81982421875
-80.56640625
-76.904296875
-69.580078125
-75.0732421875
-85.14404296875
-86.0595703125
-78.7353515625
-70.49560546875
-62.255859375
-56.7626953125
-70.49560546875
-74.15771484375
-96.13037109375
-113.525390625
-150.146484375
-185.85205078125
-202.33154296875
-193.17626953125
-184.9365234375
-130.0048828125
-71.4111328125
-22.88818359375
31.1279296875
97.0458984375
182.18994140625
254.5166015625
314.94140625
408.3251953125
526.42822265625
647.27783203125
766.29638671875
845.947265625
837.70751953125
731.50634765625
558.4716796875
423.88916015625
391.845703125
346.98486328125
256.34765625
154.72412109375
99.79248046875
65.91796875
44.86083984375
3.662109375
-18.310546875
-25.634765625
-11.90185546875
2.74658203125
23.8037109375
20.1416015625
19.22607421875
9.1552734375
-2.74658203125
-13.73291015625
-42.1142578125
-21.97265625
-17.39501953125
-27.4658203125
-24.71923828125
-21.05712890625
-27.4658203125
-29.296875
-34.7900390625
-26.55029296875
-6.40869140625
-12.8173828125
-12.8173828125
-8.23974609375
-14.6484375
-25.634765625
-34.7900390625
-28.38134765625
-26.55029296875
-31.1279296875
-13.73291015625
-9.1552734375
-21.05712890625
-18.310546875
-11.90185546875
-9.1552734375
-18.310546875
-20.1416015625
-12.8173828125
9.1552734375
11.90185546875
0.91552734375
-12.8173828125
-16.4794921875
-14.6484375
-16.4794921875
-6.40869140625
7.32421875
-0.91552734375
-3.662109375
4.57763671875
10.07080078125
8.23974609375
1.8310546875
5.4931640625
9.1552734375
21.05712890625
21.05712890625
25.634765625
24.71923828125
21.05712890625
10.986328125
0
9.1552734375
9.1552734375
43.9453125
49.4384765625
38.4521484375
33.87451171875
35.70556640625
31.1279296875
34.7900390625
32.958984375
43.02978515625
52.18505859375
44.86083984375
50.35400390625
38.4521484375
43.02978515625
50.35400390625
52.18505859375
60.4248046875
70.49560546875
75.0732421875
74.15771484375
86.0595703125
84.228515625
79.65087890625
73.2421875
73.2421875
81.48193359375
84.228515625
86.97509765625
85.14404296875
82.3974609375
80.56640625
85.14404296875
106.201171875
112.60986328125
109.86328125
110.77880859375
118.10302734375
123.59619140625
133.6669921875
132.75146484375
136.41357421875
123.59619140625
115.3564453125
119.93408203125
117.1875
106.201171875
112.60986328125
122.6806640625
125.42724609375
131.8359375
137.3291015625
146.484375
131.8359375
123.59619140625
112.60986328125
116.27197265625
125.42724609375
124.51171875
128.173828125
115.3564453125
113.525390625
112.60986328125
100.7080078125
90.63720703125
89.7216796875
80.56640625
68.66455078125
59.50927734375
44.86083984375
35.70556640625
23.8037109375
22.88818359375
21.05712890625
2.74658203125
-11.90185546875
6.40869140625
1.8310546875
-4.57763671875
-9.1552734375
-0.91552734375
0.91552734375
-1.8310546875
-19.22607421875
-25.634765625
-27.4658203125
-32.958984375
-33.87451171875
-37.53662109375
-46.69189453125
-50.35400390625
-44.86083984375
-38.4521484375
-34.7900390625
-42.1142578125
-36.62109375
-40.283203125
-44.86083984375
-32.04345703125
-35.70556640625
-43.9453125
-28.38134765625
-30.21240234375
-43.9453125
-50.35400390625
-54.931640625
-44.86083984375
-47.607421875
-47.607421875
-35.70556640625
-32.958984375
-31.1279296875
-40.283203125
-41.19873046875
-28.38134765625
-31.1279296875
-27.4658203125
-23.8037109375
-32.04345703125
-45.7763671875
-44.86083984375
-43.02978515625
-35.70556640625
-27.4658203125
-19.22607421875
-25.634765625
-21.97265625
-23.8037109375
-31.1279296875
-27.4658203125
-26.55029296875
-18.310546875
-15.56396484375
-25.634765625
-27.4658203125
-21.97265625
-22.88818359375
-33.87451171875
-33.87451171875
-31.1279296875
-40.283203125
-36.62109375
-26.55029296875
-13.73291015625
-16.4794921875
-21.05712890625
-30.21240234375
-41.19873046875
-43.9453125
-32.04345703125
-27.4658203125
-22.88818359375
-18.310546875
-19.22607421875
-22.88818359375
-15.56396484375
-22.88818359375
-32.958984375
-32.958984375
-24.71923828125
-20.1416015625
-22.88818359375
-32.958984375
-34.7900390625
-32.04345703125
-37.53662109375
-36.62109375
-35.70556640625
-41.19873046875
-53.1005859375
-50.35400390625
-38.4521484375
-24.71923828125
-19.22607421875
-33.87451171875
-43.9453125
-49.4384765625
-43.02978515625
-42.1142578125
-37.53662109375
-43.9453125
-54.931640625
-54.01611328125
-47.607421875
-37.53662109375
-50.35400390625
-53.1005859375
-42.1142578125
-46.69189453125
-39.36767578125
-44.86083984375
-54.931640625
-56.7626953125
-58.59375
-64.0869140625
-57.67822265625
-59.50927734375
-56.7626953125
-59.50927734375
-54.01611328125
-55.84716796875
-50.35400390625
-41.19873046875
-40.283203125
-47.607421875
-54.931640625
-60.4248046875
-51.26953125
-30.21240234375
-23.8037109375
-26.55029296875
-28.38134765625
-30.21240234375
-55.84716796875
-54.01611328125
-50.35400390625
-48.52294921875
-43.02978515625
-56.7626953125
-50.35400390625
-53.1005859375
-56.7626953125
-53.1005859375
-62.255859375
-29.296875
-10.07080078125
-1.8310546875
0
-13.73291015625
-11.90185546875
-17.39501953125
-13.73291015625
-5.4931640625
3.662109375
9.1552734375
13.73291015625
22.88818359375
39.36767578125
45.7763671875
45.7763671875
43.9453125
46.69189453125
34.7900390625
28.38134765625
13.73291015625
9.1552734375
11.90185546875
17.39501953125
19.22607421875
33.87451171875
25.634765625
7.32421875
5.4931640625
-0.91552734375
-13.73291015625
-26.55029296875
-31.1279296875
-36.62109375
-38.4521484375
-58.59375
-50.35400390625
-54.01611328125
-56.7626953125
-41.19873046875
-46.69189453125
-39.36767578125
-43.02978515625
-43.9453125
-48.52294921875
-42.1142578125
-45.7763671875
-48.52294921875
-49.4384765625
-56.7626953125
-61.34033203125
-56.7626953125
-57.67822265625
-63.17138671875
-61.34033203125
-61.34033203125
-51.26953125
-50.35400390625
-54.01611328125
-54.931640625
-63.17138671875
-79.65087890625
-60.4248046875
-56.7626953125
-67.7490234375
-68.66455078125
-68.66455078125
-71.4111328125
-69.580078125
-73.2421875
-66.83349609375
-76.904296875
-97.96142578125
-113.525390625
-148.3154296875
-176.69677734375
-184.02099609375
-167.54150390625
-130.92041015625
-86.0595703125
-31.1279296875
25.634765625
66.83349609375
137.3291015625
216.064453125
304.87060546875
380.859375
490.72265625
600.5859375
703.125
812.98828125
835.87646484375
777.28271484375
632.62939453125
469.66552734375
403.74755859375
357.0556640625
275.57373046875
181.2744140625
91.552734375
38.4521484375
24.71923828125
-10.07080078125
-34.7900390625
-35.70556640625
-18.310546875
15.56396484375
23.8037109375
22.88818359375
20.1416015625
21.05712890625
14.6484375
10.986328125
6.40869140625
-0.91552734375
-9.1552734375
-21.05712890625
-9.1552734375
-14.6484375
-21.05712890625
-21.97265625
-18.310546875
-7.32421875
-1.8310546875
-10.07080078125
-10.986328125
-14.6484375
-32.04345703125
-26.55029296875
-11.90185546875
-10.07080078125
-16.4794921875
-21.97265625
-26.55029296875
-22.88818359375
-10.986328125
4.57763671875
6.40869140625
-1.8310546875
-11.90185546875
-5.4931640625
10.986328125
4.57763671875
3.662109375
2.74658203125
2.74658203125
0.91552734375
-2.74658203125
-6.40869140625
-2.74658203125
-4.57763671875
-7.32421875
10.07080078125
10.07080078125
5.4931640625
8.23974609375
4.57763671875
10.07080078125
20.1416015625
21.97265625
23.8037109375
31.1279296875
36.62109375
39.36767578125
29.296875
24.71923828125
36.62109375
39.36767578125
41.19873046875
40.283203125
44.86083984375
36.62109375
32.958984375
30.21240234375
45.7763671875
47.607421875
43.9453125
45.7763671875
53.1005859375
57.67822265625
63.17138671875
69.580078125
64.0869140625
54.931640625
57.67822265625
66.83349609375
74.15771484375
83.31298828125
93.3837890625
87.890625
87.890625
95.21484375
86.0595703125
95.21484375
99.79248046875
93.3837890625
94.29931640625
127.25830078125
122.6806640625
106.201171875
108.0322265625
114.44091796875
123.59619140625
129.08935546875
131.8359375
127.25830078125
132.75146484375
133.6669921875
129.08935546875
140.9912109375
147.39990234375
132.75146484375
133.6669921875
139.16015625
140.9912109375
146.484375
160.21728515625
158.38623046875
156.55517578125
162.04833984375
164.794921875
151.9775390625
146.484375
142.822265625
149.23095703125
151.9775390625
149.23095703125
141.90673828125
134.58251953125
107.11669921875
98.876953125
102.5390625
91.552734375
83.31298828125
80.56640625
71.4111328125
71.4111328125
59.50927734375
41.19873046875
35.70556640625
32.04345703125
34.7900390625
30.21240234375
10.986328125
12.8173828125
10.07080078125
-3.662109375
-15.56396484375
-23.8037109375
-32.958984375
-19.22607421875
-10.07080078125
-26.55029296875
-41.19873046875
-41.19873046875
-36.62109375
-30.21240234375
-21.05712890625
-19.22607421875
-23.8037109375
-40.283203125
-50.35400390625
-43.9453125
-28.38134765625
-31.1279296875
-27.4658203125
-32.04345703125
-34.7900390625
-36.62109375
-36.62109375
-33.87451171875
-37.53662109375
-51.26953125
-47.607421875
-34.7900390625
-39.36767578125
-33.87451171875
-36.62109375
-35.70556640625
-16.4794921875
-10.986328125
-21.97265625
-21.05712890625
-35.70556640625
-21.97265625
-8.23974609375
-17.39501953125
-21.97265625
-26.55029296875
-17.39501953125
-10.986328125
-10.986328125
-13.73291015625
-22.88818359375
-24.71923828125
-12.8173828125
-21.97265625
-29.296875
-22.88818359375
-21.97265625
-21.97265625
-24.71923828125
-24.71923828125
-12.8173828125
-15.56396484375
-21.97265625
-10.07080078125
-12.8173828125
-17.39501953125
-33.87451171875
-38.4521484375
-37.53662109375
-31.1279296875
-31.1279296875
-32.04345703125
-23.8037109375
-12.8173828125
-21.05712890625
-38.4521484375
-36.62109375
-12.8173828125
-14.6484375
-20.1416015625
-24.71923828125
-28.38134765625
-25.634765625
-34.7900390625
-31.1279296875
-29.296875
-25.634765625
-33.87451171875
-25.634765625
-20.1416015625
-20.1416015625
-24.71923828125
-32.958984375
-36.62109375
-32.04345703125
-20.1416015625
-26.55029296875
-33.87451171875
-10.986328125
-10.07080078125
-11.90185546875
-10.986328125
-7.32421875
-12.8173828125
-10.07080078125
-21.05712890625
-40.283203125
-43.02978515625
-32.04345703125
-32.04345703125
-29.296875
-30.21240234375
-32.958984375
-43.9453125
-46.69189453125
-41.19873046875
-38.4521484375
-39.36767578125
-51.26953125
-62.255859375
-49.4384765625
-48.52294921875
-43.9453125
-23.8037109375
-21.97265625
-24.71923828125
-32.04345703125
-39.36767578125
-40.283203125
-43.02978515625
-36.62109375
-30.21240234375
-43.02978515625
-42.1142578125
-45.7763671875
-39.36767578125
-39.36767578125
-39.36767578125
-27.4658203125
-30.21240234375
-32.04345703125
-27.4658203125
-49.4384765625
-55.84716796875
-49.4384765625
-42.1142578125
-42.1142578125
-36.62109375
-32.958984375
-20.1416015625
-17.39501953125
-19.22607421875
-10.07080078125
-4.57763671875
8.23974609375
2.74658203125
-7.32421875
0
3.662109375
3.662109375
10.986328125
21.97265625
38.4521484375
48.52294921875
52.18505859375
46.69189453125
45.7763671875
40.283203125
21.05712890625
16.4794921875
37.53662109375
32.04345703125
40.283203125
37.53662109375
40.283203125
32.958984375
36.62109375
25.634765625
11.90185546875
4.57763671875
-8.23974609375
-3.662109375
-11.90185546875
-15.56396484375
-32.958984375
-45.7763671875
-45.7763671875
-47.607421875
-57.67822265625
-48.52294921875
-41.19873046875
-44.86083984375
-49.4384765625
-39.36767578125
-46.69189453125
-59.50927734375
-69.580078125
-63.17138671875
-49.4384765625
-51.26953125
-63.17138671875
-65.00244140625
-63.17138671875
-60.4248046875
-57.67822265625
-65.00244140625
-77.81982421875
-72.32666015625
-64.0869140625
-60.4248046875
-63.17138671875
-61.34033203125
-51.26953125
-56.7626953125
-71.4111328125
-73.2421875
-65.00244140625
-63.17138671875
-65.00244140625
-71.4111328125
-48.52294921875
-54.01611328125
-86.0595703125
-114.44091796875
-147.39990234375
-185.85205078125
-190.4296875
-165.71044921875
-110.77880859375
-72.32666015625
-19.22607421875
27.4658203125
69.580078125
150.146484375
231.62841796875
315.85693359375
405.57861328125
530.09033203125
639.0380859375
753.47900390625
855.1025390625
869.7509765625
793.76220703125
631.7138671875
479.736328125
417.48046875
360.7177734375
268.24951171875
160.21728515625
95.21484375
48.52294921875
10.986328125
-26.55029296875
-35.70556640625
-23.8037109375
-16.4794921875
4.57763671875
3.662109375
10.07080078125
32.04345703125
26.55029296875
23.8037109375
5.4931640625
-15.56396484375
-20.1416015625
-7.32421875
-6.40869140625
-21.97265625
-19.22607421875
-7.32421875
-4.57763671875
-14.6484375
-17.39501953125
-19.22607421875
-24.71923828125
-19.22607421875
-24.71923828125
-23.8037109375
-23.8037109375
-19.22607421875
-15.56396484375
-23.8037109375
-22.88818359375
-19.22607421875
-21.97265625
-18.310546875
-6.40869140625
3.662109375
3.662109375
-9.1552734375
-7.32421875
-1.8310546875
4.57763671875
3.662109375
0.91552734375
-2.74658203125
0.91552734375
0
0
-0.91552734375
-20.1416015625
-13.73291015625
4.57763671875
7.32421875
-2.74658203125
-7.32421875
-3.662109375
16.4794921875
17.39501953125
8.23974609375
11.90185546875
9.1552734375
20.1416015625
21.97265625
14.6484375
19.22607421875
19.22607421875
16.4794921875
20.1416015625
28.38134765625
35.70556640625
23.8037109375
33.87451171875
53.1005859375
53.1005859375
50.35400390625
51.26953125
59.50927734375
49.4384765625
54.931640625
60.4248046875
62.255859375
65.00244140625
53.1005859375
44.86083984375
69.580078125
78.7353515625
70.49560546875
64.0869140625
75.0732421875
98.876953125
97.0458984375
98.876953125
92.46826171875
76.904296875
89.7216796875
97.96142578125
99.79248046875
106.201171875
102.5390625
95.21484375
120.849609375
127.25830078125
118.10302734375
110.77880859375
119.93408203125
130.0048828125
129.08935546875
137.3291015625
133.6669921875
124.51171875
143.73779296875
132.75146484375
148.3154296875
153.80859375
157.470703125
155.6396484375
152.89306640625
151.9775390625
144.6533203125
146.484375
159.3017578125
152.89306640625
132.75146484375
124.51171875
124.51171875
119.93408203125
116.27197265625
110.77880859375
106.201171875
95.21484375
89.7216796875
85.14404296875
91.552734375
81.48193359375
74.15771484375
62.255859375
49.4384765625
41.19873046875
35.70556640625
23.8037109375
16.4794921875
10.986328125
11.90185546875
10.07080078125
0
-11.90185546875
-12.8173828125
-21.05712890625
-17.39501953125
-12.8173828125
-19.22607421875
-25.634765625
-26.55029296875
-43.02978515625
-45.7763671875
-41.19873046875
-51.26953125
-51.26953125
-49.4384765625
-44.86083984375
-43.9453125
-50.35400390625
-56.7626953125
-40.283203125
-35.70556640625
-32.958984375
-41.19873046875
-49.4384765625
-50.35400390625
-46.69189453125
-53.1005859375
-44.86083984375
-50.35400390625
-46.69189453125
-41.19873046875
-31.1279296875
-36.62109375
-55.84716796875
-53.1005859375
-53.1005859375
-40.283203125
-43.02978515625
-47.607421875
-48.52294921875
-51.26953125
-50.35400390625
-53.1005859375
-54.931640625
-41.19873046875
-43.9453125
-41.19873046875
-36.62109375
-43.02978515625
-41.19873046875
-37.53662109375
-40.283203125
-32.958984375
-26.55029296875
-28.38134765625
-36.62109375
-35.70556640625
-32.958984375
-42.1142578125
-50.35400390625
-51.26953125
-48.52294921875
-40.283203125
-35.70556640625
-38.4521484375
-32.958984375
-40.283203125
-48.52294921875
-46.69189453125
-47.607421875
-54.931640625
-43.02978515625
-35.70556640625
-36.62109375
-36.62109375
-36.62109375
-21.05712890625
-22.88818359375
-39.36767578125
-32.958984375
-35.70556640625
-34.7900390625
-32.958984375
-22.88818359375
-35.70556640625
-45.7763671875
-42.1142578125
-42.1142578125
-53.1005859375
-45.7763671875
-35.70556640625
-42.1142578125
-45.7763671875
-45.7763671875
-51.26953125
-55.84716796875
-52.18505859375
-43.9453125
-47.607421875
-56.7626953125
-45.7763671875
-51.26953125
-65.91796875
-56.7626953125
-49.4384765625
-50.35400390625
-59.50927734375
-63.17138671875
-62.255859375
-53.1005859375
-54.01611328125
-60.4248046875
-58.59375
-61.34033203125
-57.67822265625
-67.7490234375
-76.904296875
-82.3974609375
-62.255859375
-67.7490234375
-54.01611328125
-44.86083984375
-55.84716796875
-41.19873046875
-24.71923828125
-31.1279296875
-38.4521484375
-43.9453125
-48.52294921875
-61.34033203125
-53.1005859375
-39.36767578125
-53.1005859375
-54.01611328125
-54.01611328125
-51.26953125
-56.7626953125
-56.7626953125
-66.83349609375
-59.50927734375
-53.1005859375
-58.59375
-48.52294921875
-40.283203125
-29.296875
-28.38134765625
-26.55029296875
-9.1552734375
-14.6484375
-14.6484375
-7.32421875
-9.1552734375
-4.57763671875
2.74658203125
9.1552734375
15.56396484375
20.1416015625
28.38134765625
25.634765625
25.634765625
26.55029296875
22.88818359375
16.4794921875
13.73291015625
8.23974609375
0.91552734375
14.6484375
12.8173828125
30.21240234375
24.71923828125
19.22607421875
-0.91552734375
-14.6484375
-22.88818359375
-35.70556640625
-38.4521484375
-38.4521484375
-38.4521484375
-53.1005859375
-56.7626953125
-46.69189453125
-47.607421875
-61.34033203125
-69.580078125
-66.83349609375
-65.00244140625
-65.91796875
-71.4111328125
-68.66455078125
-67.7490234375
-62.255859375
-64.0869140625
-66.83349609375
-66.83349609375
-67.7490234375
-69.580078125
-61.34033203125
-63.17138671875
-65.91796875
-64.0869140625
-59.50927734375
-56.7626953125
-78.7353515625
-85.14404296875
-85.14404296875
-71.4111328125
-68.66455078125
-72.32666015625
-72.32666015625
-84.228515625
-86.97509765625
-88.80615234375
-94.29931640625
-77.81982421875
-87.890625
-104.3701171875
-118.10302734375
-145.56884765625
-180.35888671875
-202.33154296875
-198.66943359375
-148.3154296875
-112.60986328125
-74.15771484375
-11.90185546875
45.7763671875
112.60986328125
191.34521484375
263.671875
340.576171875
449.52392578125
571.2890625
683.89892578125
809.326171875
863.34228515625
836.7919921875
713.19580078125
524.59716796875
424.8046875
398.25439453125
346.0693359375
251.77001953125
160.21728515625
96.13037109375
39.36767578125
0
-14.6484375
-21.05712890625
-32.958984375
-23.8037109375
4.57763671875
10.986328125
10.986328125
6.40869140625
-5.4931640625
9.1552734375
14.6484375
3.662109375
-2.74658203125
-23.8037109375
-26.55029296875
-25.634765625
-25.634765625
-17.39501953125
-13.73291015625
-10.07080078125
-16.4794921875
-18.310546875
-15.56396484375
-10.07080078125
-19.22607421875
-31.1279296875
-40.283203125
-37.53662109375
-18.310546875
-21.05712890625
-34.7900390625
-27.4658203125
-16.4794921875
-27.4658203125
-22.88818359375
-14.6484375
-4.57763671875
-2.74658203125
-2.74658203125
-9.1552734375
-0.91552734375
0.91552734375
6.40869140625
-6.40869140625
-2.74658203125
-2.74658203125
1.8310546875
12.8173828125
9.1552734375
1.8310546875
9.1552734375
13.73291015625
6.40869140625
14.6484375
10.986328125
7.32421875
10.07080078125
10.986328125
23.8037109375
25.634765625
24.71923828125
10.07080078125
9.1552734375
27.4658203125
33.87451171875
27.4658203125
20.1416015625
28.38134765625
36.62109375
38.4521484375
43.02978515625
35.70556640625
33.87451171875
27.4658203125
36.62109375
32.04345703125
27.4658203125
24.71923828125
43.9453125
39.36767578125
47.607421875
68.66455078125
75.0732421875
60.4248046875
65.00244140625
76.904296875
79.65087890625
68.66455078125
81.48193359375
92.46826171875
100.7080078125
97.96142578125
94.29931640625
96.13037109375
89.7216796875
100.7080078125
105.28564453125
100.7080078125
97.96142578125
103.45458984375
120.849609375
127.25830078125
125.42724609375
122.6806640625
117.1875
115.3564453125
116.27197265625
120.849609375
118.10302734375
116.27197265625
129.08935546875
136.41357421875
140.9912109375
133.6669921875
139.16015625
141.90673828125
141.90673828125
148.3154296875
138.24462890625
132.75146484375
122.6806640625
131.8359375
136.41357421875
134.58251953125
127.25830078125
113.525390625
108.94775390625
104.3701171875
104.3701171875
94.29931640625
85.14404296875
72.32666015625
69.580078125
63.17138671875
50.35400390625
38.4521484375
27.4658203125
0
6.40869140625
16.4794921875
20.1416015625
14.6484375
17.39501953125
1.8310546875
-5.4931640625
-5.4931640625
-10.986328125
-16.4794921875
-16.4794921875
-18.310546875
-21.97265625
-31.1279296875
-25.634765625
-26.55029296875
-27.4658203125
-24.71923828125
-25.634765625
-18.310546875
-21.97265625
-27.4658203125
-37.53662109375
-39.36767578125
-36.62109375
-48.52294921875
-54.01611328125
-57.67822265625
-53.1005859375
-43.9453125
-39.36767578125
-38.4521484375
-40.283203125
-37.53662109375
-32.958984375
-35.70556640625
-41.19873046875
-43.02978515625
-43.02978515625
-43.02978515625
-40.283203125
-27.4658203125
-28.38134765625
-29.296875
-33.87451171875
-38.4521484375
-46.69189453125
-46.69189453125
-19.22607421875
-23.8037109375
-41.19873046875
-47.607421875
-29.296875
-21.97265625
-9.1552734375
-13.73291015625
-21.05712890625
-24.71923828125
-29.296875
-21.05712890625
-31.1279296875
-32.958984375
-33.87451171875
-31.1279296875
-38.4521484375
-32.04345703125
-32.958984375
-27.4658203125
-24.71923828125
-21.97265625
-30.21240234375
-24.71923828125
-12.8173828125
-21.05712890625
-21.05712890625
-22.88818359375
-12.8173828125
-8.23974609375
-9.1552734375
-19.22607421875
-36.62109375
-50.35400390625
-43.9453125
-36.62109375
-37.53662109375
-30.21240234375
-27.4658203125
-31.1279296875
-24.71923828125
-28.38134765625
-32.04345703125
-38.4521484375
-37.53662109375
-42.1142578125
-34.7900390625
-27.4658203125
-32.04345703125
-27.4658203125
-30.21240234375
-33.87451171875
-32.958984375
-44.86083984375
-49.4384765625
-30.21240234375
-36.62109375
-39.36767578125
-50.35400390625
-51.26953125
-47.607421875
-54.01611328125
-58.59375
-49.4384765625
-39.36767578125
-40.283203125
-44.86083984375
-48.52294921875
-52.18505859375
-46.69189453125
-38.4521484375
-45.7763671875
-58.59375
-52.18505859375
-45.7763671875
-47.607421875
-53.1005859375
-54.931640625
-41.19873046875
-36.62109375
-35.70556640625
-39.36767578125
-45.7763671875
-48.52294921875
-52.18505859375
-43.02978515625
-43.9453125
-43.9453125
-45.7763671875
-60.4248046875
-60.4248046875
-47.607421875
-48.52294921875
-46.69189453125
-61.34033203125
-67.7490234375
-64.0869140625
-60.4248046875
-54.931640625
-51.26953125
-55.84716796875
-48.52294921875
-38.4521484375
-34.7900390625
-22.88818359375
-3.662109375
7.32421875
2.74658203125
3.662109375
-16.4794921875
-9.1552734375
-12.8173828125
-20.1416015625
-8.23974609375
6.40869140625
17.39501953125
32.958984375
36.62109375
27.4658203125
32.04345703125
40.283203125
54.931640625
52.18505859375
32.04345703125
36.62109375
28.38134765625
25.634765625
16.4794921875
10.986328125
19.22607421875
18.310546875
16.4794921875
0
-16.4794921875
-21.05712890625
-25.634765625
-28.38134765625
-36.62109375
-26.55029296875
-36.62109375
-48.52294921875
-54.01611328125
-59.50927734375
-61.34033203125
-58.59375
-53.1005859375
-49.4384765625
-50.35400390625
-51.26953125
-57.67822265625
-53.1005859375
-45.7763671875
-50.35400390625
-64.0869140625
-60.4248046875
-62.255859375
-56.7626953125
-36.62109375
-40.283203125
-43.9453125
-57.67822265625
-64.0869140625
-57.67822265625
-58.59375
-50.35400390625
-54.931640625
-61.34033203125
-76.904296875
-86.97509765625
-87.890625
-77.81982421875
-75.0732421875
-75.98876953125
-59.50927734375
-51.26953125
-54.931640625
-62.255859375
-89.7216796875
-129.08935546875
-168.45703125
-203.2470703125
-202.33154296875
-162.9638671875
-112.60986328125
-63.17138671875
1.8310546875
47.607421875
111.6943359375
189.51416015625
264.58740234375
332.33642578125
419.3115234375
556.640625
657.3486328125
774.5361328125
860.595703125
842.28515625
744.32373046875
573.1201171875
428.466796875
384.521484375
325.927734375
225.2197265625
146.484375
94.29931640625
44.86083984375
18.310546875
1.8310546875
-20.1416015625
-25.634765625
-22.88818359375
7.32421875
23.8037109375
30.21240234375
37.53662109375
28.38134765625
18.310546875
-3.662109375
2.74658203125
-11.90185546875
-11.90185546875
-2.74658203125
0.91552734375
-13.73291015625
-21.97265625
-21.05712890625
-21.05712890625
-1.8310546875
-8.23974609375
-10.07080078125
-14.6484375
-10.07080078125
-3.662109375
-7.32421875
-11.90185546875
-13.73291015625
-9.1552734375
-7.32421875
-11.90185546875
-10.986328125
-13.73291015625
-17.39501953125
-10.986328125
-11.90185546875
3.662109375
0
-21.05712890625
-21.05712890625
-15.56396484375
-8.23974609375
0
0.91552734375
14.6484375
13.73291015625
9.1552734375
12.8173828125
8.23974609375
7.32421875
10.07080078125
12.8173828125
3.662109375
17.39501953125
20.1416015625
15.56396484375
23.8037109375
22.88818359375
28.38134765625
18.310546875
18.310546875
27.4658203125
33.87451171875
34.7900390625
34.7900390625
38.4521484375
41.19873046875
44.86083984375
48.52294921875
45.7763671875
50.35400390625
60.4248046875
46.69189453125
39.36767578125
44.86083984375
52.18505859375
57.67822265625
54.931640625
63.17138671875
75.98876953125
72.32666015625
75.0732421875
79.65087890625
72.32666015625
71.4111328125
82.3974609375
88.80615234375
89.7216796875
97.0458984375
92.46826171875
100.7080078125
105.28564453125
107.11669921875
103.45458984375
108.94775390625
108.94775390625
107.11669921875
119.93408203125
116.27197265625
119.0185546875
121.76513671875
130.92041015625
140.07568359375
118.10302734375
129.08935546875
139.16015625
136.41357421875
146.484375
152.89306640625
143.73779296875
130.92041015625
144.6533203125
152.89306640625
161.1328125
150.146484375
136.41357421875
141.90673828125
145.56884765625
151.9775390625
156.55517578125
161.1328125
159.3017578125
152.89306640625
140.07568359375
134.58251953125
130.0048828125
125.42724609375
121.76513671875
108.94775390625
98.876953125
98.876953125
86.97509765625
86.0595703125
84.228515625
78.7353515625
68.66455078125
45.7763671875
46.69189453125
51.26953125
43.02978515625
19.22607421875
4.57763671875
-5.4931640625
-18.310546875
-24.71923828125
-23.8037109375
-20.1416015625
-18.310546875
-26.55029296875
-18.310546875
-17.39501953125
-15.56396484375
-20.1416015625
-21.97265625
-32.958984375
-34.7900390625
-39.36767578125
-34.7900390625
-34.7900390625
-32.04345703125
-25.634765625
-24.71923828125
-33.87451171875
-31.1279296875
-36.62109375
-37.53662109375
-32.958984375
-34.7900390625
-31.1279296875
-21.05712890625
-25.634765625
-32.958984375
-33.87451171875
-25.634765625
-21.05712890625
-34.7900390625
-53.1005859375
-43.9453125
-29.296875
-33.87451171875
-30.21240234375
-30.21240234375
-26.55029296875
-22.88818359375
-33.87451171875
-38.4521484375
-23.8037109375
-12.8173828125
-16.4794921875
-40.283203125
-45.7763671875
-38.4521484375
-37.53662109375
-40.283203125
-33.87451171875
-23.8037109375
-24.71923828125
-18.310546875
-15.56396484375
-12.8173828125
-16.4794921875
-13.73291015625
-23.8037109375
-26.55029296875
-25.634765625
-22.88818359375
-15.56396484375
-16.4794921875
-21.97265625
-24.71923828125
-18.310546875
-16.4794921875
-30.21240234375
-31.1279296875
-37.53662109375
-32.04345703125
-23.8037109375
-20.1416015625
-29.296875
-34.7900390625
-31.1279296875
-22.88818359375
-22.88818359375
-30.21240234375
-25.634765625
-30.21240234375
-32.04345703125
-27.4658203125
-23.8037109375
-24.71923828125
-29.296875
-29.296875
-37.53662109375
-44.86083984375
-42.1142578125
-46.69189453125
-41.19873046875
-37.53662109375
-40.283203125
-46.69189453125
-48.52294921875
-36.62109375
-32.04345703125
-31.1279296875
-36.62109375
-50.35400390625
-58.59375
-59.50927734375
-57.67822265625
-51.26953125
-48.52294921875
-45.7763671875
-37.53662109375
-48.52294921875
-60.4248046875
-52.18505859375
-42.1142578125
-49.4384765625
-55.84716796875
-49.4384765625
-58.59375
-55.84716796875
-37.53662109375
-35.70556640625
-30.21240234375
-32.958984375
-33.87451171875
-30.21240234375
-41.19873046875
-52.18505859375
-62.255859375
-75.0732421875
-86.97509765625
-70.49560546875
-55.84716796875
-67.7490234375
-57.67822265625
-53.1005859375
-58.59375
-62.255859375
-65.00244140625
-55.84716796875
-53.1005859375
-58.59375
-54.01611328125
-45.7763671875
-43.02978515625
-49.4384765625
-71.4111328125
-64.0869140625
-54.01611328125
-43.02978515625
-41.19873046875
-35.70556640625
-32.958984375
-32.04345703125
-10.07080078125
0
-7.32421875
-2.74658203125
-2.74658203125
-14.6484375
-22.88818359375
-23.8037109375
-17.39501953125
-9.1552734375
6.40869140625
20.1416015625
31.1279296875
25.634765625
35.70556640625
37.53662109375
34.7900390625
27.4658203125
10.986328125
8.23974609375
1.8310546875
-6.40869140625
8.23974609375
11.90185546875
6.40869140625
21.05712890625
10.07080078125
-3.662109375
-1.8310546875
-14.6484375
-32.958984375
-45.7763671875
-49.4384765625
-58.59375
-68.66455078125
-62.255859375
-49.4384765625
-61.34033203125
-65.00244140625
-58.59375
-47.607421875
-54.01611328125
-54.931640625
-50.35400390625
-62.255859375
-70.49560546875
-76.904296875
-84.228515625
-76.904296875
-65.00244140625
-61.34033203125
-58.59375
-60.4248046875
-65.00244140625
-65.91796875
-78.7353515625
-70.49560546875
-65.91796875
-66.83349609375
-70.49560546875
-63.17138671875
-66.83349609375
-60.4248046875
-67.7490234375
-68.66455078125
-66.83349609375
-75.98876953125
-78.7353515625
-77.81982421875
-97.0458984375
-106.201171875
-97.0458984375
-125.42724609375
-168.45703125
-189.51416015625
-191.34521484375
-157.470703125
-107.11669921875
-68.66455078125
-8.23974609375
36.62109375
102.5390625
184.9365234375
265.5029296875
348.81591796875
452.2705078125
561.21826171875
656.43310546875
781.8603515625
838.623046875
826.72119140625
723.2666015625
552.06298828125
439.453125
403.74755859375
315.85693359375
209.65576171875
128.173828125
65.00244140625
12.8173828125
-21.97265625
-38.4521484375
-32.958984375
-33.87451171875
-19.22607421875
2.74658203125
10.986328125
23.8037109375
35.70556640625
21.97265625
15.56396484375
7.32421875
-1.8310546875
-10.07080078125
-14.6484375
-14.6484375
-12.8173828125
-13.73291015625
-25.634765625
-28.38134765625
-27.4658203125
-37.53662109375
-48.52294921875
-41.19873046875
-41.19873046875
-34.7900390625
-32.958984375
-21.05712890625
-15.56396484375
-14.6484375
-9.1552734375
-26.55029296875
-23.8037109375
-2.74658203125
-19.22607421875
-21.05712890625
-16.4794921875
-16.4794921875
-8.23974609375
-2.74658203125
-1.8310546875
3.662109375
-7.32421875
-13.73291015625
-7.32421875
-20.1416015625
-12.8173828125
3.662109375
-1.8310546875
-1.8310546875
-0.91552734375
-1.8310546875
3.662109375
7.32421875
14.6484375
23.8037109375
15.56396484375
9.1552734375
0
-3.662109375
-4.57763671875
-5.4931640625
-6.40869140625
5.4931640625
22.88818359375
20.1416015625
23.8037109375
32.04345703125
28.38134765625
24.71923828125
24.71923828125
31.1279296875
29.296875
26.55029296875
16.4794921875
27.4658203125
37.53662109375
44.86083984375
30.21240234375
28.38134765625
37.53662109375
51.26953125
56.7626953125
63.17138671875
66.83349609375
75.0732421875
65.91796875
68.66455078125
88.80615234375
75.0732421875
72.32666015625
77.81982421875
80.56640625
75.98876953125
85.14404296875
94.29931640625
92.46826171875
97.96142578125
93.3837890625
100.7080078125
97.96142578125
98.876953125
97.0458984375
108.0322265625
117.1875
116.27197265625
108.94775390625
115.3564453125
108.94775390625
110.77880859375
131.8359375
137.3291015625
138.24462890625
142.822265625
144.6533203125
141.90673828125
138.24462890625
140.9912109375
136.41357421875
140.07568359375
147.39990234375
139.16015625
128.173828125
122.6806640625
118.10302734375
118.10302734375
121.76513671875
114.44091796875
94.29931640625
97.0458984375
81.48193359375
77.81982421875
60.4248046875
50.35400390625
51.26953125
49.4384765625
46.69189453125
44.86083984375
32.958984375
27.4658203125
9.1552734375
6.40869140625
18.310546875
-13.73291015625
-12.8173828125
-20.1416015625
-18.310546875
-14.6484375
-28.38134765625
-40.283203125
-47.607421875
-49.4384765625
-42.1142578125
-36.62109375
-37.53662109375
-52.18505859375
-60.4248046875
-51.26953125
-48.52294921875
-41.19873046875
-49.4384765625
-59.50927734375
-67.7490234375
-55.84716796875
-50.35400390625
-48.52294921875
-44.86083984375
-37.53662109375
-49.4384765625
-50.35400390625
-58.59375
-46.69189453125
-47.607421875
-46.69189453125
-49.4384765625
-43.9453125
-38.4521484375
-48.52294921875
-58.59375
-66.83349609375
-63.17138671875
-56.7626953125
-57.67822265625
-50.35400390625
-43.9453125
-51.26953125
-46.69189453125
-54.01611328125
-53.1005859375
-65.91796875
-52.18505859375
-42.1142578125
-45.7763671875
-47.607421875
-51.26953125
-54.931640625
-53.1005859375
-54.01611328125
-60.4248046875
-54.01611328125
-47.607421875
-49.4384765625
-37.53662109375
-40.283203125
-38.4521484375
-26.55029296875
-28.38134765625
-34.7900390625
-41.19873046875
-43.02978515625
-39.36767578125
-34.7900390625
-47.607421875
-47.607421875
-40.283203125
-38.4521484375
-34.7900390625
-28.38134765625
-30.21240234375
-42.1142578125
-57.67822265625
-60.4248046875
-56.7626953125
-55.84716796875
-61.34033203125
-52.18505859375
-42.1142578125
-38.4521484375
-41.19873046875
-49.4384765625
-52.18505859375
-58.59375
-52.18505859375
-63.17138671875
-68.66455078125
-62.255859375
-53.1005859375
-56.7626953125
-55.84716796875
-61.34033203125
-58.59375
-57.67822265625
-54.931640625
-53.1005859375
-52.18505859375
-55.84716796875
-63.17138671875
-58.59375
-63.17138671875
-69.580078125
-66.83349609375
-62.255859375
-64.0869140625
-84.228515625
-77.81982421875
-68.66455078125
-59.50927734375
-58.59375
-65.91796875
-65.00244140625
-63.17138671875
-59.50927734375
-75.98876953125
-76.904296875
-54.01611328125
-48.52294921875
-54.931640625
-54.01611328125
-55.84716796875
-77.81982421875
-82.3974609375
-66.83349609375
-46.69189453125
-61.34033203125
-76.904296875
-73.2421875
-67.7490234375
-68.66455078125
-80.56640625
-75.98876953125
-77.81982421875
-64.0869140625
-55.84716796875
-72.32666015625
-71.4111328125
-68.66455078125
-70.49560546875
-66.83349609375
-71.4111328125
-76.904296875
-59.50927734375
-32.958984375
-19.22607421875
-15.56396484375
-21.97265625
-24.71923828125
-18.310546875
-21.05712890625
-14.6484375
-16.4794921875
-23.8037109375
-16.4794921875
-2.74658203125
-10.986328125
-1.8310546875
25.634765625
19.22607421875
20.1416015625
21.05712890625
12.8173828125
15.56396484375
25.634765625
30.21240234375
28.38134765625
15.56396484375
15.56396484375
1.8310546875
-10.07080078125
-12.8173828125
-17.39501953125
-15.56396484375
-19.22607421875
-27.4658203125
-40.283203125
-50.35400390625
-60.4248046875
-68.66455078125
-73.2421875
-73.2421875
-72.32666015625
-69.580078125
-69.580078125
-63.17138671875
-60.4248046875
-72.32666015625
-79.65087890625
-81.48193359375
-84.228515625
-81.48193359375
-85.14404296875
-83.31298828125
-90.63720703125
-87.890625
-75.0732421875
-69.580078125
-75.98876953125
-73.2421875
-85.14404296875
-97.96142578125
-91.552734375
-96.13037109375
-104.3701171875
-82.3974609375
-86.97509765625
-87.890625
-80.56640625
-78.7353515625
-67.7490234375
-72.32666015625
-83.31298828125
-85.14404296875
-89.7216796875
-109.86328125
-131.8359375
-155.6396484375
-194.091796875
-214.2333984375
-197.75390625
-170.2880859375
-138.24462890625
-88.80615234375
-33.87451171875
10.986328125
84.228515625
180.35888671875
257.26318359375
318.603515625
420.22705078125
541.07666015625
659.1796875
780.94482421875
846.86279296875
845.947265625
732.421875
538.330078125
413.818359375
392.76123046875
344.23828125
246.27685546875
157.470703125
91.552734375
38.4521484375
-5.4931640625
-20.1416015625
-31.1279296875
-40.283203125
-34.7900390625
-29.296875
-15.56396484375
-21.05712890625
-16.4794921875
-9.1552734375
-19.22607421875
-26.55029296875
-41.19873046875
-54.931640625
-54.931640625
-43.9453125
-30.21240234375
-12.8173828125
-22.88818359375
-33.87451171875
-27.4658203125
-28.38134765625
-37.53662109375
-42.1142578125
-46.69189453125
-48.52294921875
-46.69189453125
-47.607421875
-41.19873046875
-41.19873046875
-32.04345703125
-27.4658203125
-23.8037109375
-29.296875
-37.53662109375
-40.283203125
-26.55029296875
-20.1416015625
-12.8173828125
-26.55029296875
-30.21240234375
-32.958984375
-32.958984375
-33.87451171875
-33.87451171875
-20.1416015625
-20.1416015625
-20.1416015625
-18.310546875
-11.90185546875
-16.4794921875
-26.55029296875
-13.73291015625
-19.22607421875
-14.6484375
0.91552734375
-9.1552734375
-4.57763671875
7.32421875
11.90185546875
1.8310546875
-5.4931640625
-8.23974609375
6.40869140625
16.4794921875
17.39501953125
14.6484375
22.88818359375
22.88818359375
21.05712890625
13.73291015625
5.4931640625
11.90185546875
25.634765625
17.39501953125
21.97265625
24.71923828125
26.55029296875
28.38134765625
26.55029296875
38.4521484375
49.4384765625
45.7763671875
43.9453125
42.1142578125
37.53662109375
42.1142578125
59.50927734375
59.50927734375
78.7353515625
67.7490234375
61.34033203125
67.7490234375
69.580078125
79.65087890625
83.31298828125
86.97509765625
88.80615234375
97.0458984375
104.3701171875
91.552734375
66.83349609375
75.0732421875
99.79248046875
94.29931640625
106.201171875
107.11669921875
104.3701171875
103.45458984375
101.62353515625
107.11669921875
103.45458984375
105.28564453125
115.3564453125
117.1875
123.59619140625
121.76513671875
129.08935546875
117.1875
115.3564453125
120.849609375
116.27197265625
113.525390625
106.201171875
113.525390625
109.86328125
91.552734375
90.63720703125
96.13037109375
76.904296875
53.1005859375
65.91796875
75.0732421875
70.49560546875
65.00244140625
50.35400390625
51.26953125
36.62109375
10.986328125
10.07080078125
8.23974609375
11.90185546875
5.4931640625
7.32421875
-10.07080078125
-5.4931640625
-0.91552734375
-30.21240234375
-21.97265625
-23.8037109375
-44.86083984375
-38.4521484375
-40.283203125
-37.53662109375
-26.55029296875
-28.38134765625
-32.958984375
-29.296875
-33.87451171875
-34.7900390625
-31.1279296875
-34.7900390625
-38.4521484375
-41.19873046875
-49.4384765625
-54.01611328125
-53.1005859375
-65.00244140625
-63.17138671875
-54.931640625
-51.26953125
-55.84716796875
-47.607421875
-39.36767578125
-51.26953125
-54.01611328125
-55.84716796875
-48.52294921875
-67.7490234375
-65.00244140625
-51.26953125
-52.18505859375
-36.62109375
-32.958984375
-34.7900390625
-31.1279296875
-28.38134765625
-28.38134765625
-32.958984375
-29.296875
-24.71923828125
-16.4794921875
-16.4794921875
-16.4794921875
-24.71923828125
-46.69189453125
-51.26953125
-39.36767578125
-37.53662109375
-32.958984375
-37.53662109375
-41.19873046875
-44.86083984375
-43.02978515625
-38.4521484375
-37.53662109375
-24.71923828125
-32.04345703125
-25.634765625
-25.634765625
-24.71923828125
-28.38134765625
-35.70556640625
-27.4658203125
-25.634765625
-32.04345703125
-45.7763671875
-53.1005859375
-45.7763671875
-37.53662109375
-42.1142578125
-58.59375
-48.52294921875
-32.958984375
-31.1279296875
-33.87451171875
-31.1279296875
-29.296875
-43.9453125
-57.67822265625
-61.34033203125
-58.59375
-53.1005859375
-60.4248046875
-53.1005859375
-48.52294921875
-35.70556640625
-33.87451171875
-43.02978515625
-39.36767578125
-44.86083984375
-55.84716796875
-41.19873046875
-41.19873046875
-47.607421875
-47.607421875
-58.59375
-61.34033203125
-68.66455078125
-54.01611328125
-54.931640625
-56.7626953125
-43.9453125
-48.52294921875
-58.59375
-45.7763671875
-51.26953125
-59.50927734375
-60.4248046875
-62.255859375
-47.607421875
-41.19873046875
-44.86083984375
-48.52294921875
-57.67822265625
-66.83349609375
-78.7353515625
-68.66455078125
-61.34033203125
-69.580078125
-63.17138671875
-58.59375
-58.59375
-54.01611328125
-56.7626953125
-63.17138671875
-57.67822265625
-43.9453125
-51.26953125
-70.49560546875
-68.66455078125
-66.83349609375
-60.4248046875
-65.91796875
-65.91796875
-57.67822265625
-36.62109375
-32.958984375
-13.73291015625
7.32421875
0.91552734375
-8.23974609375
-15.56396484375
-19.22607421875
-8.23974609375
-8.23974609375
10.986328125
20.1416015625
25.634765625
30.21240234375
37.53662109375
39.36767578125
29.296875
21.05712890625
20.1416015625
26.55029296875
35.70556640625
21.97265625
21.05712890625
13.73291015625
-12.8173828125
10.986328125
30.21240234375
28.38134765625
19.22607421875
21.05712890625
10.986328125
-0.91552734375
-20.1416015625
-32.04345703125
-37.53662109375
-43.02978515625
-49.4384765625
-55.84716796875
-52.18505859375
-48.52294921875
-42.1142578125
-47.607421875
-54.01611328125
-58.59375
-57.67822265625
-60.4248046875
-50.35400390625
-64.0869140625
-73.2421875
-73.2421875
-65.91796875
-56.7626953125
-62.255859375
-54.01611328125
-71.4111328125
-90.63720703125
-94.29931640625
-77.81982421875
-61.34033203125
-63.17138671875
-68.66455078125
-60.4248046875
-63.17138671875
-65.00244140625
-73.2421875
-71.4111328125
-66.83349609375
-80.56640625
-79.65087890625
-76.904296875
-69.580078125
-72.32666015625
-81.48193359375
-110.77880859375
-146.484375
-162.9638671875
-191.34521484375
-191.34521484375
-151.06201171875
-117.1875
-83.31298828125
-28.38134765625
27.4658203125
93.3837890625
159.3017578125
253.60107421875
328.67431640625
418.39599609375
531.005859375
643.61572265625
755.31005859375
832.21435546875
831.298828125
732.421875
573.1201171875
434.87548828125
394.59228515625
328.67431640625
238.037109375
158.38623046875
87.890625
37.53662109375
4.57763671875
-17.39501953125
-33.87451171875
-35.70556640625
-32.958984375
5.4931640625
21.97265625
23.8037109375
28.38134765625
14.6484375
-3.662109375
-7.32421875
-14.6484375
-20.1416015625
-17.39501953125
-10.07080078125
0
-17.39501953125
-21.97265625
-15.56396484375
-10.986328125
-14.6484375
-23.8037109375
-27.4658203125
-29.296875
-21.97265625
-23.8037109375
-25.634765625
-7.32421875
-11.90185546875
-23.8037109375
-19.22607421875
-17.39501953125
-15.56396484375
-7.32421875
-6.40869140625
-15.56396484375
-13.73291015625
-1.8310546875
-2.74658203125
-4.57763671875
-6.40869140625
-4.57763671875
-2.74658203125
0
0
0.91552734375
-9.1552734375
0.91552734375
6.40869140625
1.8310546875
10.986328125
21.97265625
13.73291015625
7.32421875
24.71923828125
34.7900390625
17.39501953125
23.8037109375
29.296875
23.8037109375
19.22607421875
21.05712890625
26.55029296875
28.38134765625
24.71923828125
27.4658203125
30.21240234375
37.53662109375
32.958984375
40.283203125
51.26953125
54.01611328125
44.86083984375
40.283203125
38.4521484375
27.4658203125
33.87451171875
60.4248046875
54.931640625
60.4248046875
66.83349609375
72.32666015625
65.91796875
76.904296875
80.56640625
69.580078125
70.49560546875
68.66455078125
75.0732421875
92.46826171875
105.28564453125
111.6943359375
113.525390625
109.86328125
100.7080078125
88.80615234375
86.0595703125
101.62353515625
99.79248046875
108.94775390625
109.86328125
102.5390625
112.60986328125
120.849609375
130.92041015625
140.07568359375
136.41357421875
137.3291015625
146.484375
153.80859375
150.146484375
146.484375
148.3154296875
143.73779296875
146.484375
156.55517578125
148.3154296875
146.484375
164.794921875
163.87939453125
147.39990234375
140.07568359375
151.9775390625
145.56884765625
134.58251953125
144.6533203125
130.0048828125
114.44091796875
105.28564453125
94.29931640625
76.904296875
59.50927734375
57.67822265625
57.67822265625
60.4248046875
53.1005859375
34.7900390625
27.4658203125
16.4794921875
26.55029296875
20.1416015625
4.57763671875
-3.662109375
-5.4931640625
-10.07080078125
-29.296875
-37.53662109375
-36.62109375
-34.7900390625
-30.21240234375
-26.55029296875
-35.70556640625
-37.53662109375
-23.8037109375
-26.55029296875
-26.55029296875
-25.634765625
-27.4658203125
-34.7900390625
-35.70556640625
-25.634765625
-11.90185546875
-13.73291015625
-27.4658203125
-31.1279296875
-40.283203125
-56.7626953125
-55.84716796875
-56.7626953125
-50.35400390625
-34.7900390625
-33.87451171875
-38.4521484375
-38.4521484375
-37.53662109375
-39.36767578125
-46.69189453125
-52.18505859375
-56.7626953125
-51.26953125
-46.69189453125
-39.36767578125
-27.4658203125
-22.88818359375
-32.04345703125
-34.7900390625
-31.1279296875
-31.1279296875
-34.7900390625
-46.69189453125
-38.4521484375
-16.4794921875
-24.71923828125
-18.310546875
-16.4794921875
-22.88818359375
-24.71923828125
-35.70556640625
-39.36767578125
-41.19873046875
-33.87451171875
-35.70556640625
-34.7900390625
-46.69189453125
-43.02978515625
-35.70556640625
-40.283203125
-32.958984375
-30.21240234375
-32.04345703125
-34.7900390625
-32.958984375
-43.9453125
-36.62109375
-38.4521484375
-43.02978515625
-34.7900390625
-40.283203125
-32.958984375
-22.88818359375
-28.38134765625
-28.38134765625
-31.1279296875
-29.296875
-27.4658203125
-32.04345703125
-28.38134765625
-36.62109375
-33.87451171875
-28.38134765625
-27.4658203125
-38.4521484375
-38.4521484375
-33.87451171875
-24.71923828125
-29.296875
-34.7900390625
-40.283203125
-39.36767578125
-43.9453125
-47.607421875
-43.02978515625
-27.4658203125
-47.607421875
-63.17138671875
-58.59375
-52.18505859375
-37.53662109375
-30.21240234375
-37.53662109375
-36.62109375
-48.52294921875
-55.84716796875
-48.52294921875
-49.4384765625
-43.9453125
-50.35400390625
-65.91796875
-58.59375
-57.67822265625
-59.50927734375
-54.01611328125
-31.1279296875
-27.4658203125
-24.71923828125
-27.4658203125
-48.52294921875
-54.931640625
-60.4248046875
-47.607421875
-44.86083984375
-43.02978515625
-43.9453125
-41.19873046875
-54.931640625
-62.255859375
-54.01611328125
-43.02978515625
-58.59375
-52.18505859375
-44.86083984375
-36.62109375
-43.02978515625
-50.35400390625
-49.4384765625
-43.9453125
-40.283203125
-44.86083984375
-57.67822265625
-46.69189453125
-22.88818359375
-21.97265625
-9.1552734375
0.91552734375
8.23974609375
18.310546875
8.23974609375
5.4931640625
3.662109375
10.986328125
3.662109375
-10.986328125
-13.73291015625
5.4931640625
13.73291015625
31.1279296875
31.1279296875
32.958984375
43.9453125
41.19873046875
41.19873046875
36.62109375
15.56396484375
11.90185546875
17.39501953125
22.88818359375
17.39501953125
26.55029296875
27.4658203125
9.1552734375
-4.57763671875
-10.986328125
-22.88818359375
-42.1142578125
-52.18505859375
-50.35400390625
-57.67822265625
-47.607421875
-43.9453125
-44.86083984375
-54.931640625
-59.50927734375
-61.34033203125
-56.7626953125
-56.7626953125
-56.7626953125
-54.01611328125
-63.17138671875
-65.91796875
-72.32666015625
-65.00244140625
-60.4248046875
-60.4248046875
-63.17138671875
-57.67822265625
-51.26953125
-49.4384765625
-46.69189453125
-54.931640625
-62.255859375
-61.34033203125
-61.34033203125
-68.66455078125
-75.98876953125
-78.7353515625
-75.0732421875
-73.2421875
-54.931640625
-65.91796875
-73.2421875
-65.91796875
-69.580078125
-78.7353515625
-89.7216796875
-114.44091796875
-147.39990234375
-174.86572265625
-185.85205078125
-164.794921875
-120.849609375
-69.580078125
-27.4658203125
18.310546875
64.0869140625
125.42724609375
204.16259765625
281.982421875
384.521484375
498.046875
603.33251953125
706.787109375
812.07275390625
847.7783203125
812.98828125
680.23681640625
519.10400390625
444.9462890625
387.26806640625
282.89794921875
178.52783203125
111.6943359375
56.7626953125
-3.662109375
-9.1552734375
-26.55029296875
-26.55029296875
-7.32421875
15.56396484375
29.296875
26.55029296875
43.02978515625
43.02978515625
43.02978515625
24.71923828125
16.4794921875
2.74658203125
6.40869140625
6.40869140625
-3.662109375
-1.8310546875
-6.40869140625
-12.8173828125
-11.90185546875
-0.91552734375
8.23974609375
-9.1552734375
-12.8173828125
-11.90185546875
-13.73291015625
-30.21240234375
-31.1279296875
-10.986328125
-7.32421875
-7.32421875
-4.57763671875
10.986328125
8.23974609375
0.91552734375
10.986328125
13.73291015625
2.74658203125
-3.662109375
-5.4931640625
-9.1552734375
-23.8037109375
-12.8173828125
0
-4.57763671875
-9.1552734375
-14.6484375
-3.662109375
18.310546875
24.71923828125
20.1416015625
24.71923828125
20.1416015625
11.90185546875
12.8173828125
24.71923828125
43.9453125
28.38134765625
14.6484375
19.22607421875
20.1416015625
13.73291015625
21.05712890625
26.55029296875
23.8037109375
23.8037109375
20.1416015625
32.04345703125
27.4658203125
45.7763671875
49.4384765625
53.1005859375
50.35400390625
42.1142578125
43.9453125
43.9453125
49.4384765625
50.35400390625
55.84716796875
47.607421875
49.4384765625
56.7626953125
74.15771484375
88.80615234375
86.0595703125
93.3837890625
92.46826171875
88.80615234375
102.5390625
99.79248046875
100.7080078125
98.876953125
99.79248046875
108.0322265625
103.45458984375
110.77880859375
121.76513671875
122.6806640625
117.1875
121.76513671875
115.3564453125
119.93408203125
132.75146484375
138.24462890625
131.8359375
150.146484375
156.55517578125
154.72412109375
153.80859375
149.23095703125
142.822265625
142.822265625
149.23095703125
151.06201171875
155.6396484375
163.87939453125
150.146484375
153.80859375
157.470703125
166.6259765625
172.119140625
163.87939453125
157.470703125
151.9775390625
137.3291015625
116.27197265625
108.94775390625
130.0048828125
125.42724609375
119.93408203125
109.86328125
95.21484375
92.46826171875
86.97509765625
76.904296875
76.904296875
63.17138671875
64.0869140625
51.26953125
32.958984375
31.1279296875
30.21240234375
17.39501953125
-0.91552734375
-4.57763671875
14.6484375
9.1552734375
0.91552734375
-10.986328125
-15.56396484375
-13.73291015625
-6.40869140625
-3.662109375
-15.56396484375
-26.55029296875
-21.97265625
-15.56396484375
-15.56396484375
-23.8037109375
-28.38134765625
-38.4521484375
-37.53662109375
-39.36767578125
-35.70556640625
-23.8037109375
-21.97265625
-26.55029296875
-26.55029296875
-28.38134765625
-41.19873046875
-20.1416015625
-11.90185546875
-24.71923828125
-35.70556640625
-29.296875
-31.1279296875
-26.55029296875
-34.7900390625
-28.38134765625
-22.88818359375
-26.55029296875
-34.7900390625
-23.8037109375
-33.87451171875
-29.296875
-7.32421875
-23.8037109375
-21.97265625
-23.8037109375
-33.87451171875
-32.04345703125
-26.55029296875
-23.8037109375
-18.310546875
-15.56396484375
-10.07080078125
-27.4658203125
-31.1279296875
-31.1279296875
-24.71923828125
-21.97265625
-26.55029296875
-17.39501953125
-16.4794921875
-10.986328125
-15.56396484375
-12.8173828125
-27.4658203125
-26.55029296875
-12.8173828125
-18.310546875
-19.22607421875
-26.55029296875
-26.55029296875
-32.04345703125
-21.97265625
-25.634765625
-20.1416015625
-18.310546875
-16.4794921875
-18.310546875
-6.40869140625
-16.4794921875
-21.97265625
-21.05712890625
-36.62109375
-32.958984375
-26.55029296875
-31.1279296875
-33.87451171875
-31.1279296875
-33.87451171875
-38.4521484375
-42.1142578125
-32.958984375
-19.22607421875
-28.38134765625
-41.19873046875
-36.62109375
-43.02978515625
-42.1142578125
-36.62109375
-38.4521484375
-34.7900390625
-41.19873046875
-35.70556640625
-34.7900390625
-35.70556640625
-33.87451171875
-40.283203125
-33.87451171875
-33.87451171875
-38.4521484375
-55.84716796875
-43.02978515625
-36.62109375
-39.36767578125
-41.19873046875
-43.9453125
-38.4521484375
-36.62109375
-42.1142578125
-43.9453125
-51.26953125
-44.86083984375
-40.283203125
-40.283203125
-44.86083984375
-47.607421875
-53.1005859375
-50.35400390625
-46.69189453125
-37.53662109375
-39.36767578125
-40.283203125
-48.52294921875
-65.00244140625
-53.1005859375
-55.84716796875
-48.52294921875
-45.7763671875
-44.86083984375
-38.4521484375
-32.04345703125
-37.53662109375
-48.52294921875
-54.01611328125
-53.1005859375
-51.26953125
-54.931640625
-47.607421875
-60.4248046875
-32.04345703125
-15.56396484375
-12.8173828125
-12.8173828125
-8.23974609375
-3.662109375
-4.57763671875
-1.8310546875
0
7.32421875
5.4931640625
-4.57763671875
-3.662109375
3.662109375
22.88818359375
47.607421875
30.21240234375
12.8173828125
29.296875
32.04345703125
22.88818359375
30.21240234375
30.21240234375
28.38134765625
22.88818359375
21.05712890625
26.55029296875
38.4521484375
30.21240234375
23.8037109375
12.8173828125
8.23974609375
-9.1552734375
-0.91552734375
-26.55029296875
-32.958984375
-31.1279296875
-39.36767578125
-49.4384765625
-41.19873046875
-39.36767578125
-43.9453125
-54.01611328125
-74.15771484375
-48.52294921875
-44.86083984375
-46.69189453125
-52.18505859375
-55.84716796875
-46.69189453125
-51.26953125
-44.86083984375
-48.52294921875
-50.35400390625
-53.1005859375
-49.4384765625
-64.0869140625
-63.17138671875
-65.91796875
-69.580078125
-70.49560546875
-58.59375
-64.0869140625
-69.580078125
-81.48193359375
-60.4248046875
-58.59375
-55.84716796875
-46.69189453125
-44.86083984375
-46.69189453125
-44.86083984375
-48.52294921875
-59.50927734375
-66.83349609375
-93.3837890625
-137.3291015625
-161.1328125
-182.18994140625
-169.37255859375
-134.58251953125
-106.201171875
-38.4521484375
13.73291015625
66.83349609375
166.6259765625
242.61474609375
312.19482421875
387.26806640625
507.2021484375
629.8828125
751.64794921875
854.18701171875
872.49755859375
808.41064453125
645.44677734375
464.17236328125
408.3251953125
368.95751953125
274.658203125
195.00732421875
120.849609375
66.83349609375
26.55029296875
6.40869140625
-14.6484375
-26.55029296875
-25.634765625
-0.91552734375
26.55029296875
29.296875
30.21240234375
11.90185546875
18.310546875
5.4931640625
-5.4931640625
-4.57763671875
-8.23974609375
-16.4794921875
-17.39501953125
-11.90185546875
-15.56396484375
-28.38134765625
-38.4521484375
-33.87451171875
-22.88818359375
-21.05712890625
-16.4794921875
-11.90185546875
-7.32421875
-0.91552734375
-1.8310546875
-11.90185546875
-12.8173828125
-0.91552734375
-12.8173828125
-11.90185546875
-19.22607421875
-23.8037109375
-18.310546875
-13.73291015625
-0.91552734375
-11.90185546875
-1.8310546875
-0.91552734375
-2.74658203125
0
-8.23974609375
-8.23974609375
-3.662109375
6.40869140625
11.90185546875
12.8173828125
8.23974609375
9.1552734375
10.07080078125
10.986328125
11.90185546875
18.310546875
21.97265625
12.8173828125
23.8037109375
16.4794921875
7.32421875
17.39501953125
13.73291015625
21.05712890625
28.38134765625
36.62109375
34.7900390625
25.634765625
30.21240234375
30.21240234375
35.70556640625
31.1279296875
32.04345703125
43.9453125
38.4521484375
26.55029296875
33.87451171875
42.1142578125
32.04345703125
52.18505859375
50.35400390625
49.4384765625
54.931640625
52.18505859375
62.255859375
59.50927734375
66.83349609375
79.65087890625
67.7490234375
66.83349609375
65.00244140625
62.255859375
83.31298828125
80.56640625
91.552734375
96.13037109375
96.13037109375
85.14404296875
85.14404296875
105.28564453125
121.76513671875
123.59619140625
116.27197265625
105.28564453125
94.29931640625
95.21484375
98.876953125
85.14404296875
108.0322265625
117.1875
119.0185546875
131.8359375
124.51171875
115.3564453125
127.25830078125
124.51171875
122.6806640625
133.6669921875
120.849609375
127.25830078125
132.75146484375
131.8359375
126.3427734375
138.24462890625
136.41357421875
116.27197265625
112.60986328125
116.27197265625
118.10302734375
108.94775390625
84.228515625
77.81982421875
80.56640625
77.81982421875
70.49560546875
61.34033203125
56.7626953125
58.59375
42.1142578125
23.8037109375
28.38134765625
30.21240234375
12.8173828125
18.310546875
20.1416015625
5.4931640625
-7.32421875
-19.22607421875
-4.57763671875
-2.74658203125
-6.40869140625
-3.662109375
-4.57763671875
-16.4794921875
-35.70556640625
-30.21240234375
-32.04345703125
-43.02978515625
-39.36767578125
-46.69189453125
-57.67822265625
-59.50927734375
-43.9453125
-50.35400390625
-48.52294921875
-32.04345703125
-23.8037109375
-28.38134765625
-38.4521484375
-37.53662109375
-35.70556640625
-40.283203125
-48.52294921875
-39.36767578125
-30.21240234375
-21.05712890625
-16.4794921875
-23.8037109375
-21.97265625
-40.283203125
-43.9453125
-39.36767578125
-22.88818359375
-7.32421875
-13.73291015625
-19.22607421875
-26.55029296875
-42.1142578125
-43.02978515625
-34.7900390625
-26.55029296875
-23.8037109375
-45.7763671875
-43.9453125
-23.8037109375
-41.19873046875
-41.19873046875
-36.62109375
-38.4521484375
-41.19873046875
-44.86083984375
-54.01611328125
-40.283203125
-35.70556640625
-25.634765625
-19.22607421875
-12.8173828125
-11.90185546875
-27.4658203125
-28.38134765625
-20.1416015625
-21.97265625
-19.22607421875
-21.97265625
-25.634765625
-12.8173828125
-16.4794921875
-10.07080078125
-6.40869140625
-27.4658203125
-37.53662109375
-39.36767578125
-44.86083984375
-40.283203125
-28.38134765625
-32.958984375
-27.4658203125
-25.634765625
-25.634765625
-34.7900390625
-37.53662109375
-33.87451171875
-40.283203125
-49.4384765625
-43.02978515625
-50.35400390625
-54.01611328125
-53.1005859375
-50.35400390625
-44.86083984375
-54.931640625
-64.0869140625
-45.7763671875
-32.958984375
-33.87451171875
-33.87451171875
-48.52294921875
-49.4384765625
-46.69189453125
-42.1142578125
-45.7763671875
-40.283203125
-40.283203125
-40.283203125
-35.70556640625
-34.7900390625
-27.4658203125
-52.18505859375
-56.7626953125
-50.35400390625
-54.01611328125
-53.1005859375
-51.26953125
-51.26953125
-42.1142578125
-43.9453125
-37.53662109375
-38.4521484375
-40.283203125
-48.52294921875
-55.84716796875
-61.34033203125
-48.52294921875
-48.52294921875
-55.84716796875
-54.931640625
-57.67822265625
-59.50927734375
-48.52294921875
-51.26953125
-51.26953125
-49.4384765625
-54.931640625
-44.86083984375
-38.4521484375
-36.62109375
-32.04345703125
-21.05712890625
-9.1552734375
-16.4794921875
-10.07080078125
-6.40869140625
-12.8173828125
-8.23974609375
-13.73291015625
-3.662109375
4.57763671875
-10.07080078125
25.634765625
46.69189453125
31.1279296875
25.634765625
26.55029296875
34.7900390625
35.70556640625
26.55029296875
17.39501953125
10.986328125
8.23974609375
6.40869140625
2.74658203125
9.1552734375
21.97265625
21.97265625
17.39501953125
3.662109375
-15.56396484375
-24.71923828125
-23.8037109375
-39.36767578125
-59.50927734375
-46.69189453125
-40.283203125
-36.62109375
-39.36767578125
-54.01611328125
-51.26953125
-59.50927734375
-58.59375
-54.01611328125
-56.7626953125
-66.83349609375
-66.83349609375
-66.83349609375
-57.67822265625
-55.84716796875
-64.0869140625
-72.32666015625
-97.96142578125
-111.6943359375
-74.15771484375
-65.00244140625
-71.4111328125
-71.4111328125
-66.83349609375
-65.91796875
-65.91796875
-67.7490234375
-65.91796875
-63.17138671875
-61.34033203125
-64.0869140625
-75.98876953125
-68.66455078125
-61.34033203125
-59.50927734375
-59.50927734375
-77.81982421875
-100.7080078125
-133.6669921875
-164.794921875
-197.75390625
-199.5849609375
-185.85205078125
-135.498046875
-95.21484375
-64.0869140625
-13.73291015625
57.67822265625
130.92041015625
210.5712890625
292.96875
378.11279296875
483.3984375
603.33251953125
715.02685546875
819.39697265625
866.0888671875
812.07275390625
674.74365234375
494.384765625
405.57861328125
371.7041015625
312.19482421875
218.81103515625
142.822265625
76.904296875
28.38134765625
-15.56396484375
-49.4384765625
-44.86083984375
-59.50927734375
-45.7763671875
-5.4931640625
6.40869140625
0
18.310546875
25.634765625
15.56396484375
6.40869140625
5.4931640625
4.57763671875
-0.91552734375
-18.310546875
-6.40869140625
3.662109375
-8.23974609375
-3.662109375
-4.57763671875
-5.4931640625
2.74658203125
-18.310546875
-20.1416015625
-11.90185546875
-11.90185546875
-14.6484375
-13.73291015625
-10.07080078125
-10.986328125
-13.73291015625
-4.57763671875
-10.07080078125
-10.986328125
-8.23974609375
-26.55029296875
-12.8173828125
15.56396484375
7.32421875
0
3.662109375
5.4931640625
4.57763671875
-12.8173828125
1.8310546875
25.634765625
20.1416015625
13.73291015625
4.57763671875
8.23974609375
11.90185546875
10.07080078125
12.8173828125
13.73291015625
14.6484375
10.07080078125
3.662109375
13.73291015625
40.283203125
32.04345703125
31.1279296875
46.69189453125
39.36767578125
23.8037109375
28.38134765625
28.38134765625
27.4658203125
27.4658203125
43.9453125
54.01611328125
51.26953125
46.69189453125
49.4384765625
50.35400390625
48.52294921875
50.35400390625
53.1005859375
60.4248046875
63.17138671875
64.0869140625
59.50927734375
75.98876953125
84.228515625
82.3974609375
75.0732421875
88.80615234375
82.3974609375
77.81982421875
80.56640625
75.0732421875
94.29931640625
96.13037109375
99.79248046875
111.6943359375
110.77880859375
107.11669921875
107.11669921875
87.890625
93.3837890625
93.3837890625
99.79248046875
105.28564453125
114.44091796875
120.849609375
114.44091796875
113.525390625
125.42724609375
143.73779296875
130.0048828125
119.93408203125
121.76513671875
124.51171875
130.92041015625
126.3427734375
135.498046875
135.498046875
136.41357421875
136.41357421875
130.92041015625
129.08935546875
117.1875
121.76513671875
128.173828125
112.60986328125
108.0322265625
112.60986328125
111.6943359375
110.77880859375
101.62353515625
89.7216796875
82.3974609375
78.7353515625
57.67822265625
35.70556640625
49.4384765625
63.17138671875
51.26953125
45.7763671875
39.36767578125
21.97265625
10.986328125
21.05712890625
10.986328125
-1.8310546875
0.91552734375
-1.8310546875
-7.32421875
-14.6484375
-23.8037109375
-32.958984375
-34.7900390625
-36.62109375
-57.67822265625
-37.53662109375
-27.4658203125
-43.02978515625
-39.36767578125
-35.70556640625
-36.62109375
-29.296875
-34.7900390625
-45.7763671875
-44.86083984375
-55.84716796875
-52.18505859375
-35.70556640625
-29.296875
-30.21240234375
-32.04345703125
-36.62109375
-32.04345703125
-31.1279296875
-20.1416015625
-11.90185546875
-31.1279296875
-25.634765625
-43.9453125
-74.15771484375
-65.91796875
-42.1142578125
-43.9453125
-34.7900390625
-30.21240234375
-18.310546875
-32.958984375
-34.7900390625
-39.36767578125
-25.634765625
-7.32421875
-9.1552734375
-9.1552734375
-28.38134765625
-30.21240234375
-41.19873046875
-32.04345703125
-14.6484375
-18.310546875
-24.71923828125
-28.38134765625
-25.634765625
-30.21240234375
-36.62109375
-32.04345703125
-30.21240234375
-20.1416015625
-21.97265625
-38.4521484375
-44.86083984375
-35.70556640625
-32.958984375
-43.9453125
-26.55029296875
-30.21240234375
-46.69189453125
-26.55029296875
-28.38134765625
-16.4794921875
-24.71923828125
-28.38134765625
-25.634765625
-28.38134765625
-41.19873046875
-30.21240234375
-36.62109375
-39.36767578125
-43.9453125
-48.52294921875
-43.9453125
-38.4521484375
-25.634765625
-29.296875
-51.26953125
-48.52294921875
-44.86083984375
-44.86083984375
-32.04345703125
-24.71923828125
-24.71923828125
-21.05712890625
-25.634765625
-34.7900390625
-59.50927734375
-57.67822265625
-49.4384765625
-65.00244140625
-55.84716796875
-45.7763671875
-56.7626953125
-78.7353515625
-58.59375
-41.19873046875
-31.1279296875
-34.7900390625
-36.62109375
-54.931640625
-45.7763671875
-36.62109375
-35.70556640625
-38.4521484375
-46.69189453125
-32.958984375
-57.67822265625
-86.97509765625
-47.607421875
-47.607421875
-39.36767578125
-43.02978515625
-62.255859375
-54.931640625
-46.69189453125
-43.02978515625
-47.607421875
-60.4248046875
-66.83349609375
-59.50927734375
-51.26953125
-53.1005859375
-52.18505859375
-54.01611328125
-60.4248046875
-45.7763671875
-36.62109375
-41.19873046875
-48.52294921875
-39.36767578125
-14.6484375
-16.4794921875
-19.22607421875
-3.662109375
1.8310546875
-4.57763671875
-9.1552734375
-8.23974609375
-26.55029296875
-18.310546875
-5.4931640625
1.8310546875
1.8310546875
3.662109375
21.97265625
22.88818359375
23.8037109375
36.62109375
45.7763671875
31.1279296875
20.1416015625
9.1552734375
19.22607421875
25.634765625
29.296875
28.38134765625
29.296875
34.7900390625
21.05712890625
-4.57763671875
-17.39501953125
-7.32421875
-10.07080078125
-14.6484375
-32.04345703125
-47.607421875
-44.86083984375
-44.86083984375
-48.52294921875
-38.4521484375
-43.02978515625
-49.4384765625
-64.0869140625
-65.91796875
-63.17138671875
-68.66455078125
-68.66455078125
-67.7490234375
-60.4248046875
-54.931640625
-68.66455078125
-75.98876953125
-71.4111328125
-77.81982421875
-75.98876953125
-65.91796875
-61.34033203125
-48.52294921875
-53.1005859375
-64.0869140625
-65.00244140625
-69.580078125
-68.66455078125
-60.4248046875
-59.50927734375
-60.4248046875
-51.26953125
-51.26953125
-44.86083984375
-49.4384765625
-54.931640625
-86.0595703125
-97.0458984375
-92.46826171875
-121.76513671875
-149.23095703125
-175.78125
-198.66943359375
-178.52783203125
-124.51171875
-100.7080078125
-49.4384765625
14.6484375
67.7490234375
133.6669921875
225.2197265625
308.53271484375
390.93017578125
505.37109375
629.8828125
747.0703125
843.20068359375
856.01806640625
796.5087890625
645.44677734375
475.15869140625
396.42333984375
343.32275390625
257.26318359375
175.78125
115.3564453125
58.59375
17.39501953125
-10.07080078125
-29.296875
-34.7900390625
-14.6484375
10.07080078125
21.05712890625
27.4658203125
18.310546875
5.4931640625
-13.73291015625
-19.22607421875
-30.21240234375
-6.40869140625
-13.73291015625
-29.296875
-10.07080078125
-13.73291015625
-18.310546875
-20.1416015625
-21.05712890625
-24.71923828125
-25.634765625
-35.70556640625
-31.1279296875
-23.8037109375
-10.07080078125
-14.6484375
-38.4521484375
-30.21240234375
-13.73291015625
-11.90185546875
-23.8037109375
-32.958984375
-29.296875
-30.21240234375
-13.73291015625
-22.88818359375
-5.4931640625
-5.4931640625
-3.662109375
2.74658203125
-0.91552734375
4.57763671875
3.662109375
-11.90185546875
-19.22607421875
-6.40869140625
-8.23974609375
-0.91552734375
-4.57763671875
2.74658203125
12.8173828125
11.90185546875
-1.8310546875
-11.90185546875
21.97265625
24.71923828125
21.05712890625
22.88818359375
16.4794921875
18.310546875
18.310546875
29.296875
18.310546875
13.73291015625
9.1552734375
7.32421875
12.8173828125
34.7900390625
44.86083984375
46.69189453125
45.7763671875
46.69189453125
35.70556640625
35.70556640625
36.62109375
39.36767578125
43.9453125
54.931640625
64.0869140625
60.4248046875
57.67822265625
49.4384765625
50.35400390625
54.01611328125
43.02978515625
67.7490234375
84.228515625
81.48193359375
79.65087890625
76.904296875
84.228515625
93.3837890625
103.45458984375
95.21484375
87.890625
87.890625
97.0458984375
105.28564453125
102.5390625
117.1875
134.58251953125
136.41357421875
119.0185546875
131.8359375
150.146484375
141.90673828125
144.6533203125
159.3017578125
150.146484375
137.3291015625
151.9775390625
146.484375
135.498046875
140.07568359375
144.6533203125
164.794921875
164.794921875
159.3017578125
149.23095703125
153.80859375
158.38623046875
144.6533203125
141.90673828125
125.42724609375
111.6943359375
100.7080078125
110.77880859375
103.45458984375
99.79248046875
97.96142578125
92.46826171875
86.97509765625
67.7490234375
64.0869140625
59.50927734375
59.50927734375
48.52294921875
29.296875
21.05712890625
19.22607421875
16.4794921875
0.91552734375
-12.8173828125
-19.22607421875
-10.07080078125
-0.91552734375
-16.4794921875
-25.634765625
-15.56396484375
-19.22607421875
-16.4794921875
-19.22607421875
-17.39501953125
-16.4794921875
-19.22607421875
-43.9453125
-49.4384765625
-49.4384765625
-50.35400390625
-46.69189453125
-40.283203125
-42.1142578125
-50.35400390625
-28.38134765625
-28.38134765625
-32.958984375
-50.35400390625
-61.34033203125
-53.1005859375
-47.607421875
-55.84716796875
-65.91796875
-36.62109375
-48.52294921875
-50.35400390625
-52.18505859375
-59.50927734375
-48.52294921875
-47.607421875
-51.26953125
-43.9453125
-36.62109375
-43.02978515625
-37.53662109375
-26.55029296875
-55.84716796875
-48.52294921875
-32.958984375
-43.02978515625
-48.52294921875
-31.1279296875
-22.88818359375
-39.36767578125
-52.18505859375
-65.91796875
-64.0869140625
-53.1005859375
-50.35400390625
-43.9453125
-31.1279296875
-32.04345703125
-27.4658203125
-16.4794921875
-18.310546875
-37.53662109375
-46.69189453125
-45.7763671875
-43.02978515625
-43.02978515625
-41.19873046875
-34.7900390625
-38.4521484375
-29.296875
-51.26953125
-49.4384765625
-43.9453125
-50.35400390625
-36.62109375
-42.1142578125
-45.7763671875
-38.4521484375
-41.19873046875
-34.7900390625
-25.634765625
-34.7900390625
-33.87451171875
-35.70556640625
-41.19873046875
-46.69189453125
-50.35400390625
-58.59375
-54.01611328125
-63.17138671875
-46.69189453125
-49.4384765625
-65.00244140625
-56.7626953125
-54.01611328125
-59.50927734375
-59.50927734375
-55.84716796875
-67.7490234375
-60.4248046875
-57.67822265625
-65.91796875
-59.50927734375
-57.67822265625
-65.91796875
-59.50927734375
-45.7763671875
-53.1005859375
-61.34033203125
-57.67822265625
-52.18505859375
-64.0869140625
-91.552734375
-90.63720703125
-83.31298828125
-73.2421875
-63.17138671875
-69.580078125
-64.0869140625
-67.7490234375
-61.34033203125
-70.49560546875
-75.98876953125
-60.4248046875
-55.84716796875
-63.17138671875
-63.17138671875
-70.49560546875
-59.50927734375
-63.17138671875
-72.32666015625
-63.17138671875
-53.1005859375
-68.66455078125
-65.00244140625
-69.580078125
-72.32666015625
-60.4248046875
-52.18505859375
-52.18505859375
-30.21240234375
-30.21240234375
-40.283203125
-43.02978515625
-21.05712890625
-21.05712890625
-25.634765625
-30.21240234375
-34.7900390625
-35.70556640625
-20.1416015625
0
-1.8310546875
10.986328125
-4.57763671875
0.91552734375
22.88818359375
15.56396484375
11.90185546875
4.57763671875
10.986328125
12.8173828125
16.4794921875
11.90185546875
10.07080078125
9.1552734375
6.40869140625
-7.32421875
-24.71923828125
-32.04345703125
-38.4521484375
-52.18505859375
-53.1005859375
-60.4248046875
-72.32666015625
-63.17138671875
-55.84716796875
-77.81982421875
-83.31298828125
-65.91796875
-78.7353515625
-84.228515625
-86.0595703125
-101.62353515625
-98.876953125
-101.62353515625
-94.29931640625
-83.31298828125
-75.0732421875
-72.32666015625
-74.15771484375
-86.0595703125
-101.62353515625
-94.29931640625
-84.228515625
-86.97509765625
-90.63720703125
-108.94775390625
-97.0458984375
-94.29931640625
-109.86328125
-99.79248046875
-81.48193359375
-82.3974609375
-89.7216796875
-67.7490234375
-72.32666015625
-80.56640625
-92.46826171875
-111.6943359375
-137.3291015625
-163.87939453125
-198.66943359375
-210.5712890625
-201.416015625
-192.2607421875
-155.6396484375
-122.6806640625
-97.96142578125
-40.283203125
17.39501953125
94.29931640625
181.2744140625
249.0234375
337.82958984375
452.2705078125
572.20458984375
683.89892578125
803.8330078125
847.7783203125
804.74853515625
678.40576171875
505.37109375
394.59228515625
358.88671875
314.94140625
216.97998046875
119.0185546875
65.00244140625
38.4521484375
-0.91552734375
-35.70556640625
-46.69189453125
-52.18505859375
-49.4384765625
-28.38134765625
-8.23974609375
-4.57763671875
10.986328125
-0.91552734375
-21.97265625
-43.9453125
-56.7626953125
-36.62109375
-38.4521484375
-45.7763671875
-45.7763671875
-55.84716796875
-43.02978515625
-29.296875
-42.1142578125
-40.283203125
-49.4384765625
-54.931640625
-44.86083984375
-50.35400390625
-54.01611328125
-56.7626953125
-47.607421875
-42.1142578125
-48.52294921875
-59.50927734375
-58.59375
-47.607421875
-40.283203125
-41.19873046875
-44.86083984375
-47.607421875
-37.53662109375
-30.21240234375
-26.55029296875
-25.634765625
-34.7900390625
-30.21240234375
-26.55029296875
-30.21240234375
-35.70556640625
-47.607421875
-37.53662109375
-29.296875
-12.8173828125
-4.57763671875
0.91552734375
0
-0.91552734375
1.8310546875
-7.32421875
-13.73291015625
-15.56396484375
-12.8173828125
-37.53662109375
-36.62109375
-8.23974609375
-7.32421875
-0.91552734375
-0.91552734375
-18.310546875
-9.1552734375
10.07080078125
18.310546875
12.8173828125
13.73291015625
12.8173828125
21.97265625
19.22607421875
8.23974609375
12.8173828125
15.56396484375
19.22607421875
21.05712890625
23.8037109375
33.87451171875
32.04345703125
35.70556640625
23.8037109375
30.21240234375
18.310546875
16.4794921875
36.62109375
42.1142578125
58.59375
55.84716796875
48.52294921875
62.255859375
64.0869140625
79.65087890625
80.56640625
63.17138671875
50.35400390625
72.32666015625
69.580078125
64.0869140625
68.66455078125
67.7490234375
71.4111328125
84.228515625
80.56640625
96.13037109375
86.0595703125
86.97509765625
84.228515625
91.552734375
84.228515625
72.32666015625
103.45458984375
99.79248046875
103.45458984375
108.0322265625
112.60986328125
108.94775390625
96.13037109375
108.0322265625
116.27197265625
114.44091796875
105.28564453125
88.80615234375
87.890625
76.904296875
69.580078125
72.32666015625
68.66455078125
69.580078125
54.01611328125
37.53662109375
21.97265625
16.4794921875
18.310546875
11.90185546875
-5.4931640625
-6.40869140625
-12.8173828125
-37.53662109375
-25.634765625
-24.71923828125
-27.4658203125
-39.36767578125
-43.02978515625
-38.4521484375
-47.607421875
-47.607421875
-47.607421875
-59.50927734375
-72.32666015625
-67.7490234375
-74.15771484375
-70.49560546875
-65.91796875
-56.7626953125
-47.607421875
-50.35400390625
-64.0869140625
-89.7216796875
-86.0595703125
-55.84716796875
-50.35400390625
-51.26953125
-67.7490234375
-65.91796875
-59.50927734375
-62.255859375
-70.49560546875
-68.66455078125
-59.50927734375
-63.17138671875
-52.18505859375
-57.67822265625
-57.67822265625
-48.52294921875
-50.35400390625
-76.904296875
-87.890625
-65.91796875
-52.18505859375
-49.4384765625
-52.18505859375
-48.52294921875
-48.52294921875
-49.4384765625
-46.69189453125
-53.1005859375
-61.34033203125
-56.7626953125
-57.67822265625
-60.4248046875
-66.83349609375
-61.34033203125
-39.36767578125
-30.21240234375
-37.53662109375
-40.283203125
-37.53662109375
-60.4248046875
-76.904296875
-72.32666015625
-61.34033203125
-74.15771484375
-59.50927734375
-52.18505859375
-53.1005859375
-45.7763671875
-45.7763671875
-51.26953125
-54.931640625
-45.7763671875
-54.01611328125
-55.84716796875
-48.52294921875
-54.931640625
-64.0869140625
-54.931640625
-46.69189453125
-44.86083984375
-52.18505859375
-46.69189453125
-61.34033203125
-71.4111328125
-65.00244140625
-65.00244140625
-57.67822265625
-45.7763671875
-56.7626953125
-54.01611328125
-64.0869140625
-59.50927734375
-54.931640625
-54.01611328125
-52.18505859375
-53.1005859375
-64.0869140625
-57.67822265625
-59.50927734375
-71.4111328125
-74.15771484375
-64.0869140625
-60.4248046875
-68.66455078125
-60.4248046875
-56.7626953125
-43.9453125
-67.7490234375
-87.890625
-80.56640625
-69.580078125
-71.4111328125
-74.15771484375
-78.7353515625
-60.4248046875
-61.34033203125
-82.3974609375
-72.32666015625
-72.32666015625
-70.49560546875
-59.50927734375
-61.34033203125
-54.01611328125
-61.34033203125
-78.7353515625
-72.32666015625
-54.01611328125
-65.91796875
-65.91796875
-75.98876953125
-75.98876953125
-65.91796875
-48.52294921875
-40.283203125
-26.55029296875
-21.05712890625
-10.986328125
-20.1416015625
-16.4794921875
-8.23974609375
-18.310546875
-18.310546875
-20.1416015625
-16.4794921875
-24.71923828125
-6.40869140625
15.56396484375
19.22607421875
15.56396484375
20.1416015625
24.71923828125
23.8037109375
23.8037109375
20.1416015625
9.1552734375
13.73291015625
21.97265625
31.1279296875
7.32421875
8.23974609375
-1.8310546875
-8.23974609375
-5.4931640625
-2.74658203125
-10.07080078125
-21.97265625
-29.296875
-50.35400390625
-66.83349609375
-64.0869140625
-57.67822265625
-63.17138671875
-65.00244140625
-81.48193359375
-80.56640625
-81.48193359375
-86.0595703125
-73.2421875
-58.59375
-68.66455078125
-77.81982421875
-80.56640625
-68.66455078125
-56.7626953125
-56.7626953125
-59.50927734375
-60.4248046875
-68.66455078125
-59.50927734375
-60.4248046875
-62.255859375
-61.34033203125
-61.34033203125
-78.7353515625
-114.44091796875
-109.86328125
-67.7490234375
-75.0732421875
-79.65087890625
-78.7353515625
-86.97509765625
-76.904296875
-75.98876953125
-75.98876953125
-86.0595703125
-95.21484375
-121.76513671875
-162.04833984375
-192.2607421875
-199.5849609375
-182.18994140625
-135.498046875
-99.79248046875
-56.7626953125
7.32421875
69.580078125
151.9775390625
235.29052734375
308.53271484375
399.169921875
520.93505859375
631.7138671875
742.49267578125
842.28515625
866.0888671875
784.60693359375
621.64306640625
456.84814453125
403.74755859375
357.0556640625
270.08056640625
155.6396484375
95.21484375
45.7763671875
19.22607421875
-6.40869140625
-32.04345703125
-30.21240234375
-30.21240234375
-13.73291015625
10.986328125
17.39501953125
4.57763671875
0
-2.74658203125
-12.8173828125
-19.22607421875
-8.23974609375
-21.97265625
-32.04345703125
-23.8037109375
-23.8037109375
-14.6484375
-17.39501953125
-11.90185546875
-13.73291015625
-4.57763671875
-9.1552734375
-30.21240234375
-24.71923828125
-23.8037109375
-29.296875
-27.4658203125
-26.55029296875
-26.55029296875
-28.38134765625
-20.1416015625
-4.57763671875
-1.8310546875
6.40869140625
-7.32421875
-10.07080078125
-10.986328125
-14.6484375
-13.73291015625
0
-10.07080078125
-10.07080078125
-5.4931640625
-8.23974609375
-10.07080078125
0
17.39501953125
17.39501953125
27.4658203125
22.88818359375
8.23974609375
8.23974609375
5.4931640625
9.1552734375
7.32421875
19.22607421875
12.8173828125
14.6484375
18.310546875
10.07080078125
8.23974609375
21.97265625
16.4794921875
22.88818359375
30.21240234375
26.55029296875
21.05712890625
14.6484375
24.71923828125
30.21240234375
32.958984375
40.283203125
30.21240234375
53.1005859375
62.255859375
49.4384765625
40.283203125
51.26953125
57.67822265625
54.01611328125
54.931640625
61.34033203125
66.83349609375
71.4111328125
75.98876953125
64.0869140625
54.931640625
63.17138671875
80.56640625
70.49560546875
74.15771484375
94.29931640625
90.63720703125
84.228515625
85.14404296875
81.48193359375
88.80615234375
99.79248046875
98.876953125
95.21484375
105.28564453125
106.201171875
125.42724609375
128.173828125
126.3427734375
130.0048828125
138.24462890625
138.24462890625
133.6669921875
130.0048828125
124.51171875
132.75146484375
133.6669921875
130.0048828125
124.51171875
130.92041015625
138.24462890625
128.173828125
131.8359375
135.498046875
136.41357421875
132.75146484375
124.51171875
130.92041015625
115.3564453125
102.5390625
99.79248046875
91.552734375
88.80615234375
77.81982421875
70.49560546875
64.0869140625
47.607421875
45.7763671875
45.7763671875
33.87451171875
35.70556640625
32.958984375
24.71923828125
19.22607421875
-0.91552734375
-14.6484375
-24.71923828125
-42.1142578125
-35.70556640625
-29.296875
-20.1416015625
-20.1416015625
-32.04345703125
-36.62109375
-30.21240234375
-41.19873046875
-43.9453125
-46.69189453125
-54.01611328125
-43.02978515625
-45.7763671875
-54.931640625
-56.7626953125
-45.7763671875
-43.02978515625
-39.36767578125
-31.1279296875
-35.70556640625
-44.86083984375
-35.70556640625
-27.4658203125
-35.70556640625
-42.1142578125
-41.19873046875
-45.7763671875
-49.4384765625
-45.7763671875
-54.01611328125
-46.69189453125
-38.4521484375
-61.34033203125
-59.50927734375
-45.7763671875
-36.62109375
-36.62109375
-42.1142578125
-43.02978515625
-50.35400390625
-37.53662109375
-43.02978515625
-41.19873046875
-42.1142578125
-41.19873046875
-47.607421875
-17.39501953125
-19.22607421875
-32.04345703125
-40.283203125
-39.36767578125
-41.19873046875
-37.53662109375
-38.4521484375
-28.38134765625
-23.8037109375
-15.56396484375
-15.56396484375
-28.38134765625
-46.69189453125
-58.59375
-24.71923828125
-36.62109375
-36.62109375
-29.296875
-29.296875
-32.04345703125
-30.21240234375
-33.87451171875
-34.7900390625
-21.97265625
-22.88818359375
-28.38134765625
-31.1279296875
-32.958984375
-26.55029296875
-28.38134765625
-22.88818359375
-33.87451171875
-33.87451171875
-27.4658203125
-46.69189453125
-40.283203125
-27.4658203125
-32.04345703125
-28.38134765625
-23.8037109375
-22.88818359375
-38.4521484375
-46.69189453125
-38.4521484375
-40.283203125
-49.4384765625
-40.283203125
-57.67822265625
-60.4248046875
-65.00244140625
-66.83349609375
-63.17138671875
-55.84716796875
-65.91796875
-64.0869140625
-52.18505859375
-54.931640625
-45.7763671875
-45.7763671875
-45.7763671875
-40.283203125
-45.7763671875
-51.26953125
-46.69189453125
-47.607421875
-56.7626953125
-57.67822265625
-54.01611328125
-36.62109375
-40.283203125
-38.4521484375
-29.296875
-50.35400390625
-60.4248046875
-57.67822265625
-58.59375
-73.2421875
-68.66455078125
-68.66455078125
-66.83349609375
-56.7626953125
-46.69189453125
-42.1142578125
-35.70556640625
-30.21240234375
-46.69189453125
-45.7763671875
-44.86083984375
-36.62109375
-18.310546875
-12.8173828125
-12.8173828125
-4.57763671875
1.8310546875
4.57763671875
-3.662109375
-9.1552734375
-12.8173828125
-5.4931640625
-0.91552734375
14.6484375
32.958984375
34.7900390625
30.21240234375
32.04345703125
20.1416015625
29.296875
14.6484375
1.8310546875
-2.74658203125
16.4794921875
15.56396484375
21.97265625
21.05712890625
20.1416015625
4.57763671875
-13.73291015625
-21.97265625
-24.71923828125
-19.22607421875
-30.21240234375
-31.1279296875
-43.02978515625
-58.59375
-61.34033203125
-63.17138671875
-65.91796875
-67.7490234375
-77.81982421875
-75.0732421875
-80.56640625
-72.32666015625
-55.84716796875
-65.91796875
-65.00244140625
-59.50927734375
-61.34033203125
-61.34033203125
-58.59375
-72.32666015625
-87.890625
-88.80615234375
-80.56640625
-85.14404296875
-82.3974609375
-69.580078125
-64.0869140625
-72.32666015625
-77.81982421875
-76.904296875
-76.904296875
-87.890625
-100.7080078125
-87.890625
-71.4111328125
-79.65087890625
-77.81982421875
-88.80615234375
-75.98876953125
-94.29931640625
-111.6943359375
-144.6533203125
-192.2607421875
-213.31787109375
-205.99365234375
-166.6259765625
-125.42724609375
-86.97509765625
-9.1552734375
70.49560546875
147.39990234375
205.078125
270.99609375
351.5625
449.52392578125
563.96484375
658.26416015625
766.29638671875
842.28515625
821.22802734375
704.9560546875
535.58349609375
415.6494140625
371.7041015625
292.05322265625
201.416015625
129.08935546875
62.255859375
2.74658203125
-27.4658203125
-41.19873046875
-45.7763671875
-40.283203125
-20.1416015625
0.91552734375
6.40869140625
29.296875
15.56396484375
20.1416015625
21.05712890625
0
-36.62109375
-31.1279296875
-10.07080078125
3.662109375
4.57763671875
-15.56396484375
-26.55029296875
-43.02978515625
-33.87451171875
-27.4658203125
-34.7900390625
-26.55029296875
-32.958984375
-30.21240234375
-27.4658203125
-23.8037109375
-17.39501953125
-25.634765625
-23.8037109375
-21.97265625
-16.4794921875
-16.4794921875
-26.55029296875
-35.70556640625
-42.1142578125
-35.70556640625
-34.7900390625
-34.7900390625
-24.71923828125
-15.56396484375
-10.986328125
-14.6484375
-13.73291015625
-9.1552734375
4.57763671875
-6.40869140625
-19.22607421875
-20.1416015625
-9.1552734375
-6.40869140625
3.662109375
1.8310546875
6.40869140625
-8.23974609375
-16.4794921875
1.8310546875
1.8310546875
26.55029296875
32.04345703125
30.21240234375
23.8037109375
10.07080078125
11.90185546875
17.39501953125
16.4794921875
21.05712890625
23.8037109375
21.97265625
10.986328125
25.634765625
43.9453125
32.958984375
30.21240234375
36.62109375
35.70556640625
42.1142578125
53.1005859375
51.26953125
45.7763671875
41.19873046875
36.62109375
43.02978515625
56.7626953125
59.50927734375
59.50927734375
53.1005859375
59.50927734375
69.580078125
54.931640625
47.607421875
67.7490234375
61.34033203125
68.66455078125
76.904296875
93.3837890625
98.876953125
100.7080078125
103.45458984375
109.86328125
117.1875
115.3564453125
114.44091796875
122.6806640625
125.42724609375
135.498046875
129.08935546875
129.08935546875
124.51171875
119.93408203125
119.93408203125
145.56884765625
140.9912109375
142.822265625
153.80859375
154.72412109375
145.56884765625
142.822265625
136.41357421875
133.6669921875
127.25830078125
119.93408203125
113.525390625
104.3701171875
110.77880859375
110.77880859375
116.27197265625
121.76513671875
102.5390625
86.97509765625
80.56640625
62.255859375
49.4384765625
38.4521484375
40.283203125
32.04345703125
32.04345703125
27.4658203125
21.97265625
25.634765625
16.4794921875
-6.40869140625
-2.74658203125
0
-15.56396484375
-29.296875
-20.1416015625
-31.1279296875
-36.62109375
-33.87451171875
-30.21240234375
-45.7763671875
-68.66455078125
-66.83349609375
-52.18505859375
-68.66455078125
-94.29931640625
-68.66455078125
-51.26953125
-51.26953125
-41.19873046875
-36.62109375
-39.36767578125
-43.02978515625
-39.36767578125
-40.283203125
-45.7763671875
-49.4384765625
-48.52294921875
-47.607421875
-36.62109375
-37.53662109375
-47.607421875
-45.7763671875
-43.9453125
-43.02978515625
-53.1005859375
-59.50927734375
-56.7626953125
-60.4248046875
-32.958984375
-31.1279296875
-42.1142578125
-44.86083984375
-44.86083984375
-55.84716796875
-53.1005859375
-45.7763671875
-31.1279296875
-31.1279296875
-26.55029296875
-31.1279296875
-39.36767578125
-56.7626953125
-44.86083984375
-49.4384765625
-60.4248046875
-59.50927734375
-62.255859375
-43.9453125
-38.4521484375
-33.87451171875
-34.7900390625
-30.21240234375
-17.39501953125
-22.88818359375
-20.1416015625
-36.62109375
-53.1005859375
-50.35400390625
-38.4521484375
-43.9453125
-41.19873046875
-30.21240234375
-32.958984375
-51.26953125
-63.17138671875
-57.67822265625
-55.84716796875
-43.02978515625
-32.958984375
-23.8037109375
-28.38134765625
-21.05712890625
-30.21240234375
-35.70556640625
-45.7763671875
-32.958984375
-37.53662109375
-51.26953125
-56.7626953125
-49.4384765625
-46.69189453125
-52.18505859375
-54.931640625
-57.67822265625
-61.34033203125
-61.34033203125
-29.296875
-32.04345703125
-39.36767578125
-44.86083984375
-43.9453125
-53.1005859375
-49.4384765625
-54.01611328125
-54.01611328125
-61.34033203125
-59.50927734375
-46.69189453125
-54.931640625
-54.931640625
-43.02978515625
-49.4384765625
-53.1005859375
-54.931640625
-59.50927734375
-54.01611328125
-52.18505859375
-49.4384765625
-51.26953125
-50.35400390625
-61.34033203125
-76.904296875
-89.7216796875
-61.34033203125
-64.0869140625
-58.59375
-57.67822265625
-60.4248046875
-65.91796875
-63.17138671875
-64.0869140625
-56.7626953125
-48.52294921875
-51.26953125
-67.7490234375
-75.98876953125
-64.0869140625
-61.34033203125
-62.255859375
-59.50927734375
-43.02978515625
-32.04345703125
-23.8037109375
-16.4794921875
-21.97265625
-33.87451171875
-39.36767578125
-33.87451171875
-23.8037109375
-32.958984375
-25.634765625
-7.32421875
-8.23974609375
2.74658203125
9.1552734375
8.23974609375
12.8173828125
21.05712890625
29.296875
28.38134765625
20.1416015625
15.56396484375
18.310546875
18.310546875
10.07080078125
17.39501953125
5.4931640625
3.662109375
-2.74658203125
-21.05712890625
-29.296875
-34.7900390625
-57.67822265625
-57.67822265625
-74.15771484375
-67.7490234375
-52.18505859375
-70.49560546875
-73.2421875
-92.46826171875
-87.890625
-75.98876953125
-75.98876953125
-77.81982421875
-78.7353515625
-69.580078125
-74.15771484375
-75.98876953125
-81.48193359375
-90.63720703125
-77.81982421875
-88.80615234375
-87.890625
-93.3837890625
-81.48193359375
-85.14404296875
-78.7353515625
-83.31298828125
-94.29931640625
-87.890625
-73.2421875
-82.3974609375
-89.7216796875
-81.48193359375
-86.0595703125
-86.97509765625
-79.65087890625
-86.97509765625
-95.21484375
-97.0458984375
-97.96142578125
-118.10302734375
-126.3427734375
-154.72412109375
-205.078125
-222.47314453125
-212.40234375
-193.17626953125
-165.71044921875
-129.08935546875
-57.67822265625
-0.91552734375
62.255859375
140.9912109375
219.7265625
292.96875
376.28173828125
484.31396484375
587.7685546875
704.04052734375
807.4951171875
830.38330078125
758.97216796875
598.7548828125
438.53759765625
389.09912109375
331.4208984375
231.62841796875
138.24462890625
73.2421875
19.22607421875
-32.958984375
-47.607421875
-54.931640625
-57.67822265625
-57.67822265625
-29.296875
-20.1416015625
-12.8173828125
-4.57763671875
-6.40869140625
-5.4931640625
-11.90185546875
-24.71923828125
-29.296875
-30.21240234375
-40.283203125
-35.70556640625
-30.21240234375
-50.35400390625
-54.01611328125
-32.958984375
-32.958984375
-36.62109375
-34.7900390625
-28.38134765625
-35.70556640625
-42.1142578125
-34.7900390625
-38.4521484375
-45.7763671875
-42.1142578125
-56.7626953125
-59.50927734375
-52.18505859375
-52.18505859375
-54.01611328125
-58.59375
-61.34033203125
-60.4248046875
-58.59375
-39.36767578125
-42.1142578125
-32.04345703125
-31.1279296875
-29.296875
-30.21240234375
-40.283203125
-24.71923828125
-13.73291015625
-9.1552734375
-17.39501953125
-25.634765625
-31.1279296875
-35.70556640625
-13.73291015625
-1.8310546875
-9.1552734375
-16.4794921875
-3.662109375
-6.40869140625
-15.56396484375
0.91552734375
11.90185546875
15.56396484375
10.07080078125
4.57763671875
2.74658203125
-7.32421875
-10.986328125
-20.1416015625
-9.1552734375
-1.8310546875
-2.74658203125
11.90185546875
13.73291015625
10.986328125
6.40869140625
10.986328125
15.56396484375
16.4794921875
38.4521484375
33.87451171875
35.70556640625
43.02978515625
37.53662109375
34.7900390625
23.8037109375
32.04345703125
45.7763671875
49.4384765625
57.67822265625
45.7763671875
58.59375
71.4111328125
78.7353515625
75.98876953125
67.7490234375
71.4111328125
69.580078125
65.00244140625
93.3837890625
89.7216796875
78.7353515625
76.904296875
68.66455078125
82.3974609375
93.3837890625
97.0458984375
101.62353515625
97.96142578125
106.201171875
96.13037109375
96.13037109375
97.96142578125
84.228515625
96.13037109375
117.1875
113.525390625
120.849609375
106.201171875
113.525390625
130.92041015625
142.822265625
132.75146484375
102.5390625
107.11669921875
107.11669921875
94.29931640625
78.7353515625
74.15771484375
64.0869140625
62.255859375
53.1005859375
44.86083984375
43.02978515625
38.4521484375
18.310546875
21.05712890625
23.8037109375
5.4931640625
10.07080078125
8.23974609375
1.8310546875
-13.73291015625
-27.4658203125
-29.296875
-31.1279296875
-27.4658203125
-25.634765625
-35.70556640625
-60.4248046875
-46.69189453125
-41.19873046875
-43.02978515625
-60.4248046875
-61.34033203125
-51.26953125
-51.26953125
-66.83349609375
-65.00244140625
-54.01611328125
-57.67822265625
-50.35400390625
-55.84716796875
-64.0869140625
-65.00244140625
-68.66455078125
-55.84716796875
-43.9453125
-46.69189453125
-57.67822265625
-50.35400390625
-49.4384765625
-68.66455078125
-75.98876953125
-65.91796875
-63.17138671875
-64.0869140625
-70.49560546875
-71.4111328125
-63.17138671875
-78.7353515625
-80.56640625
-59.50927734375
-57.67822265625
-42.1142578125
-41.19873046875
-54.931640625
-45.7763671875
-47.607421875
-40.283203125
-35.70556640625
-47.607421875
-47.607421875
-53.1005859375
-49.4384765625
-43.02978515625
-42.1142578125
-37.53662109375
-56.7626953125
-59.50927734375
-32.04345703125
-43.02978515625
-49.4384765625
-52.18505859375
-48.52294921875
-43.02978515625
-42.1142578125
-32.04345703125
-37.53662109375
-39.36767578125
-43.9453125
-52.18505859375
-62.255859375
-43.9453125
-51.26953125
-65.91796875
-54.931640625
-54.01611328125
-58.59375
-57.67822265625
-63.17138671875
-52.18505859375
-54.01611328125
-63.17138671875
-61.34033203125
-44.86083984375
-55.84716796875
-66.83349609375
-67.7490234375
-65.91796875
-67.7490234375
-73.2421875
-75.98876953125
-74.15771484375
-75.0732421875
-54.01611328125
-52.18505859375
-51.26953125
-54.01611328125
-65.91796875
-68.66455078125
-59.50927734375
-60.4248046875
-48.52294921875
-59.50927734375
-69.580078125
-54.931640625
-60.4248046875
-69.580078125
-66.83349609375
-72.32666015625
-71.4111328125
-64.0869140625
-62.255859375
-67.7490234375
-75.98876953125
-67.7490234375
-65.91796875
-68.66455078125
-65.00244140625
-57.67822265625
-74.15771484375
-75.0732421875
-80.56640625
-82.3974609375
-84.228515625
-75.0732421875
-81.48193359375
-77.81982421875
-66.83349609375
-63.17138671875
-72.32666015625
-69.580078125
-61.34033203125
-51.26953125
-46.69189453125
-40.283203125
-29.296875
-32.958984375
-42.1142578125
-29.296875
-22.88818359375
-29.296875
-29.296875
-38.4521484375
-30.21240234375
-21.97265625
8.23974609375
19.22607421875
2.74658203125
15.56396484375
14.6484375
13.73291015625
16.4794921875
14.6484375
19.22607421875
7.32421875
0
-2.74658203125
-19.22607421875
-26.55029296875
-10.986328125
-17.39501953125
-37.53662109375
-17.39501953125
-15.56396484375
-32.04345703125
-45.7763671875
-62.255859375
-74.15771484375
-54.931640625
-66.83349609375
-71.4111328125
-68.66455078125
-88.80615234375
-103.45458984375
-103.45458984375
-99.79248046875
-97.96142578125
-87.890625
-87.890625
-77.81982421875
-75.98876953125
-86.97509765625
-83.31298828125
-85.14404296875
-82.3974609375
-85.14404296875
-90.63720703125
-84.228515625
-89.7216796875
-95.21484375
-102.5390625
-100.7080078125
-98.876953125
-92.46826171875
-105.28564453125
-95.21484375
-73.2421875
-90.63720703125
-82.3974609375
-88.80615234375
-94.29931640625
-94.29931640625
-90.63720703125
-108.94775390625
-115.3564453125
-124.51171875
-159.3017578125
-205.078125
-231.62841796875
-227.96630859375
-193.17626953125
-146.484375
-92.46826171875
-21.97265625
34.7900390625
98.876953125
184.9365234375
253.60107421875
316.7724609375
415.6494140625
560.302734375
667.41943359375
788.26904296875
839.53857421875
811.1572265625
693.05419921875
498.96240234375
390.0146484375
371.7041015625
313.1103515625
213.31787109375
131.8359375
74.15771484375
27.4658203125
-7.32421875
-30.21240234375
-40.283203125
-58.59375
-52.18505859375
-29.296875
-3.662109375
3.662109375
2.74658203125
3.662109375
-3.662109375
-38.4521484375
-53.1005859375
-61.34033203125
-52.18505859375
-45.7763671875
-52.18505859375
-34.7900390625
-23.8037109375
-33.87451171875
-32.958984375
-25.634765625
-23.8037109375
-29.296875
-41.19873046875
-54.931640625
-35.70556640625
-23.8037109375
-33.87451171875
-33.87451171875
-34.7900390625
-36.62109375
-45.7763671875
-46.69189453125
-40.283203125
-39.36767578125
-24.71923828125
-20.1416015625
-21.05712890625
-21.05712890625
-32.04345703125
-23.8037109375
-9.1552734375
-6.40869140625
-12.8173828125
-8.23974609375
-15.56396484375
-27.4658203125
-23.8037109375
-19.22607421875
-21.97265625
-15.56396484375
-15.56396484375
-25.634765625
-24.71923828125
-4.57763671875
-15.56396484375
-15.56396484375
3.662109375
-18.310546875
-16.4794921875
-6.40869140625
7.32421875
3.662109375
5.4931640625
8.23974609375
18.310546875
9.1552734375
-2.74658203125
0.91552734375
-9.1552734375
0.91552734375
11.90185546875
14.6484375
16.4794921875
10.07080078125
18.310546875
8.23974609375
21.05712890625
39.36767578125
33.87451171875
49.4384765625
50.35400390625
46.69189453125
34.7900390625
32.958984375
50.35400390625
49.4384765625
52.18505859375
64.0869140625
71.4111328125
71.4111328125
70.49560546875
75.0732421875
79.65087890625
66.83349609375
65.00244140625
68.66455078125
71.4111328125
81.48193359375
83.31298828125
88.80615234375
96.13037109375
93.3837890625
90.63720703125
110.77880859375
104.3701171875
99.79248046875
98.876953125
106.201171875
101.62353515625
86.97509765625
91.552734375
95.21484375
92.46826171875
100.7080078125
113.525390625
125.42724609375
130.92041015625
122.6806640625
117.1875
104.3701171875
99.79248046875
89.7216796875
91.552734375
86.97509765625
80.56640625
73.2421875
78.7353515625
71.4111328125
67.7490234375
64.0869140625
53.1005859375
52.18505859375
44.86083984375
31.1279296875
19.22607421875
13.73291015625
10.986328125
12.8173828125
9.1552734375
0
-5.4931640625
-15.56396484375
-18.310546875
-25.634765625
-41.19873046875
-57.67822265625
-42.1142578125
-38.4521484375
-52.18505859375
-50.35400390625
-51.26953125
-50.35400390625
-37.53662109375
-23.8037109375
-24.71923828125
-29.296875
-38.4521484375
-38.4521484375
-43.9453125
-53.1005859375
-54.01611328125
-56.7626953125
-54.01611328125
-39.36767578125
-44.86083984375
-58.59375
-47.607421875
-45.7763671875
-49.4384765625
-50.35400390625
-47.607421875
-52.18505859375
-50.35400390625
-54.01611328125
-64.0869140625
-37.53662109375
-41.19873046875
-46.69189453125
-54.01611328125
-53.1005859375
-45.7763671875
-54.931640625
-66.83349609375
-59.50927734375
-43.9453125
-40.283203125
-43.9453125
-41.19873046875
-36.62109375
-31.1279296875
-44.86083984375
-41.19873046875
-42.1142578125
-45.7763671875
-44.86083984375
-32.04345703125
-39.36767578125
-27.4658203125
-17.39501953125
-18.310546875
-27.4658203125
-30.21240234375
-34.7900390625
-46.69189453125
-51.26953125
-50.35400390625
-43.9453125
-39.36767578125
-37.53662109375
-41.19873046875
-36.62109375
-47.607421875
-48.52294921875
-24.71923828125
-21.97265625
-24.71923828125
-43.02978515625
-43.9453125
-45.7763671875
-51.26953125
-50.35400390625
-45.7763671875
-34.7900390625
-53.1005859375
-47.607421875
-46.69189453125
-43.9453125
-47.607421875
-52.18505859375
-39.36767578125
-50.35400390625
-64.0869140625
-72.32666015625
-86.0595703125
-61.34033203125
-45.7763671875
-44.86083984375
-44.86083984375
-45.7763671875
-57.67822265625
-56.7626953125
-50.35400390625
-57.67822265625
-54.931640625
-54.931640625
-60.4248046875
-56.7626953125
-58.59375
-70.49560546875
-65.91796875
-53.1005859375
-53.1005859375
-55.84716796875
-63.17138671875
-63.17138671875
-60.4248046875
-64.0869140625
-60.4248046875
-49.4384765625
-61.34033203125
-74.15771484375
-65.00244140625
-48.52294921875
-48.52294921875
-71.4111328125
-87.890625
-58.59375
-74.15771484375
-80.56640625
-81.48193359375
-72.32666015625
-74.15771484375
-75.98876953125
-65.00244140625
-43.02978515625
-45.7763671875
-39.36767578125
-24.71923828125
-21.05712890625
-23.8037109375
-28.38134765625
-26.55029296875
-18.310546875
-17.39501953125
-20.1416015625
-27.4658203125
-23.8037109375
10.07080078125
10.986328125
23.8037109375
8.23974609375
4.57763671875
6.40869140625
10.986328125
2.74658203125
2.74658203125
0
-5.4931640625
12.8173828125
16.4794921875
17.39501953125
23.8037109375
21.05712890625
19.22607421875
-1.8310546875
-11.90185546875
-27.4658203125
-33.87451171875
-48.52294921875
-54.01611328125
-66.83349609375
-76.904296875
-82.3974609375
-81.48193359375
-68.66455078125
-74.15771484375
-78.7353515625
-74.15771484375
-67.7490234375
-82.3974609375
-72.32666015625
-61.34033203125
-73.2421875
-74.15771484375
-72.32666015625
-78.7353515625
-80.56640625
-90.63720703125
-84.228515625
-77.81982421875
-87.890625
-97.96142578125
-92.46826171875
-93.3837890625
-100.7080078125
-99.79248046875
-73.2421875
-77.81982421875
-76.904296875
-67.7490234375
-59.50927734375
-54.931640625
-68.66455078125
-70.49560546875
-75.98876953125
-86.0595703125
-86.97509765625
-93.3837890625
-122.6806640625
-152.89306640625
-178.52783203125
-195.9228515625
-187.68310546875
-139.16015625
-111.6943359375
-63.17138671875
2.74658203125
48.52294921875
113.525390625
193.17626953125
276.4892578125
359.80224609375
456.84814453125
574.951171875
670.166015625
762.63427734375
836.7919921875
802.001953125
671.08154296875
505.37109375
405.57861328125
341.49169921875
265.5029296875
181.2744140625
92.46826171875
32.958984375
-5.4931640625
-13.73291015625
-28.38134765625
-47.607421875
-31.1279296875
-20.1416015625
0
-7.32421875
-3.662109375
20.1416015625
22.88818359375
19.22607421875
15.56396484375
-3.662109375
-8.23974609375
-18.310546875
-21.97265625
-21.97265625
-19.22607421875
-23.8037109375
-32.04345703125
-32.04345703125
-30.21240234375
-12.8173828125
-7.32421875
-11.90185546875
-16.4794921875
-21.05712890625
-32.958984375
-43.02978515625
-31.1279296875
-39.36767578125
-36.62109375
-34.7900390625
-32.958984375
-27.4658203125
-25.634765625
-24.71923828125
-13.73291015625
1.8310546875
-2.74658203125
1.8310546875
-3.662109375
-22.88818359375
-29.296875
-0.91552734375
-2.74658203125
-6.40869140625
5.4931640625
6.40869140625
-10.07080078125
-5.4931640625
-3.662109375
-10.986328125
0
1.8310546875
5.4931640625
12.8173828125
8.23974609375
10.986328125
10.07080078125
31.1279296875
33.87451171875
27.4658203125
15.56396484375
7.32421875
1.8310546875
14.6484375
21.05712890625
24.71923828125
30.21240234375
24.71923828125
28.38134765625
25.634765625
23.8037109375
19.22607421875
42.1142578125
43.9453125
43.02978515625
49.4384765625
47.607421875
47.607421875
51.26953125
55.84716796875
38.4521484375
49.4384765625
70.49560546875
72.32666015625
64.0869140625
70.49560546875
75.0732421875
75.98876953125
85.14404296875
83.31298828125
94.29931640625
101.62353515625
91.552734375
83.31298828125
87.890625
84.228515625
85.14404296875
107.11669921875
116.27197265625
107.11669921875
117.1875
113.525390625
122.6806640625
125.42724609375
125.42724609375
126.3427734375
139.16015625
143.73779296875
144.6533203125
145.56884765625
146.484375
139.16015625
124.51171875
140.9912109375
140.9912109375
132.75146484375
142.822265625
139.16015625
136.41357421875
145.56884765625
139.16015625
128.173828125
141.90673828125
135.498046875
134.58251953125
123.59619140625
100.7080078125
81.48193359375
81.48193359375
75.0732421875
62.255859375
43.02978515625
38.4521484375
39.36767578125
13.73291015625
19.22607421875
17.39501953125
5.4931640625
10.986328125
-0.91552734375
-3.662109375
0.91552734375
-10.07080078125
-21.97265625
-31.1279296875
-26.55029296875
-28.38134765625
-24.71923828125
-32.04345703125
-34.7900390625
-37.53662109375
-48.52294921875
-62.255859375
-54.01611328125
-36.62109375
-39.36767578125
-38.4521484375
-39.36767578125
-40.283203125
-28.38134765625
-20.1416015625
-34.7900390625
-46.69189453125
-39.36767578125
-35.70556640625
-55.84716796875
-55.84716796875
-40.283203125
-50.35400390625
-46.69189453125
-49.4384765625
-43.9453125
-46.69189453125
-52.18505859375
-49.4384765625
-39.36767578125
-34.7900390625
-35.70556640625
-35.70556640625
-34.7900390625
-36.62109375
-35.70556640625
-29.296875
-46.69189453125
-47.607421875
-37.53662109375
-36.62109375
-32.04345703125
-32.958984375
-19.22607421875
-7.32421875
-12.8173828125
-22.88818359375
-15.56396484375
-19.22607421875
-41.19873046875
-47.607421875
-45.7763671875
-45.7763671875
-44.86083984375
-42.1142578125
-41.19873046875
-35.70556640625
-26.55029296875
-30.21240234375
-47.607421875
-35.70556640625
-38.4521484375
-39.36767578125
-32.958984375
-30.21240234375
-39.36767578125
-44.86083984375
-40.283203125
-22.88818359375
-21.97265625
-47.607421875
-28.38134765625
-19.22607421875
-21.97265625
-32.04345703125
-28.38134765625
-35.70556640625
-29.296875
-28.38134765625
-43.02978515625
-48.52294921875
-43.9453125
-43.9453125
-43.02978515625
-45.7763671875
-45.7763671875
-54.01611328125
-61.34033203125
-52.18505859375
-49.4384765625
-57.67822265625
-57.67822265625
-36.62109375
-47.607421875
-46.69189453125
-47.607421875
-49.4384765625
-47.607421875
-46.69189453125
-50.35400390625
-54.931640625
-54.931640625
-51.26953125
-57.67822265625
-56.7626953125
-51.26953125
-49.4384765625
-54.931640625
-52.18505859375
-62.255859375
-69.580078125
-74.15771484375
-72.32666015625
-75.98876953125
-71.4111328125
-54.931640625
-56.7626953125
-58.59375
-48.52294921875
-54.931640625
-67.7490234375
-54.931640625
-41.19873046875
-43.9453125
-46.69189453125
-49.4384765625
-53.1005859375
-47.607421875
-40.283203125
-32.04345703125
-41.19873046875
-39.36767578125
-26.55029296875
-20.1416015625
-24.71923828125
-24.71923828125
-19.22607421875
-15.56396484375
-17.39501953125
-20.1416015625
-24.71923828125
-10.07080078125
-8.23974609375
2.74658203125
11.90185546875
15.56396484375
27.4658203125
36.62109375
36.62109375
34.7900390625
40.283203125
37.53662109375
31.1279296875
20.1416015625
8.23974609375
7.32421875
7.32421875
10.986328125
18.310546875
6.40869140625
-4.57763671875
-13.73291015625
-6.40869140625
-3.662109375
-3.662109375
-20.1416015625
-30.21240234375
-45.7763671875
-61.34033203125
-70.49560546875
-71.4111328125
-76.904296875
-53.1005859375
-59.50927734375
-70.49560546875
-61.34033203125
-53.1005859375
-46.69189453125
-52.18505859375
-49.4384765625
-45.7763671875
-44.86083984375
-49.4384765625
-54.01611328125
-75.0732421875
-87.890625
-83.31298828125
-86.0595703125
-86.0595703125
-82.3974609375
-83.31298828125
-80.56640625
-68.66455078125
-73.2421875
-75.98876953125
-61.34033203125
-64.0869140625
-62.255859375
-61.34033203125
-68.66455078125
-81.48193359375
-74.15771484375
-72.32666015625
-77.81982421875
-89.7216796875
-118.10302734375
-150.146484375
-181.2744140625
-201.416015625
-188.5986328125
-151.06201171875
-115.3564453125
-73.2421875
-18.310546875
50.35400390625
119.0185546875
193.17626953125
279.23583984375
357.0556640625
461.42578125
585.9375
694.88525390625
810.24169921875
844.1162109375
806.57958984375
682.9833984375
498.046875
417.48046875
363.46435546875
280.1513671875
189.51416015625
102.5390625
54.01611328125
11.90185546875
-21.97265625
-44.86083984375
-37.53662109375
-3.662109375
11.90185546875
21.97265625
20.1416015625
23.8037109375
22.88818359375
23.8037109375
0
-10.07080078125
-25.634765625
-17.39501953125
-23.8037109375
-22.88818359375
-22.88818359375
-31.1279296875
-29.296875
-36.62109375
-30.21240234375
-18.310546875
-11.90185546875
-10.986328125
-20.1416015625
-31.1279296875
-21.97265625
-7.32421875
-8.23974609375
-10.986328125
-10.986328125
-20.1416015625
-21.97265625
-27.4658203125
-32.04345703125
-20.1416015625
-3.662109375
7.32421875
-0.91552734375
-14.6484375
-22.88818359375
-19.22607421875
-2.74658203125
-6.40869140625
1.8310546875
0.91552734375
1.8310546875
0
0.91552734375
2.74658203125
-8.23974609375
-4.57763671875
5.4931640625
7.32421875
10.07080078125
28.38134765625
21.97265625
13.73291015625
9.1552734375
20.1416015625
19.22607421875
20.1416015625
25.634765625
19.22607421875
22.88818359375
41.19873046875
28.38134765625
26.55029296875
28.38134765625
30.21240234375
37.53662109375
41.19873046875
39.36767578125
47.607421875
44.86083984375
59.50927734375
65.00244140625
73.2421875
70.49560546875
55.84716796875
54.01611328125
54.01611328125
65.00244140625
65.91796875
61.34033203125
66.83349609375
56.7626953125
74.15771484375
77.81982421875
79.65087890625
97.0458984375
89.7216796875
91.552734375
86.0595703125
92.46826171875
98.876953125
108.0322265625
111.6943359375
110.77880859375
113.525390625
120.849609375
129.08935546875
119.93408203125
114.44091796875
108.94775390625
129.08935546875
127.25830078125
113.525390625
128.173828125
141.90673828125
135.498046875
136.41357421875
133.6669921875
135.498046875
141.90673828125
145.56884765625
154.72412109375
162.9638671875
159.3017578125
151.06201171875
151.06201171875
151.06201171875
148.3154296875
141.90673828125
144.6533203125
127.25830078125
108.94775390625
114.44091796875
120.849609375
108.94775390625
97.0458984375
91.552734375
78.7353515625
66.83349609375
70.49560546875
53.1005859375
41.19873046875
43.9453125
44.86083984375
20.1416015625
17.39501953125
21.05712890625
8.23974609375
-6.40869140625
-13.73291015625
-16.4794921875
-21.05712890625
-17.39501953125
-28.38134765625
-37.53662109375
-28.38134765625
-22.88818359375
-31.1279296875
-31.1279296875
-50.35400390625
-65.00244140625
-43.9453125
-35.70556640625
-34.7900390625
-37.53662109375
-41.19873046875
-43.02978515625
-32.04345703125
-31.1279296875
-46.69189453125
-54.01611328125
-55.84716796875
-51.26953125
-42.1142578125
-37.53662109375
-45.7763671875
-46.69189453125
-44.86083984375
-41.19873046875
-30.21240234375
-34.7900390625
-44.86083984375
-59.50927734375
-36.62109375
-32.04345703125
-39.36767578125
-41.19873046875
-30.21240234375
-27.4658203125
-21.97265625
-32.958984375
-30.21240234375
-24.71923828125
-27.4658203125
-24.71923828125
-18.310546875
-25.634765625
-30.21240234375
-29.296875
-20.1416015625
-25.634765625
-41.19873046875
-35.70556640625
-23.8037109375
-35.70556640625
-31.1279296875
-24.71923828125
-20.1416015625
-23.8037109375
-31.1279296875
-23.8037109375
-23.8037109375
-32.04345703125
-25.634765625
-19.22607421875
-14.6484375
-14.6484375
-18.310546875
-24.71923828125
-25.634765625
-21.97265625
-31.1279296875
-39.36767578125
-42.1142578125
-51.26953125
-38.4521484375
-34.7900390625
-25.634765625
-33.87451171875
-37.53662109375
-43.9453125
-45.7763671875
-35.70556640625
-30.21240234375
-33.87451171875
-48.52294921875
-43.9453125
-49.4384765625
-49.4384765625
-41.19873046875
-33.87451171875
-29.296875
-43.02978515625
-51.26953125
-32.04345703125
-35.70556640625
-43.02978515625
-40.283203125
-48.52294921875
-46.69189453125
-46.69189453125
-42.1142578125
-43.9453125
-49.4384765625
-56.7626953125
-60.4248046875
-60.4248046875
-58.59375
-55.84716796875
-48.52294921875
-36.62109375
-37.53662109375
-66.83349609375
-66.83349609375
-55.84716796875
-57.67822265625
-56.7626953125
-54.01611328125
-58.59375
-39.36767578125
-32.04345703125
-48.52294921875
-48.52294921875
-37.53662109375
-63.17138671875
-45.7763671875
-48.52294921875
-60.4248046875
-64.0869140625
-59.50927734375
-52.18505859375
-55.84716796875
-65.00244140625
-68.66455078125
-56.7626953125
-51.26953125
-47.607421875
-43.9453125
-35.70556640625
-35.70556640625
-47.607421875
-39.36767578125
-36.62109375
-19.22607421875
-15.56396484375
-32.958984375
-24.71923828125
-24.71923828125
-18.310546875
-4.57763671875
-2.74658203125
-7.32421875
-2.74658203125
9.1552734375
16.4794921875
24.71923828125
44.86083984375
30.21240234375
18.310546875
26.55029296875
5.4931640625
-3.662109375
11.90185546875
17.39501953125
31.1279296875
33.87451171875
32.958984375
25.634765625
17.39501953125
3.662109375
-12.8173828125
-24.71923828125
-24.71923828125
-26.55029296875
-43.02978515625
-39.36767578125
-52.18505859375
-70.49560546875
-75.98876953125
-72.32666015625
-59.50927734375
-54.01611328125
-61.34033203125
-73.2421875
-71.4111328125
-69.580078125
-71.4111328125
-68.66455078125
-51.26953125
-71.4111328125
-70.49560546875
-76.904296875
-87.890625
-69.580078125
-71.4111328125
-65.00244140625
-65.91796875
-72.32666015625
-79.65087890625
-92.46826171875
-97.96142578125
-98.876953125
-91.552734375
-86.97509765625
-99.79248046875
-108.0322265625
-87.890625
-92.46826171875
-86.97509765625
-99.79248046875
-97.96142578125
-75.98876953125
-70.49560546875
-84.228515625
-106.201171875
-141.90673828125
-184.9365234375
-208.740234375
-212.40234375
-185.85205078125
-138.24462890625
-106.201171875
-54.931640625
10.986328125
71.4111328125
147.39990234375
226.13525390625
295.71533203125
364.3798828125
488.8916015625
604.248046875
743.408203125
841.36962890625
852.35595703125
773.62060546875
612.48779296875
452.2705078125
408.3251953125
379.94384765625
309.4482421875
194.091796875
117.1875
60.4248046875
19.22607421875
-19.22607421875
-42.1142578125
-48.52294921875
-47.607421875
-32.04345703125
-1.8310546875
4.57763671875
2.74658203125
2.74658203125
4.57763671875
-9.1552734375
-22.88818359375
-32.04345703125
-40.283203125
-20.1416015625
-24.71923828125
-37.53662109375
-30.21240234375
-21.97265625
-21.97265625
-20.1416015625
-35.70556640625
-37.53662109375
-37.53662109375
-27.4658203125
-20.1416015625
-30.21240234375
-32.04345703125
-34.7900390625
-32.04345703125
-30.21240234375
-14.6484375
-10.07080078125
-14.6484375
-21.97265625
-30.21240234375
-34.7900390625
-30.21240234375
-14.6484375
-12.8173828125
-14.6484375
2.74658203125
0.91552734375
-11.90185546875
7.32421875
3.662109375
-9.1552734375
-6.40869140625
-18.310546875
-1.8310546875
-0.91552734375
0
1.8310546875
2.74658203125
-3.662109375
1.8310546875
6.40869140625
16.4794921875
20.1416015625
19.22607421875
17.39501953125
22.88818359375
23.8037109375
15.56396484375
15.56396484375
19.22607421875
16.4794921875
3.662109375
23.8037109375
23.8037109375
8.23974609375
19.22607421875
20.1416015625
18.310546875
26.55029296875
34.7900390625
40.283203125
41.19873046875
32.958984375
32.958984375
39.36767578125
48.52294921875
54.931640625
43.9453125
53.1005859375
52.18505859375
58.59375
60.4248046875
60.4248046875
63.17138671875
55.84716796875
84.228515625
92.46826171875
93.3837890625
98.876953125
86.0595703125
88.80615234375
96.13037109375
98.876953125
96.13037109375
84.228515625
94.29931640625
102.5390625
104.3701171875
101.62353515625
93.3837890625
107.11669921875
125.42724609375
127.25830078125
119.93408203125
128.173828125
126.3427734375
124.51171875
117.1875
118.10302734375
108.94775390625
116.27197265625
107.11669921875
103.45458984375
122.6806640625
113.525390625
116.27197265625
124.51171875
119.0185546875
119.0185546875
109.86328125
107.11669921875
103.45458984375
93.3837890625
77.81982421875
73.2421875
71.4111328125
65.00244140625
61.34033203125
55.84716796875
50.35400390625
40.283203125
32.958984375
20.1416015625
17.39501953125
18.310546875
18.310546875
2.74658203125
-5.4931640625
-0.91552734375
-1.8310546875
-6.40869140625
-18.310546875
-39.36767578125
-27.4658203125
-27.4658203125
-41.19873046875
-39.36767578125
-30.21240234375
-18.310546875
-26.55029296875
-32.958984375
-31.1279296875
-16.4794921875
-16.4794921875
-26.55029296875
-35.70556640625
-35.70556640625
-36.62109375
-36.62109375
-35.70556640625
-52.18505859375
-61.34033203125
-37.53662109375
-33.87451171875
-40.283203125
-40.283203125
-32.958984375
-21.97265625
-27.4658203125
-22.88818359375
-24.71923828125
-31.1279296875
-32.958984375
-36.62109375
-35.70556640625
-38.4521484375
-36.62109375
-26.55029296875
-32.958984375
-30.21240234375
-31.1279296875
-35.70556640625
-44.86083984375
-29.296875
-36.62109375
-44.86083984375
-30.21240234375
-21.97265625
-20.1416015625
-11.90185546875
-10.07080078125
-12.8173828125
-12.8173828125
-19.22607421875
-30.21240234375
-28.38134765625
-20.1416015625
-29.296875
-23.8037109375
-18.310546875
-21.05712890625
-30.21240234375
-24.71923828125
-23.8037109375
-32.04345703125
-33.87451171875
-32.958984375
-30.21240234375
-18.310546875
-18.310546875
-21.97265625
-24.71923828125
-35.70556640625
-25.634765625
-18.310546875
-31.1279296875
-32.04345703125
-26.55029296875
-32.958984375
-24.71923828125
-32.958984375
-45.7763671875
-40.283203125
-32.958984375
-27.4658203125
-32.04345703125
-28.38134765625
-32.958984375
-43.02978515625
-45.7763671875
-38.4521484375
-34.7900390625
-50.35400390625
-45.7763671875
-46.69189453125
-48.52294921875
-69.580078125
-64.0869140625
-69.580078125
-54.01611328125
-42.1142578125
-39.36767578125
-31.1279296875
-24.71923828125
-24.71923828125
-36.62109375
-46.69189453125
