ECG
-19.22607421875
-28.38134765625
-24.71923828125
-5.4931640625
-20.1416015625
-37.53662109375
-43.02978515625
-48.52294921875
-43.02978515625
-58.59375
-65.91796875
-72.32666015625
-86.0595703125
-85.14404296875
-86.97509765625
-90.63720703125
-113.525390625
-110.77880859375
-122.6806640625
-118.10302734375
-105.28564453125
-108.94775390625
-95.21484375
-86.0595703125
-100.7080078125
-97.96142578125
-99.79248046875
-105.28564453125
-115.3564453125
-130.0048828125
-112.60986328125
-111.6943359375
-123.59619140625
-118.10302734375
-107.11669921875
-103.45458984375
-97.0458984375
-93.3837890625
-112.60986328125
-106.201171875
-99.79248046875
-100.7080078125
-109.86328125
-102.5390625
-98.876953125
-109.86328125
-108.0322265625
-105.28564453125
-104.3701171875
-122.6806640625
-143.73779296875
-149.23095703125
-173.9501953125
-218.81103515625
-245.361328125
-240.78369140625
-192.2607421875
-145.56884765625
-106.201171875
-58.59375
0
64.0869140625
135.498046875
248.10791015625
327.7587890625
444.9462890625
569.4580078125
684.814453125
787.353515625
831.298828125
790.10009765625
655.517578125
485.2294921875
388.18359375
343.32275390625
249.0234375
156.55517578125
75.98876953125
13.73291015625
-37.53662109375
-48.52294921875
-65.00244140625
-65.00244140625
-59.50927734375
-34.7900390625
-12.8173828125
-17.39501953125
-15.56396484375
-30.21240234375
-29.296875
-15.56396484375
-24.71923828125
-33.87451171875
-37.53662109375
-45.7763671875
-49.4384765625
-52.18505859375
-57.67822265625
-60.4248046875
-65.91796875
-72.32666015625
-67.7490234375
-74.15771484375
-83.31298828125
-77.81982421875
-70.49560546875
-52.18505859375
-52.18505859375
-55.84716796875
-69.580078125
-64.0869140625
-56.7626953125
-65.00244140625
-67.7490234375
-60.4248046875
-61.34033203125
-56.7626953125
-52.18505859375
-51.26953125
-36.62109375
-34.7900390625
-48.52294921875
-37.53662109375
-54.931640625
-43.9453125
-37.53662109375
-47.607421875
-42.1142578125
-41.19873046875
-43.9453125
-36.62109375
-32.958984375
-33.87451171875
-36.62109375
-36.62109375
-31.1279296875
-29.296875
-39.36767578125
-37.53662109375
-32.04345703125
-21.97265625
-27.4658203125
-32.04345703125
-27.4658203125
-34.7900390625
-31.1279296875
-8.23974609375
-10.07080078125
-1.8310546875
5.4931640625
-2.74658203125
-3.662109375
-4.57763671875
0.91552734375
0
9.1552734375
10.07080078125
12.8173828125
10.07080078125
10.986328125
-0.91552734375
4.57763671875
19.22607421875
17.39501953125
22.88818359375
31.1279296875
35.70556640625
40.283203125
41.19873046875
57.67822265625
56.7626953125
43.02978515625
59.50927734375
54.01611328125
53.1005859375
56.7626953125
65.00244140625
65.00244140625
76.904296875
75.98876953125
78.7353515625
73.2421875
76.904296875
93.3837890625
91.552734375
97.96142578125
95.21484375
92.46826171875
98.876953125
101.62353515625
108.94775390625
106.201171875
114.44091796875
121.76513671875
121.76513671875
111.6943359375
106.201171875
101.62353515625
129.08935546875
146.484375
142.822265625
138.24462890625
134.58251953125
127.25830078125
118.10302734375
119.0185546875
117.1875
110.77880859375
97.0458984375
87.890625
77.81982421875
68.66455078125
54.01611328125
46.69189453125
44.86083984375
32.04345703125
18.310546875
14.6484375
-6.40869140625
-7.32421875
-12.8173828125
-21.05712890625
-25.634765625
-32.04345703125
-39.36767578125
-45.7763671875
-46.69189453125
-51.26953125
-57.67822265625
-53.1005859375
-67.7490234375
-75.0732421875
-71.4111328125
-67.7490234375
-83.31298828125
-75.0732421875
-85.14404296875
-91.552734375
-74.15771484375
-80.56640625
-63.17138671875
-65.91796875
-81.48193359375
-90.63720703125
-88.80615234375
-93.3837890625
-96.13037109375
-95.21484375
-87.890625
-84.228515625
-79.65087890625
-74.15771484375
-78.7353515625
-78.7353515625
-67.7490234375
-60.4248046875
-65.91796875
-65.91796875
-62.255859375
-67.7490234375
-70.49560546875
-71.4111328125
-78.7353515625
-84.228515625
-81.48193359375
-80.56640625
-78.7353515625
-78.7353515625
-74.15771484375
-75.0732421875
-91.552734375
-89.7216796875
-65.91796875
-53.1005859375
-59.50927734375
-53.1005859375
-59.50927734375
-63.17138671875
-73.2421875
-65.00244140625
-66.83349609375
-64.0869140625
-65.91796875
-65.00244140625
-64.0869140625
-65.91796875
-64.0869140625
-58.59375
-66.83349609375
-62.255859375
-55.84716796875
-60.4248046875
-63.17138671875
-64.0869140625
-45.7763671875
-41.19873046875
-54.01611328125
-55.84716796875
-52.18505859375
-53.1005859375
-63.17138671875
-59.50927734375
-64.0869140625
-65.91796875
-65.91796875
-64.0869140625
-71.4111328125
-74.15771484375
-70.49560546875
-75.0732421875
-86.97509765625
-83.31298828125
-84.228515625
-95.21484375
-81.48193359375
-66.83349609375
-68.66455078125
-63.17138671875
-61.34033203125
-69.580078125
-75.98876953125
-76.904296875
-77.81982421875
-83.31298828125
-79.65087890625
-71.4111328125
-85.14404296875
-90.63720703125
-88.80615234375
-66.83349609375
-70.49560546875
-69.580078125
-80.56640625
-82.3974609375
-67.7490234375
-73.2421875
-74.15771484375
-64.0869140625
-67.7490234375
-77.81982421875
-75.98876953125
-63.17138671875
-65.00244140625
-75.98876953125
-88.80615234375
-87.890625
-86.0595703125
-86.97509765625
-83.31298828125
-94.29931640625
-86.97509765625
-76.904296875
-87.890625
-93.3837890625
-97.96142578125
-94.29931640625
-89.7216796875
-93.3837890625
-108.0322265625
-86.97509765625
-90.63720703125
-87.890625
-83.31298828125
-73.2421875
-80.56640625
-81.48193359375
-79.65087890625
-78.7353515625
-80.56640625
-81.48193359375
-75.0732421875
-79.65087890625
-83.31298828125
-82.3974609375
-77.81982421875
-76.904296875
-86.97509765625
-87.890625
-75.98876953125
-70.49560546875
-69.580078125
-72.32666015625
-86.0595703125
-90.63720703125
-85.14404296875
-89.7216796875
-80.56640625
-72.32666015625
-80.56640625
-79.65087890625
-75.98876953125
-78.7353515625
-74.15771484375
-71.4111328125
-63.17138671875
-60.4248046875
-55.84716796875
-44.86083984375
-50.35400390625
-56.7626953125
-36.62109375
-35.70556640625
-35.70556640625
-31.1279296875
-38.4521484375
-29.296875
-15.56396484375
-2.74658203125
7.32421875
10.07080078125
4.57763671875
0.91552734375
-3.662109375
-12.8173828125
-14.6484375
-11.90185546875
-9.1552734375
-3.662109375
-6.40869140625
-22.88818359375
-26.55029296875
-11.90185546875
-28.38134765625
-43.9453125
-39.36767578125
-39.36767578125
-54.931640625
-56.7626953125
-59.50927734375
-77.81982421875
-83.31298828125
-68.66455078125
-69.580078125
-76.904296875
-79.65087890625
-69.580078125
-73.2421875
-80.56640625
-76.904296875
-77.81982421875
-85.14404296875
-86.0595703125
-86.97509765625
-95.21484375
-106.201171875
-90.63720703125
-91.552734375
-97.0458984375
-98.876953125
-107.11669921875
-99.79248046875
-92.46826171875
-97.0458984375
-99.79248046875
-100.7080078125
-108.0322265625
-109.86328125
-113.525390625
-105.28564453125
-94.29931640625
-88.80615234375
-92.46826171875
-99.79248046875
-101.62353515625
-96.13037109375
-86.97509765625
-96.13037109375
-110.77880859375
-140.9912109375
-181.2744140625
-209.65576171875
-239.8681640625
-213.31787109375
-159.3017578125
-111.6943359375
-80.56640625
-25.634765625
28.38134765625
104.3701171875
180.35888671875
276.4892578125
364.3798828125
459.5947265625
585.9375
709.53369140625
812.98828125
858.7646484375
807.4951171875
645.44677734375
474.2431640625
401.91650390625
372.61962890625
296.630859375
184.02099609375
127.25830078125
84.228515625
25.634765625
3.662109375
-20.1416015625
-37.53662109375
-55.84716796875
-38.4521484375
-7.32421875
-4.57763671875
-9.1552734375
-10.07080078125
-10.07080078125
-13.73291015625
-27.4658203125
-34.7900390625
-32.958984375
-33.87451171875
-41.19873046875
-37.53662109375
-35.70556640625
-42.1142578125
-43.9453125
-36.62109375
-55.84716796875
-52.18505859375
-47.607421875
-55.84716796875
-39.36767578125
-35.70556640625
-52.18505859375
-53.1005859375
-34.7900390625
-33.87451171875
-39.36767578125
-35.70556640625
-39.36767578125
-29.296875
-32.04345703125
-31.1279296875
-25.634765625
-19.22607421875
-16.4794921875
-23.8037109375
-20.1416015625
-27.4658203125
-25.634765625
-24.71923828125
-21.97265625
-22.88818359375
-26.55029296875
-26.55029296875
-22.88818359375
-34.7900390625
-27.4658203125
-8.23974609375
-3.662109375
-9.1552734375
-10.07080078125
-7.32421875
-13.73291015625
-14.6484375
-11.90185546875
-6.40869140625
4.57763671875
0
4.57763671875
7.32421875
-0.91552734375
2.74658203125
2.74658203125
0.91552734375
3.662109375
6.40869140625
16.4794921875
10.07080078125
20.1416015625
22.88818359375
16.4794921875
31.1279296875
30.21240234375
29.296875
29.296875
29.296875
17.39501953125
20.1416015625
34.7900390625
34.7900390625
36.62109375
52.18505859375
50.35400390625
66.83349609375
66.83349609375
58.59375
75.0732421875
85.14404296875
83.31298828125
95.21484375
89.7216796875
77.81982421875
89.7216796875
84.228515625
83.31298828125
92.46826171875
99.79248046875
97.96142578125
99.79248046875
99.79248046875
109.86328125
119.0185546875
123.59619140625
128.173828125
122.6806640625
118.10302734375
130.0048828125
136.41357421875
136.41357421875
133.6669921875
130.0048828125
128.173828125
133.6669921875
115.3564453125
119.0185546875
138.24462890625
132.75146484375
139.16015625
134.58251953125
117.1875
105.28564453125
104.3701171875
105.28564453125
88.80615234375
68.66455078125
71.4111328125
46.69189453125
37.53662109375
32.958984375
28.38134765625
27.4658203125
17.39501953125
7.32421875
-1.8310546875
6.40869140625
-4.57763671875
-16.4794921875
-22.88818359375
-48.52294921875
-48.52294921875
-34.7900390625
-38.4521484375
-43.9453125
-53.1005859375
-52.18505859375
-49.4384765625
-52.18505859375
-47.607421875
-45.7763671875
-53.1005859375
-56.7626953125
-54.931640625
-57.67822265625
-60.4248046875
-65.91796875
-67.7490234375
-78.7353515625
-74.15771484375
-67.7490234375
-83.31298828125
-86.97509765625
-71.4111328125
-65.91796875
-78.7353515625
-75.98876953125
-74.15771484375
-68.66455078125
-67.7490234375
-65.00244140625
-60.4248046875
-58.59375
-64.0869140625
-65.91796875
-64.0869140625
-54.01611328125
-66.83349609375
-74.15771484375
-64.0869140625
-64.0869140625
-66.83349609375
-69.580078125
-70.49560546875
-78.7353515625
-81.48193359375
-72.32666015625
-80.56640625
-86.0595703125
-67.7490234375
-63.17138671875
-53.1005859375
-48.52294921875
-48.52294921875
-49.4384765625
-45.7763671875
-46.69189453125
-55.84716796875
-67.7490234375
-67.7490234375
-58.59375
-61.34033203125
-53.1005859375
-54.01611328125
-53.1005859375
-54.931640625
-72.32666015625
-53.1005859375
-52.18505859375
-58.59375
-64.0869140625
-56.7626953125
-53.1005859375
-46.69189453125
-51.26953125
-55.84716796875
-63.17138671875
-65.91796875
-66.83349609375
-68.66455078125
-63.17138671875
-68.66455078125
-63.17138671875
-64.0869140625
-59.50927734375
-54.01611328125
-51.26953125
-50.35400390625
-60.4248046875
-65.00244140625
-64.0869140625
-72.32666015625
-78.7353515625
-65.00244140625
-62.255859375
-69.580078125
-75.98876953125
-78.7353515625
-59.50927734375
-53.1005859375
-57.67822265625
-65.91796875
-62.255859375
-64.0869140625
-71.4111328125
-76.904296875
-63.17138671875
-68.66455078125
-84.228515625
-90.63720703125
-91.552734375
-99.79248046875
-91.552734375
-76.904296875
-83.31298828125
-76.904296875
-70.49560546875
-75.0732421875
-84.228515625
-79.65087890625
-86.0595703125
-87.890625
-76.904296875
-78.7353515625
-74.15771484375
-75.0732421875
-84.228515625
-78.7353515625
-78.7353515625
-86.0595703125
-90.63720703125
-84.228515625
-84.228515625
-84.228515625
-80.56640625
-86.0595703125
-86.0595703125
-72.32666015625
-78.7353515625
-68.66455078125
-72.32666015625
-78.7353515625
-87.890625
-96.13037109375
-95.21484375
-86.0595703125
-80.56640625
-84.228515625
-80.56640625
-89.7216796875
-90.63720703125
-95.21484375
-92.46826171875
-89.7216796875
-94.29931640625
-86.97509765625
-79.65087890625
-78.7353515625
-93.3837890625
-101.62353515625
-89.7216796875
-89.7216796875
-89.7216796875
-82.3974609375
-75.0732421875
-65.00244140625
-48.52294921875
-43.9453125
-44.86083984375
-36.62109375
-35.70556640625
-40.283203125
-49.4384765625
-51.26953125
-41.19873046875
-32.04345703125
-26.55029296875
-18.310546875
-10.986328125
-14.6484375
-35.70556640625
-14.6484375
-1.8310546875
-7.32421875
-13.73291015625
-15.56396484375
-11.90185546875
-19.22607421875
-10.986328125
-10.986328125
-15.56396484375
-1.8310546875
-21.97265625
-32.958984375
-41.19873046875
-40.283203125
-47.607421875
-66.83349609375
-73.2421875
-86.97509765625
-92.46826171875
-90.63720703125
-84.228515625
-86.0595703125
-96.13037109375
-82.3974609375
-97.96142578125
-97.0458984375
-89.7216796875
-100.7080078125
-92.46826171875
-84.228515625
-86.97509765625
-90.63720703125
-97.0458984375
-99.79248046875
-102.5390625
-97.96142578125
-100.7080078125
-108.0322265625
-109.86328125
-105.28564453125
-105.28564453125
-113.525390625
-122.6806640625
-107.11669921875
-109.86328125
-109.86328125
-107.11669921875
-110.77880859375
-106.201171875
-115.3564453125
-128.173828125
-121.76513671875
-117.1875
-111.6943359375
-110.77880859375
-123.59619140625
-125.42724609375
-147.39990234375
-195.9228515625
-226.13525390625
-230.712890625
-223.388671875
-186.767578125
-143.73779296875
-82.3974609375
-21.97265625
35.70556640625
97.0458984375
163.87939453125
252.685546875
334.16748046875
444.9462890625
568.54248046875
677.490234375
779.11376953125
810.24169921875
748.9013671875
610.65673828125
447.69287109375
378.11279296875
328.67431640625
233.45947265625
140.9912109375
80.56640625
23.8037109375
-6.40869140625
-42.1142578125
-54.931640625
-55.84716796875
-52.18505859375
-35.70556640625
-18.310546875
-17.39501953125
-22.88818359375
-30.21240234375
-32.958984375
-39.36767578125
-44.86083984375
-46.69189453125
-52.18505859375
-56.7626953125
-59.50927734375
-69.580078125
-75.98876953125
-67.7490234375
-57.67822265625
-69.580078125
-58.59375
-47.607421875
-51.26953125
-61.34033203125
-74.15771484375
-68.66455078125
-78.7353515625
-82.3974609375
-73.2421875
-54.931640625
-54.931640625
-53.1005859375
-45.7763671875
-43.9453125
-43.02978515625
-40.283203125
-42.1142578125
-38.4521484375
-41.19873046875
-37.53662109375
-35.70556640625
-43.9453125
-32.04345703125
-34.7900390625
-46.69189453125
-51.26953125
-50.35400390625
-49.4384765625
-55.84716796875
-64.0869140625
-84.228515625
-43.9453125
-33.87451171875
-31.1279296875
-20.1416015625
-18.310546875
-20.1416015625
-17.39501953125
-10.07080078125
-15.56396484375
-20.1416015625
-21.05712890625
-10.07080078125
-17.39501953125
-11.90185546875
-16.4794921875
-12.8173828125
-15.56396484375
-6.40869140625
-11.90185546875
-4.57763671875
0.91552734375
-5.4931640625
1.8310546875
10.07080078125
4.57763671875
7.32421875
19.22607421875
29.296875
36.62109375
41.19873046875
41.19873046875
34.7900390625
32.04345703125
33.87451171875
40.283203125
45.7763671875
54.01611328125
49.4384765625
52.18505859375
54.931640625
60.4248046875
55.84716796875
49.4384765625
65.00244140625
69.580078125
74.15771484375
78.7353515625
82.3974609375
89.7216796875
92.46826171875
86.97509765625
89.7216796875
97.0458984375
103.45458984375
106.201171875
115.3564453125
127.25830078125
123.59619140625
121.76513671875
125.42724609375
121.76513671875
132.75146484375
132.75146484375
131.8359375
136.41357421875
136.41357421875
130.0048828125
115.3564453125
115.3564453125
134.58251953125
122.6806640625
118.10302734375
114.44091796875
105.28564453125
97.0458984375
93.3837890625
81.48193359375
67.7490234375
54.01611328125
52.18505859375
44.86083984375
36.62109375
21.97265625
5.4931640625
-7.32421875
-15.56396484375
-21.05712890625
-23.8037109375
-38.4521484375
-42.1142578125
-55.84716796875
-56.7626953125
-56.7626953125
-75.98876953125
-71.4111328125
-75.98876953125
-89.7216796875
-91.552734375
-93.3837890625
-84.228515625
-75.0732421875
-83.31298828125
-80.56640625
-82.3974609375
-78.7353515625
-66.83349609375
-69.580078125
-76.904296875
-74.15771484375
-85.14404296875
-90.63720703125
-89.7216796875
-97.0458984375
-82.3974609375
-84.228515625
-91.552734375
-88.80615234375
-90.63720703125
-91.552734375
-84.228515625
-86.97509765625
-86.97509765625
-87.890625
-92.46826171875
-96.13037109375
-96.13037109375
-89.7216796875
-85.14404296875
-93.3837890625
-94.29931640625
-91.552734375
-90.63720703125
-86.0595703125
-86.97509765625
-89.7216796875
-83.31298828125
-77.81982421875
-80.56640625
-90.63720703125
-87.890625
-93.3837890625
-95.21484375
-87.890625
-95.21484375
-97.96142578125
-86.0595703125
-84.228515625
-84.228515625
-88.80615234375
-89.7216796875
-92.46826171875
-95.21484375
-92.46826171875
-96.13037109375
-86.0595703125
-86.0595703125
-83.31298828125
-85.14404296875
-82.3974609375
-87.890625
-92.46826171875
-91.552734375
-97.96142578125
-93.3837890625
-94.29931640625
-116.27197265625
-113.525390625
-79.65087890625
-76.904296875
-72.32666015625
-62.255859375
-66.83349609375
-71.4111328125
-84.228515625
-90.63720703125
-81.48193359375
-75.98876953125
-80.56640625
-84.228515625
-86.0595703125
-87.890625
-86.97509765625
-88.80615234375
-97.96142578125
-97.96142578125
-95.21484375
-91.552734375
-94.29931640625
-95.21484375
-92.46826171875
-94.29931640625
-102.5390625
-94.29931640625
-119.0185546875
-113.525390625
-99.79248046875
-104.3701171875
-102.5390625
-109.86328125
-113.525390625
-106.201171875
-98.876953125
-106.201171875
-109.86328125
-117.1875
-111.6943359375
-119.0185546875
-126.3427734375
-102.5390625
-99.79248046875
-88.80615234375
-78.7353515625
-85.14404296875
-96.13037109375
-97.0458984375
-101.62353515625
-97.96142578125
-92.46826171875
-106.201171875
-106.201171875
-95.21484375
-106.201171875
-111.6943359375
-107.11669921875
-102.5390625
-106.201171875
-104.3701171875
-108.94775390625
-110.77880859375
-107.11669921875
-111.6943359375
-108.0322265625
-106.201171875
-108.94775390625
-113.525390625
-122.6806640625
-120.849609375
-130.0048828125
-130.92041015625
-129.08935546875
-120.849609375
-124.51171875
-107.11669921875
-101.62353515625
-113.525390625
-108.94775390625
-112.60986328125
-117.1875
-118.10302734375
-108.94775390625
-108.94775390625
-101.62353515625
-102.5390625
-110.77880859375
-106.201171875
-110.77880859375
-112.60986328125
-115.3564453125
-109.86328125
-99.79248046875
-88.80615234375
-66.83349609375
-65.00244140625
-57.67822265625
-57.67822265625
-56.7626953125
-61.34033203125
-60.4248046875
-68.66455078125
-71.4111328125
-48.52294921875
-46.69189453125
-34.7900390625
-24.71923828125
-20.1416015625
-29.296875
-39.36767578125
-30.21240234375
-25.634765625
-27.4658203125
-31.1279296875
-34.7900390625
-41.19873046875
-43.02978515625
-39.36767578125
-47.607421875
-35.70556640625
-38.4521484375
-50.35400390625
-56.7626953125
-59.50927734375
-63.17138671875
-80.56640625
-97.0458984375
-111.6943359375
-110.77880859375
-108.0322265625
-114.44091796875
-114.44091796875
-117.1875
-119.0185546875
-112.60986328125
-120.849609375
-121.76513671875
-117.1875
-119.0185546875
-115.3564453125
-116.27197265625
-113.525390625
-121.76513671875
-119.93408203125
-124.51171875
-128.173828125
-129.08935546875
-129.08935546875
-122.6806640625
-117.1875
-129.08935546875
-133.6669921875
-132.75146484375
-118.10302734375
-119.93408203125
-128.173828125
-124.51171875
-125.42724609375
-135.498046875
-131.8359375
-136.41357421875
-137.3291015625
-132.75146484375
-125.42724609375
-120.849609375
-125.42724609375
-136.41357421875
-155.6396484375
-196.83837890625
-235.29052734375
-258.1787109375
-246.27685546875
-197.75390625
-156.55517578125
-111.6943359375
-56.7626953125
-0.91552734375
63.17138671875
134.58251953125
217.8955078125
296.630859375
398.25439453125
534.66796875
639.95361328125
742.49267578125
795.59326171875
759.8876953125
635.3759765625
465.087890625
365.29541015625
301.20849609375
212.40234375
130.0048828125
66.83349609375
19.22607421875
-20.1416015625
-41.19873046875
-55.84716796875
-63.17138671875
-54.01611328125
-34.7900390625
-19.22607421875
-19.22607421875
-23.8037109375
-35.70556640625
-43.9453125
-30.21240234375
-53.1005859375
-65.91796875
-66.83349609375
-62.255859375
-61.34033203125
-68.66455078125
-70.49560546875
-76.904296875
-75.0732421875
-84.228515625
-80.56640625
-76.904296875
-73.2421875
-70.49560546875
-77.81982421875
-84.228515625
-82.3974609375
-77.81982421875
-83.31298828125
-74.15771484375
-74.15771484375
-70.49560546875
-85.14404296875
-82.3974609375
-68.66455078125
-69.580078125
-85.14404296875
-83.31298828125
-69.580078125
-69.580078125
-65.91796875
-64.0869140625
-69.580078125
-67.7490234375
-50.35400390625
-36.62109375
-42.1142578125
-43.9453125
-34.7900390625
-27.4658203125
-29.296875
-35.70556640625
-37.53662109375
-35.70556640625
-38.4521484375
-43.9453125
-47.607421875
-61.34033203125
-45.7763671875
-27.4658203125
-23.8037109375
-19.22607421875
-17.39501953125
-21.97265625
-23.8037109375
-22.88818359375
-26.55029296875
-30.21240234375
-15.56396484375
-13.73291015625
-9.1552734375
-6.40869140625
-12.8173828125
-3.662109375
4.57763671875
1.8310546875
-4.57763671875
1.8310546875
-8.23974609375
-16.4794921875
7.32421875
10.07080078125
6.40869140625
0
14.6484375
19.22607421875
27.4658203125
30.21240234375
32.958984375
32.958984375
41.19873046875
50.35400390625
52.18505859375
57.67822265625
56.7626953125
59.50927734375
61.34033203125
69.580078125
78.7353515625
89.7216796875
88.80615234375
84.228515625
82.3974609375
86.0595703125
102.5390625
97.0458984375
97.0458984375
108.94775390625
113.525390625
108.0322265625
109.86328125
119.93408203125
127.25830078125
121.76513671875
128.173828125
127.25830078125
127.25830078125
130.0048828125
124.51171875
114.44091796875
116.27197265625
113.525390625
104.3701171875
110.77880859375
115.3564453125
109.86328125
94.29931640625
82.3974609375
75.98876953125
58.59375
50.35400390625
37.53662109375
21.97265625
3.662109375
7.32421875
11.90185546875
-6.40869140625
-13.73291015625
-14.6484375
-21.97265625
-33.87451171875
-32.04345703125
-44.86083984375
-62.255859375
-65.00244140625
-58.59375
-63.17138671875
-71.4111328125
-71.4111328125
-66.83349609375
-64.0869140625
-75.98876953125
-86.0595703125
-80.56640625
-82.3974609375
-81.48193359375
-92.46826171875
-99.79248046875
-97.96142578125
-94.29931640625
-96.13037109375
-101.62353515625
-102.5390625
-105.28564453125
-108.0322265625
-120.849609375
-108.0322265625
-102.5390625
-104.3701171875
-91.552734375
-97.0458984375
-96.13037109375
-102.5390625
-96.13037109375
-97.0458984375
-97.0458984375
-97.0458984375
-102.5390625
-97.0458984375
-100.7080078125
-95.21484375
-90.63720703125
-90.63720703125
-92.46826171875
-93.3837890625
-93.3837890625
-82.3974609375
-79.65087890625
-77.81982421875
-81.48193359375
-81.48193359375
-82.3974609375
-87.890625
-81.48193359375
-84.228515625
-93.3837890625
-89.7216796875
-97.0458984375
-82.3974609375
-73.2421875
-88.80615234375
-88.80615234375
-81.48193359375
-86.97509765625
-80.56640625
-79.65087890625
-78.7353515625
-72.32666015625
-66.83349609375
-72.32666015625
-72.32666015625
-74.15771484375
-73.2421875
-74.15771484375
-76.904296875
-84.228515625
-85.14404296875
-77.81982421875
-87.890625
-89.7216796875
-91.552734375
-81.48193359375
-72.32666015625
-78.7353515625
-78.7353515625
-81.48193359375
-80.56640625
-86.97509765625
-94.29931640625
-97.96142578125
-95.21484375
-97.96142578125
-93.3837890625
-77.81982421875
-79.65087890625
-82.3974609375
-76.904296875
-79.65087890625
-86.0595703125
-95.21484375
-93.3837890625
-90.63720703125
-87.890625
-98.876953125
-110.77880859375
-108.94775390625
-108.0322265625
-93.3837890625
-83.31298828125
-86.97509765625
-89.7216796875
-94.29931640625
-94.29931640625
-93.3837890625
-88.80615234375
-89.7216796875
-86.97509765625
-91.552734375
-90.63720703125
-92.46826171875
-97.0458984375
-94.29931640625
-95.21484375
-98.876953125
-97.0458984375
-94.29931640625
-97.96142578125
-94.29931640625
-115.3564453125
-112.60986328125
-98.876953125
-104.3701171875
-105.28564453125
-112.60986328125
-110.77880859375
-104.3701171875
-104.3701171875
-99.79248046875
-105.28564453125
-102.5390625
-103.45458984375
-105.28564453125
-117.1875
-114.44091796875
-107.11669921875
-110.77880859375
-104.3701171875
-98.876953125
-86.97509765625
-78.7353515625
-91.552734375
-91.552734375
-103.45458984375
-115.3564453125
-120.849609375
-100.7080078125
-97.0458984375
-96.13037109375
-96.13037109375
-86.97509765625
-86.97509765625
-86.97509765625
-100.7080078125
-104.3701171875
-108.94775390625
-105.28564453125
-98.876953125
-102.5390625
-95.21484375
-93.3837890625
-84.228515625
-83.31298828125
-77.81982421875
-81.48193359375
-73.2421875
-62.255859375
-63.17138671875
-57.67822265625
-55.84716796875
-48.52294921875
-48.52294921875
-54.01611328125
-68.66455078125
-62.255859375
-46.69189453125
-50.35400390625
-43.9453125
-32.958984375
-26.55029296875
-26.55029296875
-22.88818359375
-20.1416015625
-15.56396484375
-19.22607421875
-23.8037109375
-23.8037109375
-25.634765625
-27.4658203125
-34.7900390625
-34.7900390625
-28.38134765625
-32.958984375
-44.86083984375
-54.01611328125
-43.02978515625
-41.19873046875
-60.4248046875
-85.14404296875
-80.56640625
-75.0732421875
-73.2421875
-78.7353515625
-86.0595703125
-91.552734375
-101.62353515625
-98.876953125
-94.29931640625
-101.62353515625
-97.0458984375
-98.876953125
-107.11669921875
-108.0322265625
-105.28564453125
-110.77880859375
-104.3701171875
-104.3701171875
-116.27197265625
-106.201171875
-100.7080078125
-97.0458984375
-101.62353515625
-120.849609375
-118.10302734375
-105.28564453125
-110.77880859375
-111.6943359375
-104.3701171875
-101.62353515625
-103.45458984375
-107.11669921875
-109.86328125
-110.77880859375
-104.3701171875
-108.94775390625
-104.3701171875
-103.45458984375
-101.62353515625
-100.7080078125
-120.849609375
-152.89306640625
-187.68310546875
-227.96630859375
-238.037109375
-233.45947265625
-197.75390625
-145.56884765625
-114.44091796875
-44.86083984375
11.90185546875
69.580078125
126.3427734375
213.31787109375
322.265625
422.9736328125
538.330078125
659.1796875
772.705078125
821.22802734375
792.8466796875
675.6591796875
502.62451171875
406.494140625
351.5625
252.685546875
151.06201171875
81.48193359375
50.35400390625
-1.8310546875
-34.7900390625
-65.00244140625
-71.4111328125
-69.580078125
-37.53662109375
-12.8173828125
-24.71923828125
-18.310546875
-34.7900390625
-32.04345703125
-50.35400390625
-55.84716796875
-47.607421875
-39.36767578125
-55.84716796875
-56.7626953125
-35.70556640625
-49.4384765625
-42.1142578125
-49.4384765625
-82.3974609375
-54.01611328125
-60.4248046875
-56.7626953125
-56.7626953125
-54.01611328125
-47.607421875
-50.35400390625
-61.34033203125
-52.18505859375
-56.7626953125
-44.86083984375
-44.86083984375
-48.52294921875
-46.69189453125
-46.69189453125
-57.67822265625
-52.18505859375
-41.19873046875
-41.19873046875
-39.36767578125
-43.02978515625
-33.87451171875
-43.9453125
-51.26953125
-43.02978515625
-54.01611328125
-43.9453125
-25.634765625
-40.283203125
-48.52294921875
-32.04345703125
-19.22607421875
-20.1416015625
-17.39501953125
-21.05712890625
-30.21240234375
-32.04345703125
-22.88818359375
-29.296875
-18.310546875
-0.91552734375
-4.57763671875
-0.91552734375
-2.74658203125
21.97265625
26.55029296875
14.6484375
16.4794921875
13.73291015625
10.986328125
16.4794921875
15.56396484375
20.1416015625
2.74658203125
20.1416015625
32.04345703125
29.296875
23.8037109375
41.19873046875
32.958984375
30.21240234375
52.18505859375
55.84716796875
32.958984375
34.7900390625
41.19873046875
47.607421875
55.84716796875
45.7763671875
62.255859375
66.83349609375
68.66455078125
65.91796875
81.48193359375
77.81982421875
83.31298828125
89.7216796875
103.45458984375
101.62353515625
92.46826171875
82.3974609375
115.3564453125
121.76513671875
125.42724609375
127.25830078125
132.75146484375
123.59619140625
119.93408203125
113.525390625
114.44091796875
131.8359375
138.24462890625
143.73779296875
151.9775390625
140.07568359375
162.04833984375
152.89306640625
133.6669921875
136.41357421875
129.08935546875
134.58251953125
135.498046875
146.484375
144.6533203125
142.822265625
108.94775390625
117.1875
119.93408203125
111.6943359375
104.3701171875
83.31298828125
68.66455078125
43.02978515625
54.01611328125
52.18505859375
43.02978515625
36.62109375
20.1416015625
11.90185546875
10.986328125
-4.57763671875
-13.73291015625
-21.05712890625
-32.958984375
-41.19873046875
-43.02978515625
-46.69189453125
-42.1142578125
-56.7626953125
-72.32666015625
-66.83349609375
-83.31298828125
-84.228515625
-79.65087890625
-82.3974609375
-78.7353515625
-65.00244140625
-70.49560546875
-75.0732421875
-79.65087890625
-75.98876953125
-75.98876953125
-79.65087890625
-70.49560546875
-67.7490234375
-79.65087890625
-75.0732421875
-69.580078125
-75.0732421875
-75.0732421875
-78.7353515625
-95.21484375
-93.3837890625
-93.3837890625
-97.0458984375
-90.63720703125
-87.890625
-69.580078125
-76.904296875
-79.65087890625
-77.81982421875
-62.255859375
-78.7353515625
-84.228515625
-74.15771484375
-71.4111328125
-59.50927734375
-54.01611328125
-53.1005859375
-54.01611328125
-48.52294921875
-60.4248046875
-54.931640625
-47.607421875
-47.607421875
-53.1005859375
-60.4248046875
-75.0732421875
-54.931640625
-54.931640625
-58.59375
-58.59375
-54.01611328125
-57.67822265625
-65.91796875
-59.50927734375
-54.01611328125
-48.52294921875
-53.1005859375
-47.607421875
-49.4384765625
-65.91796875
-64.0869140625
-62.255859375
-60.4248046875
-65.91796875
-74.15771484375
-96.13037109375
-71.4111328125
-38.4521484375
-65.00244140625
-70.49560546875
-62.255859375
-63.17138671875
-41.19873046875
-35.70556640625
-35.70556640625
-36.62109375
-47.607421875
-53.1005859375
-45.7763671875
-46.69189453125
-53.1005859375
-51.26953125
-46.69189453125
-54.01611328125
-54.01611328125
-56.7626953125
-54.01611328125
-54.931640625
-53.1005859375
-61.34033203125
-75.0732421875
-65.00244140625
-58.59375
-51.26953125
-60.4248046875
-61.34033203125
-61.34033203125
-56.7626953125
-63.17138671875
-61.34033203125
-61.34033203125
-64.0869140625
-57.67822265625
-54.931640625
-58.59375
-73.2421875
-70.49560546875
-67.7490234375
-76.904296875
-68.66455078125
-82.3974609375
-70.49560546875
-73.2421875
-68.66455078125
-58.59375
-59.50927734375
-56.7626953125
-59.50927734375
-62.255859375
-64.0869140625
-70.49560546875
-67.7490234375
-74.15771484375
-71.4111328125
-65.00244140625
-61.34033203125
-54.01611328125
-60.4248046875
-75.0732421875
-60.4248046875
-61.34033203125
-62.255859375
-49.4384765625
-50.35400390625
-55.84716796875
-61.34033203125
-57.67822265625
-57.67822265625
-63.17138671875
-68.66455078125
-65.91796875
-67.7490234375
-76.904296875
-76.904296875
-80.56640625
-95.21484375
-90.63720703125
-75.0732421875
-74.15771484375
-73.2421875
-73.2421875
-56.7626953125
-55.84716796875
-52.18505859375
-58.59375
-58.59375
-57.67822265625
-61.34033203125
-65.91796875
-54.931640625
-69.580078125
-67.7490234375
-71.4111328125
-76.904296875
-43.02978515625
-27.4658203125
-33.87451171875
-21.97265625
-22.88818359375
-26.55029296875
-28.38134765625
-17.39501953125
-3.662109375
-3.662109375
-1.8310546875
-1.8310546875
0
6.40869140625
19.22607421875
29.296875
32.958984375
22.88818359375
9.1552734375
10.07080078125
14.6484375
10.07080078125
6.40869140625
15.56396484375
10.986328125
12.8173828125
13.73291015625
25.634765625
14.6484375
-3.662109375
-11.90185546875
-28.38134765625
-43.02978515625
-61.34033203125
-73.2421875
-62.255859375
-65.00244140625
-72.32666015625
-58.59375
-51.26953125
-61.34033203125
-65.00244140625
-66.83349609375
-66.83349609375
-67.7490234375
-75.0732421875
-78.7353515625
-80.56640625
-86.0595703125
-91.552734375
-76.904296875
-86.0595703125
-75.98876953125
-63.17138671875
-69.580078125
-76.904296875
-65.00244140625
-68.66455078125
-74.15771484375
-66.83349609375
-68.66455078125
-67.7490234375
-58.59375
-61.34033203125
-59.50927734375
-60.4248046875
-70.49560546875
-72.32666015625
-68.66455078125
-78.7353515625
-83.31298828125
-85.14404296875
-86.97509765625
-73.2421875
-91.552734375
-113.525390625
-121.76513671875
-163.87939453125
-195.9228515625
-197.75390625
-169.37255859375
-119.93408203125
-79.65087890625
-28.38134765625
12.8173828125
69.580078125
130.92041015625
197.75390625
294.7998046875
382.6904296875
507.2021484375
625.30517578125
752.5634765625
843.20068359375
855.1025390625
752.5634765625
604.248046875
468.75
415.6494140625
336.9140625
233.45947265625
167.54150390625
104.3701171875
48.52294921875
22.88818359375
-5.4931640625
-16.4794921875
-30.21240234375
-20.1416015625
12.8173828125
10.07080078125
2.74658203125
13.73291015625
21.05712890625
18.310546875
9.1552734375
-0.91552734375
-15.56396484375
-23.8037109375
-19.22607421875
-22.88818359375
-28.38134765625
-26.55029296875
-26.55029296875
-32.04345703125
-23.8037109375
-31.1279296875
-31.1279296875
-28.38134765625
-20.1416015625
-15.56396484375
-27.4658203125
-32.04345703125
-36.62109375
-22.88818359375
-21.05712890625
-38.4521484375
-15.56396484375
0
-7.32421875
-15.56396484375
-7.32421875
-6.40869140625
-21.97265625
-21.97265625
-20.1416015625
-12.8173828125
-5.4931640625
-9.1552734375
-10.986328125
-5.4931640625
7.32421875
-0.91552734375
-15.56396484375
-12.8173828125
-2.74658203125
-1.8310546875
-1.8310546875
-10.986328125
-3.662109375
6.40869140625
10.986328125
8.23974609375
19.22607421875
28.38134765625
22.88818359375
13.73291015625
18.310546875
25.634765625
26.55029296875
28.38134765625
20.1416015625
22.88818359375
28.38134765625
23.8037109375
27.4658203125
38.4521484375
36.62109375
33.87451171875
40.283203125
47.607421875
42.1142578125
25.634765625
52.18505859375
46.69189453125
34.7900390625
52.18505859375
60.4248046875
73.2421875
62.255859375
50.35400390625
64.0869140625
94.29931640625
75.98876953125
67.7490234375
77.81982421875
80.56640625
87.890625
98.876953125
94.29931640625
92.46826171875
86.97509765625
104.3701171875
110.77880859375
124.51171875
121.76513671875
124.51171875
123.59619140625
124.51171875
110.77880859375
130.0048828125
139.16015625
149.23095703125
155.6396484375
162.9638671875
161.1328125
156.55517578125
156.55517578125
163.87939453125
158.38623046875
182.18994140625
168.45703125
192.2607421875
196.83837890625
194.091796875
184.02099609375
167.54150390625
162.9638671875
157.470703125
149.23095703125
150.146484375
147.39990234375
133.6669921875
129.08935546875
113.525390625
106.201171875
99.79248046875
90.63720703125
68.66455078125
63.17138671875
57.67822265625
45.7763671875
22.88818359375
4.57763671875
25.634765625
32.04345703125
12.8173828125
2.74658203125
-2.74658203125
3.662109375
-10.07080078125
-17.39501953125
-31.1279296875
-22.88818359375
-26.55029296875
-26.55029296875
-43.02978515625
-35.70556640625
-27.4658203125
-27.4658203125
-28.38134765625
-33.87451171875
-31.1279296875
-33.87451171875
-34.7900390625
-43.02978515625
-47.607421875
-60.4248046875
-53.1005859375
-38.4521484375
-39.36767578125
-43.02978515625
-45.7763671875
-44.86083984375
-39.36767578125
-43.02978515625
-53.1005859375
-64.0869140625
-61.34033203125
-47.607421875
-39.36767578125
-43.02978515625
-46.69189453125
-45.7763671875
-39.36767578125
-43.9453125
-49.4384765625
-50.35400390625
-47.607421875
-26.55029296875
-54.01611328125
-47.607421875
-38.4521484375
-38.4521484375
-37.53662109375
-42.1142578125
-37.53662109375
-45.7763671875
-39.36767578125
-34.7900390625
-33.87451171875
-27.4658203125
-33.87451171875
-39.36767578125
-34.7900390625
-30.21240234375
-28.38134765625
-31.1279296875
-41.19873046875
-23.8037109375
-21.05712890625
-36.62109375
-37.53662109375
-30.21240234375
-29.296875
-30.21240234375
-36.62109375
-35.70556640625
-20.1416015625
-25.634765625
-31.1279296875
-25.634765625
-23.8037109375
-45.7763671875
-44.86083984375
-37.53662109375
-34.7900390625
-46.69189453125
-40.283203125
-28.38134765625
-32.04345703125
-28.38134765625
-21.97265625
-17.39501953125
-43.9453125
-58.59375
-34.7900390625
-45.7763671875
-51.26953125
-30.21240234375
-34.7900390625
-32.958984375
-36.62109375
-32.04345703125
-19.22607421875
-32.958984375
-44.86083984375
-44.86083984375
-38.4521484375
-44.86083984375
-56.7626953125
-34.7900390625
-36.62109375
-44.86083984375
-44.86083984375
-47.607421875
-48.52294921875
-60.4248046875
-54.931640625
-58.59375
-60.4248046875
-44.86083984375
-42.1142578125
-55.84716796875
-54.931640625
-54.931640625
-55.84716796875
-58.59375
-64.0869140625
-62.255859375
-58.59375
-55.84716796875
-59.50927734375
-63.17138671875
-64.0869140625
-57.67822265625
-75.98876953125
-68.66455078125
-44.86083984375
-57.67822265625
-50.35400390625
-50.35400390625
-55.84716796875
-50.35400390625
-52.18505859375
-55.84716796875
-54.01611328125
-58.59375
-54.931640625
-54.931640625
-54.01611328125
-65.00244140625
-75.0732421875
-71.4111328125
-54.931640625
-61.34033203125
-66.83349609375
-53.1005859375
-55.84716796875
-51.26953125
-52.18505859375
-53.1005859375
-47.607421875
-67.7490234375
-90.63720703125
-42.1142578125
-46.69189453125
-43.02978515625
-35.70556640625
-33.87451171875
-33.87451171875
-29.296875
-27.4658203125
-17.39501953125
-14.6484375
-10.986328125
-7.32421875
-17.39501953125
-12.8173828125
-16.4794921875
-15.56396484375
-13.73291015625
-12.8173828125
-5.4931640625
16.4794921875
27.4658203125
35.70556640625
30.21240234375
19.22607421875
19.22607421875
25.634765625
28.38134765625
9.1552734375
12.8173828125
32.958984375
25.634765625
19.22607421875
27.4658203125
27.4658203125
30.21240234375
15.56396484375
-4.57763671875
-15.56396484375
-25.634765625
-26.55029296875
-33.87451171875
-46.69189453125
-58.59375
-40.283203125
-39.36767578125
-52.18505859375
-54.01611328125
-54.931640625
-58.59375
-62.255859375
-57.67822265625
-48.52294921875
-43.9453125
-51.26953125
-55.84716796875
-59.50927734375
-65.00244140625
-61.34033203125
-66.83349609375
-77.81982421875
-66.83349609375
-57.67822265625
-46.69189453125
-60.4248046875
-66.83349609375
-68.66455078125
-57.67822265625
-65.00244140625
-65.91796875
-60.4248046875
-54.931640625
-43.9453125
-65.00244140625
-69.580078125
-72.32666015625
-72.32666015625
-63.17138671875
-54.931640625
-57.67822265625
-67.7490234375
-62.255859375
-77.81982421875
-110.77880859375
-138.24462890625
-161.1328125
-175.78125
-155.6396484375
-114.44091796875
-79.65087890625
-23.8037109375
25.634765625
88.80615234375
166.6259765625
243.5302734375
320.4345703125
414.73388671875
531.005859375
652.77099609375
773.62060546875
856.93359375
865.17333984375
753.47900390625
579.52880859375
457.763671875
427.55126953125
335.0830078125
239.8681640625
165.71044921875
107.11669921875
65.91796875
39.36767578125
10.986328125
-2.74658203125
-10.986328125
7.32421875
27.4658203125
28.38134765625
35.70556640625
11.90185546875
9.1552734375
0
-8.23974609375
-12.8173828125
-13.73291015625
-5.4931640625
-0.91552734375
-10.07080078125
-15.56396484375
-13.73291015625
-10.986328125
-13.73291015625
-13.73291015625
-22.88818359375
-31.1279296875
-36.62109375
-28.38134765625
-16.4794921875
-28.38134765625
-16.4794921875
-11.90185546875
-10.986328125
-9.1552734375
-10.986328125
-23.8037109375
-22.88818359375
-18.310546875
-13.73291015625
-12.8173828125
-7.32421875
3.662109375
2.74658203125
-6.40869140625
0.91552734375
-1.8310546875
-0.91552734375
-1.8310546875
0.91552734375
8.23974609375
8.23974609375
5.4931640625
-10.986328125
3.662109375
5.4931640625
8.23974609375
5.4931640625
4.57763671875
1.8310546875
9.1552734375
6.40869140625
16.4794921875
17.39501953125
15.56396484375
6.40869140625
10.986328125
10.986328125
14.6484375
17.39501953125
32.04345703125
24.71923828125
22.88818359375
43.9453125
36.62109375
36.62109375
40.283203125
38.4521484375
32.04345703125
41.19873046875
44.86083984375
49.4384765625
49.4384765625
52.18505859375
61.34033203125
57.67822265625
65.00244140625
68.66455078125
75.0732421875
72.32666015625
79.65087890625
53.1005859375
68.66455078125
88.80615234375
86.97509765625
97.96142578125
104.3701171875
97.96142578125
104.3701171875
113.525390625
108.94775390625
119.93408203125
130.92041015625
137.3291015625
126.3427734375
129.08935546875
128.173828125
137.3291015625
143.73779296875
147.39990234375
148.3154296875
146.484375
142.822265625
149.23095703125
158.38623046875
150.146484375
154.72412109375
158.38623046875
167.54150390625
170.2880859375
172.119140625
168.45703125
162.04833984375
154.72412109375
158.38623046875
152.89306640625
145.56884765625
148.3154296875
144.6533203125
128.173828125
118.10302734375
117.1875
109.86328125
95.21484375
92.46826171875
72.32666015625
54.01611328125
51.26953125
54.931640625
46.69189453125
34.7900390625
27.4658203125
29.296875
21.05712890625
18.310546875
15.56396484375
10.986328125
1.8310546875
-2.74658203125
0
-11.90185546875
-20.1416015625
-24.71923828125
-24.71923828125
-31.1279296875
-43.9453125
-56.7626953125
-48.52294921875
-57.67822265625
-75.98876953125
-53.1005859375
-48.52294921875
-49.4384765625
-48.52294921875
-46.69189453125
-48.52294921875
-47.607421875
-43.9453125
-41.19873046875
-44.86083984375
-45.7763671875
-47.607421875
-44.86083984375
-44.86083984375
-41.19873046875
-46.69189453125
-50.35400390625
-47.607421875
-49.4384765625
-51.26953125
-54.931640625
-65.00244140625
-45.7763671875
-45.7763671875
-45.7763671875
-50.35400390625
-53.1005859375
-48.52294921875
-45.7763671875
-44.86083984375
-38.4521484375
-42.1142578125
-51.26953125
-52.18505859375
-41.19873046875
-40.283203125
-40.283203125
-44.86083984375
-38.4521484375
-39.36767578125
-44.86083984375
-41.19873046875
-41.19873046875
-37.53662109375
-32.04345703125
-32.04345703125
-35.70556640625
-37.53662109375
-31.1279296875
-27.4658203125
-36.62109375
-51.26953125
-51.26953125
-53.1005859375
-55.84716796875
-32.958984375
-34.7900390625
-43.9453125
-40.283203125
-28.38134765625
-33.87451171875
-46.69189453125
-40.283203125
-36.62109375
-36.62109375
-39.36767578125
-37.53662109375
-32.958984375
-46.69189453125
-59.50927734375
-55.84716796875
-45.7763671875
-44.86083984375
-42.1142578125
-40.283203125
-40.283203125
-43.9453125
-42.1142578125
-60.4248046875
-49.4384765625
-37.53662109375
-49.4384765625
-44.86083984375
-32.958984375
-43.02978515625
-48.52294921875
-60.4248046875
-54.01611328125
-44.86083984375
-54.931640625
-49.4384765625
-51.26953125
-62.255859375
-54.931640625
-48.52294921875
-67.7490234375
-63.17138671875
-45.7763671875
-43.9453125
-40.283203125
-45.7763671875
-47.607421875
-48.52294921875
-45.7763671875
-56.7626953125
-62.255859375
-68.66455078125
-59.50927734375
-54.01611328125
-57.67822265625
-55.84716796875
-60.4248046875
-67.7490234375
-42.1142578125
-54.931640625
-55.84716796875
-50.35400390625
-55.84716796875
-65.91796875
-65.00244140625
-69.580078125
-69.580078125
-62.255859375
-62.255859375
-57.67822265625
-54.01611328125
-64.0869140625
-73.2421875
-75.0732421875
-57.67822265625
-54.931640625
-63.17138671875
-65.91796875
-65.91796875
-61.34033203125
-59.50927734375
-53.1005859375
-37.53662109375
-27.4658203125
-29.296875
-30.21240234375
-27.4658203125
-26.55029296875
-16.4794921875
-11.90185546875
-20.1416015625
-18.310546875
-20.1416015625
-1.8310546875
15.56396484375
15.56396484375
12.8173828125
1.8310546875
22.88818359375
23.8037109375
28.38134765625
29.296875
21.05712890625
10.986328125
11.90185546875
5.4931640625
5.4931640625
18.310546875
18.310546875
0.91552734375
-13.73291015625
-10.986328125
-5.4931640625
-10.07080078125
-32.04345703125
-39.36767578125
-44.86083984375
-53.1005859375
-57.67822265625
-54.01611328125
-58.59375
-69.580078125
-64.0869140625
-61.34033203125
-56.7626953125
-62.255859375
-67.7490234375
-70.49560546875
-76.904296875
-78.7353515625
-71.4111328125
-65.91796875
-64.0869140625
-68.66455078125
-86.0595703125
-78.7353515625
-80.56640625
-86.0595703125
-87.890625
-68.66455078125
-70.49560546875
-63.17138671875
-62.255859375
-60.4248046875
-69.580078125
-71.4111328125
-75.0732421875
-80.56640625
-84.228515625
-87.890625
-83.31298828125
-75.98876953125
-74.15771484375
-97.0458984375
-106.201171875
-102.5390625
-130.0048828125
-174.86572265625
-195.00732421875
-197.75390625
-177.6123046875
-139.16015625
-104.3701171875
-47.607421875
7.32421875
75.0732421875
154.72412109375
229.79736328125
308.53271484375
391.845703125
521.8505859375
653.6865234375
768.12744140625
847.7783203125
856.93359375
760.80322265625
610.65673828125
472.412109375
423.88916015625
370.78857421875
277.40478515625
179.443359375
117.1875
73.2421875
44.86083984375
20.1416015625
-3.662109375
-11.90185546875
-13.73291015625
-0.91552734375
21.05712890625
10.986328125
10.986328125
-5.4931640625
25.634765625
21.97265625
12.8173828125
10.986328125
4.57763671875
-16.4794921875
-20.1416015625
-0.91552734375
-10.07080078125
-40.283203125
-48.52294921875
-27.4658203125
-19.22607421875
-10.986328125
-4.57763671875
-12.8173828125
-3.662109375
-6.40869140625
-8.23974609375
-3.662109375
-0.91552734375
-5.4931640625
-4.57763671875
-10.07080078125
-18.310546875
-27.4658203125
-21.97265625
-10.07080078125
-13.73291015625
-16.4794921875
-19.22607421875
-15.56396484375
-11.90185546875
-6.40869140625
-13.73291015625
-15.56396484375
-21.05712890625
-15.56396484375
3.662109375
7.32421875
13.73291015625
16.4794921875
21.05712890625
23.8037109375
29.296875
40.283203125
38.4521484375
40.283203125
35.70556640625
28.38134765625
28.38134765625
24.71923828125
30.21240234375
43.02978515625
53.1005859375
45.7763671875
32.958984375
24.71923828125
33.87451171875
44.86083984375
47.607421875
38.4521484375
39.36767578125
43.9453125
34.7900390625
33.87451171875
44.86083984375
57.67822265625
61.34033203125
61.34033203125
64.0869140625
69.580078125
69.580078125
70.49560546875
65.00244140625
72.32666015625
74.15771484375
85.14404296875
90.63720703125
78.7353515625
91.552734375
104.3701171875
103.45458984375
100.7080078125
102.5390625
104.3701171875
108.0322265625
108.0322265625
112.60986328125
108.94775390625
101.62353515625
110.77880859375
124.51171875
136.41357421875
139.16015625
138.24462890625
149.23095703125
154.72412109375
154.72412109375
159.3017578125
158.38623046875
160.21728515625
166.6259765625
162.9638671875
161.1328125
175.78125
166.6259765625
165.71044921875
169.37255859375
172.119140625
179.443359375
173.03466796875
164.794921875
162.9638671875
164.794921875
150.146484375
130.92041015625
130.92041015625
123.59619140625
108.94775390625
100.7080078125
102.5390625
99.79248046875
97.96142578125
74.15771484375
59.50927734375
50.35400390625
41.19873046875
38.4521484375
34.7900390625
20.1416015625
13.73291015625
12.8173828125
0
-21.97265625
-17.39501953125
-32.04345703125
-32.04345703125
-18.310546875
-14.6484375
-19.22607421875
-17.39501953125
-19.22607421875
-23.8037109375
-28.38134765625
-26.55029296875
-26.55029296875
-25.634765625
-36.62109375
-32.958984375
-37.53662109375
-40.283203125
-43.02978515625
-41.19873046875
-32.04345703125
-37.53662109375
-34.7900390625
-23.8037109375
-29.296875
-43.9453125
-32.04345703125
-31.1279296875
-29.296875
-27.4658203125
-20.1416015625
-24.71923828125
-31.1279296875
-23.8037109375
-29.296875
-33.87451171875
-25.634765625
-28.38134765625
-21.05712890625
-19.22607421875
-21.97265625
-26.55029296875
-33.87451171875
-30.21240234375
-25.634765625
-37.53662109375
-21.97265625
-18.310546875
-19.22607421875
-16.4794921875
-18.310546875
-23.8037109375
-27.4658203125
-32.04345703125
-23.8037109375
-15.56396484375
-12.8173828125
-12.8173828125
-23.8037109375
-26.55029296875
-25.634765625
-31.1279296875
-31.1279296875
-32.04345703125
-25.634765625
-28.38134765625
-39.36767578125
-29.296875
-26.55029296875
-22.88818359375
-14.6484375
-10.986328125
-9.1552734375
-7.32421875
-0.91552734375
-10.07080078125
-14.6484375
-15.56396484375
-17.39501953125
-15.56396484375
-23.8037109375
-16.4794921875
-6.40869140625
-5.4931640625
-19.22607421875
-21.05712890625
-20.1416015625
-31.1279296875
-29.296875
-31.1279296875
-27.4658203125
-27.4658203125
-36.62109375
-23.8037109375
-18.310546875
-26.55029296875
-27.4658203125
-29.296875
-32.04345703125
-29.296875
-21.97265625
-30.21240234375
-33.87451171875
-35.70556640625
-27.4658203125
-31.1279296875
-36.62109375
-39.36767578125
-29.296875
-27.4658203125
-27.4658203125
-35.70556640625
-54.01611328125
-37.53662109375
-16.4794921875
-23.8037109375
-36.62109375
-32.04345703125
-33.87451171875
-29.296875
-27.4658203125
-35.70556640625
-32.958984375
-36.62109375
-35.70556640625
-29.296875
-41.19873046875
-44.86083984375
-41.19873046875
-43.9453125
-47.607421875
-40.283203125
-27.4658203125
-34.7900390625
-47.607421875
-23.8037109375
-24.71923828125
-24.71923828125
-15.56396484375
-7.32421875
-8.23974609375
-0.91552734375
5.4931640625
10.986328125
5.4931640625
5.4931640625
18.310546875
16.4794921875
17.39501953125
10.07080078125
14.6484375
18.310546875
27.4658203125
42.1142578125
52.18505859375
54.01611328125
47.607421875
38.4521484375
33.87451171875
46.69189453125
33.87451171875
35.70556640625
28.38134765625
33.87451171875
33.87451171875
26.55029296875
20.1416015625
28.38134765625
28.38134765625
15.56396484375
8.23974609375
10.986328125
6.40869140625
-15.56396484375
-39.36767578125
-42.1142578125
-21.97265625
-17.39501953125
-25.634765625
-30.21240234375
-36.62109375
-45.7763671875
-42.1142578125
-33.87451171875
-36.62109375
-44.86083984375
-52.18505859375
-46.69189453125
-39.36767578125
-40.283203125
-46.69189453125
-51.26953125
-46.69189453125
-45.7763671875
-62.255859375
-43.9453125
-47.607421875
-50.35400390625
-51.26953125
-45.7763671875
-49.4384765625
-43.02978515625
-56.7626953125
-57.67822265625
-57.67822265625
-63.17138671875
-57.67822265625
-56.7626953125
-72.32666015625
-75.98876953125
-77.81982421875
-64.0869140625
-72.32666015625
-92.46826171875
-70.49560546875
-97.96142578125
-150.146484375
-167.54150390625
-172.119140625
-132.75146484375
-85.14404296875
-53.1005859375
-3.662109375
42.1142578125
104.3701171875
180.35888671875
249.93896484375
330.50537109375
423.88916015625
541.9921875
639.95361328125
757.14111328125
846.86279296875
847.7783203125
754.39453125
590.51513671875
465.087890625
420.22705078125
326.84326171875
227.96630859375
148.3154296875
86.0595703125
34.7900390625
2.74658203125
-24.71923828125
-35.70556640625
-40.283203125
-32.04345703125
9.1552734375
14.6484375
21.05712890625
36.62109375
29.296875
22.88818359375
20.1416015625
14.6484375
10.07080078125
1.8310546875
0.91552734375
0
-2.74658203125
-9.1552734375
-10.986328125
-19.22607421875
-19.22607421875
-21.05712890625
-14.6484375
-13.73291015625
-21.97265625
-32.04345703125
-37.53662109375
-34.7900390625
-31.1279296875
-6.40869140625
0.91552734375
10.07080078125
12.8173828125
9.1552734375
10.07080078125
-0.91552734375
-5.4931640625
-7.32421875
5.4931640625
10.986328125
10.07080078125
10.07080078125
6.40869140625
16.4794921875
21.05712890625
11.90185546875
8.23974609375
0.91552734375
-0.91552734375
13.73291015625
7.32421875
16.4794921875
20.1416015625
22.88818359375
11.90185546875
7.32421875
15.56396484375
17.39501953125
18.310546875
29.296875
30.21240234375
13.73291015625
0
28.38134765625
48.52294921875
43.02978515625
46.69189453125
49.4384765625
50.35400390625
53.1005859375
44.86083984375
48.52294921875
50.35400390625
56.7626953125
55.84716796875
58.59375
58.59375
75.98876953125
71.4111328125
75.0732421875
78.7353515625
70.49560546875
77.81982421875
97.96142578125
89.7216796875
86.0595703125
87.890625
89.7216796875
88.80615234375
91.552734375
94.29931640625
101.62353515625
104.3701171875
108.94775390625
116.27197265625
121.76513671875
128.173828125
129.08935546875
130.0048828125
125.42724609375
131.8359375
161.1328125
153.80859375
160.21728515625
162.04833984375
163.87939453125
170.2880859375
175.78125
180.35888671875
184.02099609375
183.10546875
193.17626953125
194.091796875
195.9228515625
184.9365234375
186.767578125
190.4296875
180.35888671875
171.20361328125
172.119140625
183.10546875
181.2744140625
182.18994140625
171.20361328125
156.55517578125
149.23095703125
141.90673828125
136.41357421875
128.173828125
114.44091796875
108.0322265625
88.80615234375
79.65087890625
76.904296875
66.83349609375
57.67822265625
55.84716796875
41.19873046875
29.296875
15.56396484375
9.1552734375
5.4931640625
-4.57763671875
10.07080078125
7.32421875
1.8310546875
-10.07080078125
-19.22607421875
-22.88818359375
-21.97265625
-17.39501953125
-12.8173828125
-14.6484375
-26.55029296875
-28.38134765625
-24.71923828125
-37.53662109375
-43.02978515625
-23.8037109375
-39.36767578125
-36.62109375
-24.71923828125
-21.97265625
-25.634765625
-32.958984375
-32.04345703125
-32.958984375
-30.21240234375
-29.296875
-26.55029296875
-33.87451171875
-33.87451171875
-27.4658203125
-30.21240234375
-28.38134765625
-31.1279296875
-32.958984375
-32.04345703125
-24.71923828125
-24.71923828125
-24.71923828125
-30.21240234375
-34.7900390625
-32.958984375
-27.4658203125
-43.9453125
-21.97265625
-16.4794921875
-20.1416015625
-11.90185546875
-18.310546875
-16.4794921875
-18.310546875
-28.38134765625
-30.21240234375
-24.71923828125
-32.958984375
-39.36767578125
-32.958984375
-18.310546875
-32.04345703125
-51.26953125
-43.9453125
-30.21240234375
-32.958984375
-30.21240234375
-14.6484375
-7.32421875
-14.6484375
-13.73291015625
-9.1552734375
-11.90185546875
-15.56396484375
-12.8173828125
-17.39501953125
-14.6484375
-16.4794921875
-20.1416015625
-28.38134765625
-37.53662109375
-27.4658203125
-36.62109375
-24.71923828125
-15.56396484375
-14.6484375
-4.57763671875
-4.57763671875
-5.4931640625
-10.986328125
-10.986328125
-11.90185546875
-12.8173828125
-14.6484375
-13.73291015625
-18.310546875
-22.88818359375
-29.296875
-32.04345703125
-23.8037109375
-30.21240234375
-24.71923828125
-24.71923828125
-23.8037109375
-31.1279296875
-39.36767578125
-21.97265625
-24.71923828125
-34.7900390625
-31.1279296875
-28.38134765625
-32.04345703125
-36.62109375
-30.21240234375
-19.22607421875
-23.8037109375
-34.7900390625
-34.7900390625
-28.38134765625
-33.87451171875
-34.7900390625
-42.1142578125
-49.4384765625
-48.52294921875
-33.87451171875
-34.7900390625
-34.7900390625
-32.04345703125
-27.4658203125
-27.4658203125
-28.38134765625
-26.55029296875
-32.04345703125
-35.70556640625
-39.36767578125
-34.7900390625
-29.296875
-39.36767578125
-49.4384765625
-41.19873046875
-27.4658203125
-33.87451171875
-32.958984375
-31.1279296875
-36.62109375
-26.55029296875
-13.73291015625
-24.71923828125
-34.7900390625
-30.21240234375
-21.05712890625
-26.55029296875
-18.310546875
-8.23974609375
0.91552734375
4.57763671875
8.23974609375
15.56396484375
19.22607421875
20.1416015625
10.986328125
8.23974609375
18.310546875
28.38134765625
36.62109375
49.4384765625
65.00244140625
62.255859375
39.36767578125
44.86083984375
51.26953125
52.18505859375
48.52294921875
54.931640625
43.9453125
41.19873046875
37.53662109375
47.607421875
46.69189453125
52.18505859375
42.1142578125
29.296875
21.97265625
10.07080078125
10.986328125
-6.40869140625
-9.1552734375
-12.8173828125
-15.56396484375
-27.4658203125
-20.1416015625
-17.39501953125
-34.7900390625
-31.1279296875
-25.634765625
-32.04345703125
-38.4521484375
-40.283203125
-42.1142578125
-42.1142578125
-43.9453125
-36.62109375
-39.36767578125
-43.9453125
-44.86083984375
-44.86083984375
-42.1142578125
-34.7900390625
-32.958984375
-38.4521484375
-47.607421875
-60.4248046875
-54.01611328125
-39.36767578125
-41.19873046875
-45.7763671875
-46.69189453125
-43.02978515625
-47.607421875
-49.4384765625
-43.02978515625
-54.931640625
-54.01611328125
-46.69189453125
-50.35400390625
-52.18505859375
-65.91796875
-86.0595703125
-128.173828125
-167.54150390625
-179.443359375
-159.3017578125
-106.201171875
-51.26953125
-2.74658203125
47.607421875
104.3701171875
169.37255859375
238.037109375
334.16748046875
411.9873046875
520.01953125
641.78466796875
758.97216796875
852.35595703125
877.99072265625
802.91748046875
656.43310546875
512.6953125
446.77734375
368.0419921875
276.4892578125
187.68310546875
120.849609375
76.904296875
31.1279296875
9.1552734375
1.8310546875
-7.32421875
0
18.310546875
10.07080078125
39.36767578125
50.35400390625
42.1142578125
40.283203125
22.88818359375
22.88818359375
32.04345703125
32.958984375
15.56396484375
19.22607421875
11.90185546875
-4.57763671875
-10.07080078125
-8.23974609375
-0.91552734375
2.74658203125
5.4931640625
10.07080078125
-2.74658203125
4.57763671875
18.310546875
10.986328125
11.90185546875
1.8310546875
0.91552734375
3.662109375
4.57763671875
4.57763671875
3.662109375
-1.8310546875
-1.8310546875
-3.662109375
7.32421875
-2.74658203125
1.8310546875
0.91552734375
3.662109375
10.07080078125
13.73291015625
10.07080078125
2.74658203125
-4.57763671875
3.662109375
21.97265625
18.310546875
20.1416015625
25.634765625
28.38134765625
22.88818359375
32.04345703125
22.88818359375
19.22607421875
23.8037109375
29.296875
25.634765625
28.38134765625
24.71923828125
28.38134765625
26.55029296875
23.8037109375
11.90185546875
17.39501953125
41.19873046875
51.26953125
41.19873046875
38.4521484375
35.70556640625
39.36767578125
48.52294921875
50.35400390625
50.35400390625
53.1005859375
54.01611328125
54.01611328125
50.35400390625
49.4384765625
55.84716796875
69.580078125
65.00244140625
65.00244140625
69.580078125
73.2421875
79.65087890625
77.81982421875
94.29931640625
115.3564453125
125.42724609375
124.51171875
121.76513671875
123.59619140625
119.93408203125
120.849609375
123.59619140625
130.0048828125
137.3291015625
147.39990234375
140.9912109375
133.6669921875
144.6533203125
144.6533203125
149.23095703125
155.6396484375
162.04833984375
152.89306640625
156.55517578125
171.20361328125
170.2880859375
166.6259765625
169.37255859375
180.35888671875
188.5986328125
191.34521484375
187.68310546875
184.9365234375
182.18994140625
174.86572265625
166.6259765625
144.6533203125
151.9775390625
152.89306640625
142.822265625
137.3291015625
124.51171875
123.59619140625
117.1875
105.28564453125
93.3837890625
75.0732421875
63.17138671875
71.4111328125
60.4248046875
51.26953125
32.04345703125
21.05712890625
10.07080078125
12.8173828125
-6.40869140625
-8.23974609375
-9.1552734375
-14.6484375
-8.23974609375
-10.07080078125
-19.22607421875
-22.88818359375
-17.39501953125
-21.05712890625
-24.71923828125
-29.296875
-28.38134765625
-29.296875
-35.70556640625
-40.283203125
-32.04345703125
-25.634765625
-26.55029296875
-24.71923828125
-20.1416015625
-25.634765625
-23.8037109375
-30.21240234375
-21.97265625
-42.1142578125
-29.296875
-36.62109375
-43.02978515625
-32.958984375
-21.05712890625
-21.97265625
-42.1142578125
-35.70556640625
-28.38134765625
-29.296875
-35.70556640625
-36.62109375
-33.87451171875
-38.4521484375
-29.296875
-28.38134765625
-20.1416015625
-29.296875
-30.21240234375
-29.296875
-32.04345703125
-25.634765625
-23.8037109375
-25.634765625
-31.1279296875
-31.1279296875
-37.53662109375
-38.4521484375
-38.4521484375
-23.8037109375
-28.38134765625
-29.296875
-20.1416015625
-27.4658203125
-30.21240234375
-31.1279296875
-28.38134765625
-28.38134765625
-23.8037109375
-12.8173828125
-10.986328125
-18.310546875
-18.310546875
-21.05712890625
-19.22607421875
-25.634765625
-40.283203125
-22.88818359375
-21.97265625
-27.4658203125
-32.958984375
-32.958984375
-40.283203125
-38.4521484375
-31.1279296875
-25.634765625
-30.21240234375
-31.1279296875
-40.283203125
-43.9453125
-40.283203125
-30.21240234375
-17.39501953125
-17.39501953125
-21.97265625
-13.73291015625
-12.8173828125
-23.8037109375
-31.1279296875
-27.4658203125
-39.36767578125
-47.607421875
-45.7763671875
-57.67822265625
-36.62109375
-36.62109375
-41.19873046875
-32.04345703125
-33.87451171875
-40.283203125
-40.283203125
-46.69189453125
-45.7763671875
-40.283203125
-30.21240234375
-41.19873046875
-44.86083984375
-36.62109375
-48.52294921875
-49.4384765625
-53.1005859375
-56.7626953125
-43.02978515625
-37.53662109375
-36.62109375
-28.38134765625
-43.9453125
-55.84716796875
-42.1142578125
-41.19873046875
-39.36767578125
-47.607421875
-47.607421875
-51.26953125
-54.01611328125
-56.7626953125
-50.35400390625
-52.18505859375
-57.67822265625
-62.255859375
-55.84716796875
-61.34033203125
-46.69189453125
-47.607421875
-55.84716796875
-54.01611328125
-45.7763671875
-40.283203125
-44.86083984375
-45.7763671875
-43.02978515625
-32.04345703125
-32.958984375
-26.55029296875
-11.90185546875
-14.6484375
-15.56396484375
-8.23974609375
-6.40869140625
2.74658203125
-6.40869140625
0
6.40869140625
19.22607421875
18.310546875
34.7900390625
29.296875
43.9453125
46.69189453125
32.04345703125
30.21240234375
21.97265625
17.39501953125
31.1279296875
18.310546875
14.6484375
24.71923828125
18.310546875
19.22607421875
13.73291015625
-2.74658203125
-3.662109375
-13.73291015625
-24.71923828125
-33.87451171875
-39.36767578125
-45.7763671875
-47.607421875
-49.4384765625
-58.59375
-59.50927734375
-59.50927734375
-54.931640625
-57.67822265625
-51.26953125
-56.7626953125
-58.59375
-65.00244140625
-46.69189453125
-44.86083984375
-56.7626953125
-70.49560546875
-58.59375
-58.59375
-64.0869140625
-68.66455078125
-73.2421875
-69.580078125
-77.81982421875
-75.0732421875
-60.4248046875
-57.67822265625
-67.7490234375
-66.83349609375
-65.00244140625
-62.255859375
-65.91796875
-68.66455078125
-84.228515625
-79.65087890625
-84.228515625
-94.29931640625
-84.228515625
-87.890625
-97.0458984375
-110.77880859375
-137.3291015625
-173.9501953125
-197.75390625
-193.17626953125
-156.55517578125
-117.1875
-82.3974609375
-25.634765625
35.70556640625
102.5390625
175.78125
248.10791015625
325.927734375
422.05810546875
553.89404296875
671.9970703125
787.353515625
878.90625
872.49755859375
748.9013671875
580.4443359375
451.35498046875
413.818359375
345.15380859375
252.685546875
163.87939453125
88.80615234375
46.69189453125
22.88818359375
-1.8310546875
-17.39501953125
-28.38134765625
-19.22607421875
0.91552734375
1.8310546875
1.8310546875
1.8310546875
-6.40869140625
10.986328125
5.4931640625
-6.40869140625
-10.986328125
-12.8173828125
-20.1416015625
-23.8037109375
-32.04345703125
-28.38134765625
-20.1416015625
-20.1416015625
-24.71923828125
-20.1416015625
-21.05712890625
-21.05712890625
-23.8037109375
-39.36767578125
-44.86083984375
-37.53662109375
-23.8037109375
-23.8037109375
-24.71923828125
-9.1552734375
-17.39501953125
-14.6484375
-1.8310546875
-0.91552734375
0.91552734375
-2.74658203125
-8.23974609375
3.662109375
-3.662109375
-10.07080078125
-8.23974609375
3.662109375
-3.662109375
-17.39501953125
2.74658203125
4.57763671875
6.40869140625
8.23974609375
5.4931640625
10.07080078125
4.57763671875
-0.91552734375
6.40869140625
13.73291015625
10.986328125
12.8173828125
8.23974609375
11.90185546875
7.32421875
10.986328125
16.4794921875
25.634765625
22.88818359375
17.39501953125
13.73291015625
21.97265625
39.36767578125
29.296875
27.4658203125
23.8037109375
25.634765625
31.1279296875
17.39501953125
35.70556640625
39.36767578125
40.283203125
45.7763671875
49.4384765625
58.59375
65.00244140625
60.4248046875
68.66455078125
77.81982421875
82.3974609375
76.904296875
75.98876953125
72.32666015625
74.15771484375
71.4111328125
86.97509765625
92.46826171875
86.97509765625
95.21484375
103.45458984375
108.94775390625
105.28564453125
100.7080078125
97.0458984375
107.11669921875
125.42724609375
120.849609375
123.59619140625
115.3564453125
111.6943359375
116.27197265625
114.44091796875
114.44091796875
131.8359375
139.16015625
119.93408203125
119.93408203125
150.146484375
152.89306640625
143.73779296875
145.56884765625
150.146484375
158.38623046875
170.2880859375
169.37255859375
161.1328125
153.80859375
140.07568359375
131.8359375
122.6806640625
110.77880859375
99.79248046875
94.29931640625
88.80615234375
76.904296875
59.50927734375
61.34033203125
63.17138671875
48.52294921875
44.86083984375
40.283203125
23.8037109375
26.55029296875
23.8037109375
3.662109375
0.91552734375
-4.57763671875
-8.23974609375
-17.39501953125
-25.634765625
-36.62109375
-43.02978515625
-40.283203125
-45.7763671875
-45.7763671875
-40.283203125
-55.84716796875
-53.1005859375
-63.17138671875
-56.7626953125
-56.7626953125
-52.18505859375
-45.7763671875
-41.19873046875
-39.36767578125
-42.1142578125
-56.7626953125
-43.02978515625
-25.634765625
-41.19873046875
-52.18505859375
-54.01611328125
-44.86083984375
-30.21240234375
-32.04345703125
-39.36767578125
-37.53662109375
-39.36767578125
-47.607421875
-42.1142578125
-41.19873046875
-39.36767578125
-62.255859375
-53.1005859375
-42.1142578125
-49.4384765625
-47.607421875
-37.53662109375
-41.19873046875
-45.7763671875
-43.02978515625
-36.62109375
-46.69189453125
-49.4384765625
-40.283203125
-44.86083984375
-47.607421875
-48.52294921875
-43.02978515625
-34.7900390625
-35.70556640625
-40.283203125
-45.7763671875
-53.1005859375
-54.01611328125
-54.931640625
-61.34033203125
-65.91796875
-52.18505859375
-43.9453125
-47.607421875
-49.4384765625
-59.50927734375
-44.86083984375
-44.86083984375
-31.1279296875
-29.296875
-19.22607421875
-7.32421875
-24.71923828125
-34.7900390625
-33.87451171875
-33.87451171875
-22.88818359375
-25.634765625
-30.21240234375
-32.04345703125
-27.4658203125
-31.1279296875
-42.1142578125
-48.52294921875
-39.36767578125
-38.4521484375
-32.04345703125
-37.53662109375
-51.26953125
-48.52294921875
-36.62109375
-47.607421875
-46.69189453125
-38.4521484375
-51.26953125
-47.607421875
-54.931640625
-52.18505859375
-63.17138671875
-56.7626953125
-55.84716796875
-48.52294921875
-49.4384765625
-60.4248046875
-58.59375
-47.607421875
-40.283203125
-42.1142578125
-44.86083984375
-35.70556640625
-37.53662109375
-35.70556640625
-43.9453125
-53.1005859375
-47.607421875
-57.67822265625
-73.2421875
-59.50927734375
-59.50927734375
-64.0869140625
-58.59375
-49.4384765625
-49.4384765625
-45.7763671875
-48.52294921875
-52.18505859375
-53.1005859375
-54.01611328125
-67.7490234375
-55.84716796875
-56.7626953125
-57.67822265625
-48.52294921875
-54.01611328125
-51.26953125
-51.26953125
-50.35400390625
-55.84716796875
-54.931640625
-37.53662109375
-29.296875
-11.90185546875
0.91552734375
-10.07080078125
-22.88818359375
-13.73291015625
-9.1552734375
-10.07080078125
-15.56396484375
-14.6484375
-6.40869140625
10.986328125
21.97265625
23.8037109375
26.55029296875
27.4658203125
16.4794921875
17.39501953125
14.6484375
12.8173828125
-0.91552734375
7.32421875
26.55029296875
20.1416015625
23.8037109375
21.05712890625
15.56396484375
10.07080078125
1.8310546875
-6.40869140625
-10.986328125
-11.90185546875
-16.4794921875
-24.71923828125
-29.296875
-35.70556640625
-43.02978515625
-44.86083984375
-56.7626953125
-55.84716796875
-72.32666015625
-72.32666015625
-65.00244140625
-57.67822265625
-56.7626953125
-59.50927734375
-65.00244140625
-67.7490234375
-68.66455078125
-77.81982421875
-68.66455078125
-70.49560546875
-70.49560546875
-73.2421875
-72.32666015625
-72.32666015625
-71.4111328125
-71.4111328125
-75.98876953125
-72.32666015625
-75.0732421875
-83.31298828125
-76.904296875
-72.32666015625
-75.0732421875
-73.2421875
-69.580078125
-69.580078125
-74.15771484375
-80.56640625
-78.7353515625
-72.32666015625
-75.0732421875
-84.228515625
-119.0185546875
-127.25830078125
-160.21728515625
-190.4296875
-193.17626953125
-157.470703125
-112.60986328125
-78.7353515625
-23.8037109375
27.4658203125
87.890625
161.1328125
223.388671875
305.7861328125
428.466796875
540.1611328125
656.43310546875
786.43798828125
853.271484375
832.21435546875
724.18212890625
562.1337890625
408.3251953125
377.197265625
330.50537109375
230.712890625
138.24462890625
88.80615234375
48.52294921875
18.310546875
-3.662109375
-25.634765625
-39.36767578125
-38.4521484375
-6.40869140625
10.07080078125
6.40869140625
13.73291015625
28.38134765625
22.88818359375
4.57763671875
-4.57763671875
-1.8310546875
-2.74658203125
-10.986328125
-8.23974609375
-21.05712890625
-30.21240234375
-28.38134765625
-40.283203125
-38.4521484375
-23.8037109375
-28.38134765625
-25.634765625
-23.8037109375
-22.88818359375
-20.1416015625
-27.4658203125
-32.958984375
-27.4658203125
-26.55029296875
-30.21240234375
-22.88818359375
-21.05712890625
-15.56396484375
-16.4794921875
-14.6484375
-23.8037109375
-21.97265625
-27.4658203125
-29.296875
-20.1416015625
-23.8037109375
-34.7900390625
-36.62109375
-4.57763671875
-2.74658203125
2.74658203125
9.1552734375
15.56396484375
21.05712890625
21.97265625
12.8173828125
10.986328125
14.6484375
9.1552734375
13.73291015625
20.1416015625
13.73291015625
10.986328125
10.07080078125
9.1552734375
13.73291015625
15.56396484375
12.8173828125
10.07080078125
16.4794921875
21.97265625
29.296875
30.21240234375
27.4658203125
40.283203125
29.296875
29.296875
32.04345703125
40.283203125
38.4521484375
43.02978515625
53.1005859375
62.255859375
67.7490234375
79.65087890625
69.580078125
65.00244140625
62.255859375
61.34033203125
63.17138671875
61.34033203125
68.66455078125
69.580078125
67.7490234375
92.46826171875
92.46826171875
105.28564453125
109.86328125
125.42724609375
130.0048828125
129.08935546875
124.51171875
119.93408203125
125.42724609375
124.51171875
120.849609375
124.51171875
128.173828125
126.3427734375
134.58251953125
138.24462890625
138.24462890625
139.16015625
151.9775390625
160.21728515625
152.89306640625
152.89306640625
164.794921875
163.87939453125
167.54150390625
165.71044921875
140.9912109375
149.23095703125
161.1328125
147.39990234375
144.6533203125
133.6669921875
130.92041015625
120.849609375
122.6806640625
103.45458984375
93.3837890625
86.97509765625
82.3974609375
73.2421875
68.66455078125
57.67822265625
40.283203125
28.38134765625
27.4658203125
9.1552734375
11.90185546875
10.986328125
1.8310546875
-10.986328125
-17.39501953125
-8.23974609375
-18.310546875
-27.4658203125
-33.87451171875
-29.296875
-38.4521484375
-37.53662109375
-38.4521484375
-32.04345703125
-36.62109375
-40.283203125
-43.02978515625
-43.9453125
-42.1142578125
-38.4521484375
-41.19873046875
-45.7763671875
-59.50927734375
-56.7626953125
-57.67822265625
-54.01611328125
-51.26953125
-61.34033203125
-55.84716796875
-66.83349609375
-69.580078125
-47.607421875
-37.53662109375
-41.19873046875
-42.1142578125
-38.4521484375
-44.86083984375
-41.19873046875
-44.86083984375
-43.02978515625
-43.9453125
-45.7763671875
-43.9453125
-45.7763671875
-43.9453125
-42.1142578125
-46.69189453125
-61.34033203125
-68.66455078125
-60.4248046875
-32.04345703125
-37.53662109375
-43.02978515625
-48.52294921875
-57.67822265625
-58.59375
-47.607421875
-39.36767578125
-38.4521484375
-36.62109375
-30.21240234375
-29.296875
-39.36767578125
-48.52294921875
-42.1142578125
-43.02978515625
-41.19873046875
-33.87451171875
-37.53662109375
-53.1005859375
-62.255859375
-52.18505859375
-45.7763671875
-52.18505859375
-49.4384765625
-49.4384765625
-47.607421875
-48.52294921875
-54.01611328125
-58.59375
-51.26953125
-41.19873046875
-47.607421875
-45.7763671875
-46.69189453125
-43.02978515625
-34.7900390625
-39.36767578125
-38.4521484375
-32.04345703125
-42.1142578125
-51.26953125
-45.7763671875
-33.87451171875
-45.7763671875
-53.1005859375
-55.84716796875
-66.83349609375
-63.17138671875
-58.59375
-52.18505859375
-56.7626953125
-59.50927734375
-65.00244140625
-74.15771484375
-75.0732421875
-75.98876953125
-77.81982421875
-83.31298828125
-77.81982421875
-80.56640625
-73.2421875
-65.91796875
-62.255859375
-62.255859375
-49.4384765625
-39.36767578125
-39.36767578125
-42.1142578125
-43.02978515625
-54.931640625
-58.59375
-60.4248046875
-54.01611328125
-53.1005859375
-61.34033203125
-75.0732421875
-75.98876953125
-68.66455078125
-65.91796875
-64.0869140625
-68.66455078125
-86.97509765625
-68.66455078125
-77.81982421875
-76.904296875
-66.83349609375
-70.49560546875
-64.0869140625
-56.7626953125
-76.904296875
-79.65087890625
-78.7353515625
-73.2421875
-70.49560546875
-65.91796875
-64.0869140625
-64.0869140625
-65.91796875
-48.52294921875
-41.19873046875
-43.02978515625
-46.69189453125
-46.69189453125
-43.9453125
-37.53662109375
-23.8037109375
-22.88818359375
-25.634765625
-28.38134765625
-11.90185546875
-10.07080078125
-8.23974609375
-1.8310546875
7.32421875
14.6484375
8.23974609375
10.07080078125
9.1552734375
18.310546875
5.4931640625
-6.40869140625
1.8310546875
3.662109375
-2.74658203125
-11.90185546875
-10.986328125
-6.40869140625
-7.32421875
-25.634765625
-39.36767578125
-43.9453125
-37.53662109375
-46.69189453125
-60.4248046875
-65.91796875
-57.67822265625
-55.84716796875
-73.2421875
-82.3974609375
-70.49560546875
-52.18505859375
-71.4111328125
-80.56640625
-67.7490234375
-68.66455078125
-69.580078125
-72.32666015625
-76.904296875
-85.14404296875
-88.80615234375
-86.0595703125
-69.580078125
-88.80615234375
-89.7216796875
-79.65087890625
-77.81982421875
-85.14404296875
-84.228515625
-77.81982421875
-77.81982421875
-79.65087890625
-77.81982421875
-78.7353515625
-89.7216796875
-90.63720703125
-84.228515625
-87.890625
-92.46826171875
-85.14404296875
-82.3974609375
-84.228515625
-81.48193359375
-93.3837890625
-106.201171875
-126.3427734375
-166.6259765625
-209.65576171875
-207.82470703125
-184.9365234375
-145.56884765625
-97.96142578125
-43.9453125
4.57763671875
67.7490234375
148.3154296875
219.7265625
289.306640625
367.12646484375
485.2294921875
603.33251953125
710.44921875
811.1572265625
826.72119140625
742.49267578125
613.4033203125
461.42578125
402.83203125
326.84326171875
227.05078125
142.822265625
69.580078125
-2.74658203125
-24.71923828125
-36.62109375
-43.02978515625
-43.9453125
-12.8173828125
10.986328125
19.22607421875
26.55029296875
15.56396484375
10.07080078125
13.73291015625
-13.73291015625
-19.22607421875
-21.97265625
-31.1279296875
-27.4658203125
-21.97265625
-21.97265625
-15.56396484375
-13.73291015625
-19.22607421875
-18.310546875
-29.296875
-32.04345703125
-28.38134765625
-28.38134765625
-30.21240234375
-25.634765625
-24.71923828125
-17.39501953125
-26.55029296875
-15.56396484375
-14.6484375
-13.73291015625
-7.32421875
-12.8173828125
-26.55029296875
-27.4658203125
-21.05712890625
-24.71923828125
-18.310546875
-20.1416015625
-10.07080078125
-10.07080078125
-19.22607421875
-13.73291015625
-20.1416015625
-17.39501953125
-16.4794921875
-18.310546875
-11.90185546875
10.986328125
2.74658203125
-11.90185546875
-0.91552734375
9.1552734375
2.74658203125
0.91552734375
-1.8310546875
-1.8310546875
5.4931640625
-0.91552734375
-5.4931640625
-7.32421875
-0.91552734375
9.1552734375
15.56396484375
23.8037109375
27.4658203125
17.39501953125
43.9453125
44.86083984375
21.97265625
38.4521484375
45.7763671875
33.87451171875
34.7900390625
42.1142578125
45.7763671875
54.931640625
64.0869140625
64.0869140625
54.01611328125
58.59375
59.50927734375
61.34033203125
61.34033203125
64.0869140625
55.84716796875
75.98876953125
94.29931640625
86.0595703125
82.3974609375
86.0595703125
92.46826171875
97.96142578125
106.201171875
104.3701171875
106.201171875
119.93408203125
116.27197265625
110.77880859375
111.6943359375
121.76513671875
122.6806640625
113.525390625
119.93408203125
145.56884765625
139.16015625
143.73779296875
146.484375
153.80859375
151.9775390625
151.06201171875
163.87939453125
167.54150390625
168.45703125
161.1328125
157.470703125
159.3017578125
147.39990234375
133.6669921875
128.173828125
130.0048828125
130.0048828125
106.201171875
112.60986328125
127.25830078125
111.6943359375
106.201171875
96.13037109375
83.31298828125
71.4111328125
66.83349609375
53.1005859375
44.86083984375
35.70556640625
25.634765625
13.73291015625
7.32421875
-3.662109375
-15.56396484375
-16.4794921875
-27.4658203125
-34.7900390625
-22.88818359375
-31.1279296875
-27.4658203125
-29.296875
-38.4521484375
-38.4521484375
-41.19873046875
-46.69189453125
-51.26953125
-41.19873046875
-42.1142578125
-36.62109375
-41.19873046875
-40.283203125
-43.02978515625
-42.1142578125
-43.02978515625
-44.86083984375
-56.7626953125
-61.34033203125
-39.36767578125
-56.7626953125
-55.84716796875
-51.26953125
-53.1005859375
-50.35400390625
-48.52294921875
-54.01611328125
-62.255859375
-58.59375
-52.18505859375
-54.01611328125
-58.59375
-43.9453125
-43.02978515625
-39.36767578125
-46.69189453125
-43.9453125
-43.02978515625
-40.283203125
-39.36767578125
-38.4521484375
-42.1142578125
-43.02978515625
-44.86083984375
-46.69189453125
-59.50927734375
-67.7490234375
-43.9453125
-48.52294921875
-57.67822265625
-60.4248046875
-50.35400390625
-41.19873046875
-40.283203125
-40.283203125
-41.19873046875
-43.02978515625
-46.69189453125
-54.01611328125
-47.607421875
-35.70556640625
-26.55029296875
-32.04345703125
-46.69189453125
-25.634765625
-29.296875
-32.958984375
-25.634765625
-24.71923828125
-25.634765625
-24.71923828125
-23.8037109375
-21.05712890625
-24.71923828125
-37.53662109375
-32.04345703125
-37.53662109375
-40.283203125
-38.4521484375
-43.9453125
-38.4521484375
-30.21240234375
-33.87451171875
-43.02978515625
-43.9453125
-53.1005859375
-53.1005859375
-66.83349609375
-62.255859375
-43.9453125
-36.62109375
-29.296875
-38.4521484375
-51.26953125
-43.9453125
-48.52294921875
-50.35400390625
-53.1005859375
-48.52294921875
-39.36767578125
-49.4384765625
-47.607421875
-54.01611328125
-54.931640625
-66.83349609375
-69.580078125
-59.50927734375
-62.255859375
-64.0869140625
-62.255859375
-55.84716796875
-67.7490234375
-70.49560546875
-54.931640625
-49.4384765625
-41.19873046875
-41.19873046875
-44.86083984375
-52.18505859375
-54.931640625
-51.26953125
-45.7763671875
-43.02978515625
-43.9453125
-50.35400390625
-46.69189453125
-54.931640625
-65.00244140625
-65.91796875
-60.4248046875
-59.50927734375
-54.01611328125
-72.32666015625
-60.4248046875
-67.7490234375
-80.56640625
-65.91796875
-58.59375
-63.17138671875
-64.0869140625
-56.7626953125
-54.01611328125
-48.52294921875
-48.52294921875
-54.01611328125
-59.50927734375
-48.52294921875
-43.9453125
-31.1279296875
-26.55029296875
-38.4521484375
-34.7900390625
-25.634765625
-20.1416015625
-10.986328125
-2.74658203125
-8.23974609375
-3.662109375
6.40869140625
8.23974609375
14.6484375
26.55029296875
8.23974609375
9.1552734375
10.986328125
17.39501953125
20.1416015625
20.1416015625
18.310546875
32.958984375
26.55029296875
25.634765625
26.55029296875
19.22607421875
12.8173828125
-0.91552734375
-17.39501953125
-13.73291015625
-23.8037109375
-33.87451171875
-41.19873046875
-44.86083984375
-43.02978515625
-45.7763671875
-59.50927734375
-52.18505859375
-50.35400390625
-54.01611328125
-54.931640625
-66.83349609375
-64.0869140625
-58.59375
-62.255859375
-54.931640625
-49.4384765625
-53.1005859375
-65.00244140625
-74.15771484375
-69.580078125
-65.91796875
-63.17138671875
-65.91796875
-64.0869140625
-53.1005859375
-61.34033203125
-66.83349609375
-75.98876953125
-70.49560546875
-74.15771484375
-79.65087890625
-62.255859375
-74.15771484375
-73.2421875
-75.98876953125
-78.7353515625
-78.7353515625
-78.7353515625
-60.4248046875
-59.50927734375
-73.2421875
-97.96142578125
-130.0048828125
-171.20361328125
-192.2607421875
-193.17626953125
-177.6123046875
-134.58251953125
-91.552734375
-36.62109375
23.8037109375
79.65087890625
150.146484375
220.64208984375
302.1240234375
392.76123046875
508.11767578125
634.46044921875
751.64794921875
849.609375
857.84912109375
774.5361328125
622.55859375
457.763671875
419.3115234375
370.78857421875
286.56005859375
196.83837890625
124.51171875
71.4111328125
33.87451171875
10.986328125
-10.986328125
-8.23974609375
-2.74658203125
4.57763671875
31.1279296875
20.1416015625
27.4658203125
31.1279296875
23.8037109375
8.23974609375
-11.90185546875
0
-15.56396484375
-22.88818359375
-24.71923828125
-26.55029296875
-19.22607421875
-14.6484375
-17.39501953125
-9.1552734375
2.74658203125
5.4931640625
3.662109375
3.662109375
-2.74658203125
-6.40869140625
-15.56396484375
-26.55029296875
-25.634765625
-27.4658203125
-22.88818359375
-11.90185546875
-9.1552734375
-20.1416015625
-18.310546875
-3.662109375
-7.32421875
-14.6484375
-18.310546875
-17.39501953125
-10.07080078125
-10.986328125
-7.32421875
-2.74658203125
-2.74658203125
-2.74658203125
10.986328125
10.986328125
7.32421875
3.662109375
12.8173828125
7.32421875
0
-7.32421875
-7.32421875
8.23974609375
11.90185546875
4.57763671875
12.8173828125
8.23974609375
17.39501953125
47.607421875
44.86083984375
43.9453125
42.1142578125
55.84716796875
59.50927734375
49.4384765625
53.1005859375
43.9453125
40.283203125
39.36767578125
40.283203125
47.607421875
54.01611328125
52.18505859375
51.26953125
54.931640625
63.17138671875
65.91796875
65.91796875
75.0732421875
74.15771484375
61.34033203125
82.3974609375
87.890625
80.56640625
78.7353515625
80.56640625
89.7216796875
88.80615234375
92.46826171875
92.46826171875
97.0458984375
108.0322265625
108.94775390625
103.45458984375
114.44091796875
120.849609375
119.0185546875
126.3427734375
134.58251953125
132.75146484375
133.6669921875
138.24462890625
150.146484375
159.3017578125
151.06201171875
153.80859375
158.38623046875
161.1328125
158.38623046875
144.6533203125
146.484375
164.794921875
162.9638671875
152.89306640625
148.3154296875
147.39990234375
155.6396484375
157.470703125
151.06201171875
151.9775390625
142.822265625
135.498046875
130.0048828125
122.6806640625
108.0322265625
103.45458984375
107.11669921875
97.0458984375
90.63720703125
75.98876953125
57.67822265625
43.02978515625
37.53662109375
32.958984375
21.05712890625
19.22607421875
13.73291015625
5.4931640625
0.91552734375
9.1552734375
5.4931640625
-5.4931640625
-13.73291015625
-17.39501953125
-14.6484375
-24.71923828125
-28.38134765625
-26.55029296875
-23.8037109375
-23.8037109375
-32.04345703125
-27.4658203125
-25.634765625
-28.38134765625
-30.21240234375
-35.70556640625
-43.9453125
-49.4384765625
-52.18505859375
-45.7763671875
-47.607421875
-41.19873046875
-43.02978515625
-36.62109375
-42.1142578125
-57.67822265625
-48.52294921875
-42.1142578125
-50.35400390625
-29.296875
-33.87451171875
-31.1279296875
-33.87451171875
-29.296875
-17.39501953125
-21.97265625
-25.634765625
-33.87451171875
-37.53662109375
-39.36767578125
-31.1279296875
-32.04345703125
-29.296875
-14.6484375
-12.8173828125
-13.73291015625
-27.4658203125
-33.87451171875
-36.62109375
-29.296875
-26.55029296875
-32.04345703125
-34.7900390625
-38.4521484375
-18.310546875
-10.07080078125
-16.4794921875
-16.4794921875
-21.05712890625
-21.05712890625
-32.958984375
-41.19873046875
-30.21240234375
-29.296875
-24.71923828125
-25.634765625
-30.21240234375
-38.4521484375
-38.4521484375
-40.283203125
-43.9453125
-39.36767578125
-37.53662109375
-38.4521484375
-38.4521484375
-38.4521484375
-24.71923828125
-16.4794921875
-20.1416015625
-16.4794921875
-15.56396484375
-19.22607421875
-32.04345703125
-22.88818359375
-13.73291015625
-14.6484375
-18.310546875
-14.6484375
-17.39501953125
-30.21240234375
-38.4521484375
-47.607421875
-40.283203125
-32.04345703125
-43.02978515625
-43.9453125
-49.4384765625
-51.26953125
-52.18505859375
-38.4521484375
-31.1279296875
-36.62109375
-36.62109375
-45.7763671875
-46.69189453125
-46.69189453125
-58.59375
-54.931640625
-47.607421875
-24.71923828125
-32.958984375
-56.7626953125
-52.18505859375
-38.4521484375
-33.87451171875
-38.4521484375
-32.958984375
-36.62109375
-38.4521484375
-37.53662109375
-50.35400390625
-45.7763671875
-49.4384765625
-59.50927734375
-56.7626953125
-54.01611328125
-56.7626953125
-57.67822265625
-60.4248046875
-49.4384765625
-32.04345703125
-42.1142578125
-51.26953125
-54.01611328125
-45.7763671875
-32.958984375
-37.53662109375
-34.7900390625
-36.62109375
-33.87451171875
-27.4658203125
-39.36767578125
-38.4521484375
-22.88818359375
-7.32421875
-1.8310546875
-2.74658203125
-7.32421875
0
-0.91552734375
-2.74658203125
-2.74658203125
-18.310546875
-2.74658203125
19.22607421875
15.56396484375
24.71923828125
34.7900390625
33.87451171875
34.7900390625
35.70556640625
29.296875
28.38134765625
26.55029296875
15.56396484375
8.23974609375
15.56396484375
15.56396484375
7.32421875
14.6484375
18.310546875
10.986328125
-5.4931640625
-10.986328125
-14.6484375
-6.40869140625
-19.22607421875
-27.4658203125
-26.55029296875
-28.38134765625
-42.1142578125
-46.69189453125
-51.26953125
-51.26953125
-41.19873046875
-40.283203125
-36.62109375
-43.02978515625
-40.283203125
-40.283203125
-43.02978515625
-43.9453125
-58.59375
-59.50927734375
-60.4248046875
-57.67822265625
-56.7626953125
-64.0869140625
-60.4248046875
-68.66455078125
-68.66455078125
-86.97509765625
-95.21484375
-75.98876953125
-79.65087890625
-66.83349609375
-55.84716796875
-54.931640625
-57.67822265625
-56.7626953125
-59.50927734375
-54.01611328125
-53.1005859375
-64.0869140625
-68.66455078125
-80.56640625
-84.228515625
-105.28564453125
-144.6533203125
-179.443359375
-192.2607421875
-186.767578125
-158.38623046875
-108.94775390625
-63.17138671875
-6.40869140625
31.1279296875
99.79248046875
194.091796875
269.1650390625
335.0830078125
429.38232421875
544.73876953125
640.869140625
747.0703125
819.39697265625
804.74853515625
698.54736328125
539.24560546875
417.48046875
375.3662109375
299.37744140625
211.48681640625
140.07568359375
75.98876953125
26.55029296875
-11.90185546875
-11.90185546875
-20.1416015625
-18.310546875
-7.32421875
9.1552734375
12.8173828125
24.71923828125
19.22607421875
21.97265625
13.73291015625
0.91552734375
3.662109375
-2.74658203125
-5.4931640625
-4.57763671875
-13.73291015625
-20.1416015625
-12.8173828125
-10.986328125
-18.310546875
-23.8037109375
-18.310546875
-17.39501953125
-15.56396484375
-8.23974609375
-15.56396484375
-24.71923828125
-5.4931640625
-10.07080078125
-4.57763671875
-10.986328125
-14.6484375
-13.73291015625
-7.32421875
2.74658203125
-1.8310546875
1.8310546875
-1.8310546875
-4.57763671875
-6.40869140625
-1.8310546875
-3.662109375
-16.4794921875
-8.23974609375
1.8310546875
17.39501953125
22.88818359375
17.39501953125
11.90185546875
7.32421875
-12.8173828125
-10.07080078125
0.91552734375
1.8310546875
10.986328125
16.4794921875
22.88818359375
21.05712890625
27.4658203125
26.55029296875
23.8037109375
24.71923828125
27.4658203125
32.958984375
32.958984375
38.4521484375
43.02978515625
45.7763671875
43.02978515625
45.7763671875
44.86083984375
53.1005859375
56.7626953125
53.1005859375
43.9453125
44.86083984375
52.18505859375
48.52294921875
54.01611328125
54.931640625
56.7626953125
52.18505859375
50.35400390625
57.67822265625
74.15771484375
92.46826171875
90.63720703125
89.7216796875
89.7216796875
100.7080078125
101.62353515625
105.28564453125
109.86328125
119.93408203125
114.44091796875
107.11669921875
107.11669921875
117.1875
111.6943359375
112.60986328125
114.44091796875
117.1875
123.59619140625
129.08935546875
146.484375
147.39990234375
154.72412109375
156.55517578125
150.146484375
153.80859375
167.54150390625
173.03466796875
180.35888671875
167.54150390625
170.2880859375
159.3017578125
161.1328125
173.9501953125
173.9501953125
170.2880859375
167.54150390625
156.55517578125
151.9775390625
149.23095703125
150.146484375
133.6669921875
119.93408203125
115.3564453125
105.28564453125
103.45458984375
101.62353515625
75.98876953125
57.67822265625
48.52294921875
53.1005859375
45.7763671875
35.70556640625
35.70556640625
36.62109375
14.6484375
11.90185546875
18.310546875
1.8310546875
-10.986328125
-6.40869140625
-10.986328125
-14.6484375
-19.22607421875
-15.56396484375
-27.4658203125
-35.70556640625
-36.62109375
-29.296875
-21.97265625
-20.1416015625
-28.38134765625
-26.55029296875
-23.8037109375
-20.1416015625
-29.296875
-42.1142578125
-39.36767578125
-31.1279296875
-44.86083984375
-49.4384765625
-46.69189453125
-60.4248046875
-60.4248046875
-44.86083984375
-37.53662109375
-30.21240234375
-20.1416015625
-21.05712890625
-30.21240234375
-21.97265625
-19.22607421875
-32.958984375
-40.283203125
-23.8037109375
-10.07080078125
-17.39501953125
-22.88818359375
-32.04345703125
-42.1142578125
-41.19873046875
-27.4658203125
-43.02978515625
-49.4384765625
-39.36767578125
-42.1142578125
-39.36767578125
-31.1279296875
-35.70556640625
-34.7900390625
-32.958984375
-31.1279296875
-32.958984375
-22.88818359375
-23.8037109375
-23.8037109375
-24.71923828125
-21.97265625
-28.38134765625
-31.1279296875
-32.04345703125
-23.8037109375
-25.634765625
-33.87451171875
-27.4658203125
-33.87451171875
-32.04345703125
-27.4658203125
-18.310546875
-21.97265625
-32.958984375
-12.8173828125
-13.73291015625
-21.05712890625
-12.8173828125
-13.73291015625
-23.8037109375
-33.87451171875
-30.21240234375
-23.8037109375
-26.55029296875
-27.4658203125
-29.296875
-32.04345703125
-26.55029296875
-32.958984375
-34.7900390625
-41.19873046875
-45.7763671875
-48.52294921875
-39.36767578125
-48.52294921875
-54.01611328125
-33.87451171875
-30.21240234375
-30.21240234375
-32.04345703125
-38.4521484375
-32.958984375
-44.86083984375
-47.607421875
-50.35400390625
-58.59375
-53.1005859375
-44.86083984375
-41.19873046875
-48.52294921875
-51.26953125
-48.52294921875
-52.18505859375
-43.02978515625
-38.4521484375
-42.1142578125
-39.36767578125
-43.9453125
-57.67822265625
-29.296875
-34.7900390625
-40.283203125
-36.62109375
-40.283203125
-44.86083984375
-59.50927734375
-52.18505859375
-53.1005859375
-62.255859375
-62.255859375
-59.50927734375
-66.83349609375
-59.50927734375
-53.1005859375
-54.931640625
-56.7626953125
-51.26953125
-47.607421875
-49.4384765625
-53.1005859375
-49.4384765625
-46.69189453125
-50.35400390625
-47.607421875
-45.7763671875
-52.18505859375
-70.49560546875
-66.83349609375
-52.18505859375
-52.18505859375
-49.4384765625
-51.26953125
-43.9453125
-41.19873046875
-42.1142578125
-36.62109375
-29.296875
-28.38134765625
-17.39501953125
-6.40869140625
-5.4931640625
-10.07080078125
-1.8310546875
-3.662109375
-13.73291015625
-28.38134765625
-31.1279296875
-2.74658203125
3.662109375
1.8310546875
6.40869140625
22.88818359375
32.04345703125
23.8037109375
18.310546875
24.71923828125
30.21240234375
31.1279296875
32.958984375
23.8037109375
21.97265625
31.1279296875
33.87451171875
21.05712890625
14.6484375
0.91552734375
-7.32421875
-12.8173828125
-21.05712890625
-31.1279296875
-45.7763671875
-58.59375
-46.69189453125
-47.607421875
-58.59375
-62.255859375
-64.0869140625
-69.580078125
-67.7490234375
-62.255859375
-65.91796875
-59.50927734375
-55.84716796875
-48.52294921875
-52.18505859375
-71.4111328125
-78.7353515625
-69.580078125
-63.17138671875
-57.67822265625
-64.0869140625
-64.0869140625
-75.98876953125
-68.66455078125
-66.83349609375
-61.34033203125
-64.0869140625
-75.98876953125
-75.98876953125
-79.65087890625
-73.2421875
-64.0869140625
-64.0869140625
-65.00244140625
-71.4111328125
-65.91796875
-62.255859375
-72.32666015625
-78.7353515625
-77.81982421875
-84.228515625
-107.11669921875
-130.92041015625
-172.119140625
-201.416015625
-188.5986328125
-155.6396484375
-106.201171875
-70.49560546875
-4.57763671875
43.02978515625
103.45458984375
152.89306640625
227.96630859375
314.02587890625
398.25439453125
528.25927734375
641.78466796875
757.14111328125
829.4677734375
816.650390625
709.53369140625
554.8095703125
442.19970703125
389.09912109375
303.03955078125
209.65576171875
136.41357421875
72.32666015625
26.55029296875
0
-30.21240234375
-36.62109375
-21.05712890625
-4.57763671875
13.73291015625
17.39501953125
29.296875
24.71923828125
17.39501953125
12.8173828125
-4.57763671875
-8.23974609375
-17.39501953125
-14.6484375
-6.40869140625
-7.32421875
-10.07080078125
-7.32421875
-9.1552734375
-13.73291015625
-17.39501953125
-17.39501953125
-15.56396484375
-21.05712890625
-12.8173828125
-12.8173828125
-13.73291015625
-5.4931640625
-13.73291015625
-22.88818359375
-29.296875
-36.62109375
-22.88818359375
-16.4794921875
-13.73291015625
-5.4931640625
5.4931640625
-7.32421875
-18.310546875
-13.73291015625
-19.22607421875
-18.310546875
-5.4931640625
0.91552734375
0
3.662109375
-1.8310546875
-2.74658203125
9.1552734375
8.23974609375
10.986328125
4.57763671875
0.91552734375
11.90185546875
1.8310546875
7.32421875
24.71923828125
20.1416015625
16.4794921875
22.88818359375
12.8173828125
12.8173828125
21.05712890625
16.4794921875
20.1416015625
30.21240234375
34.7900390625
36.62109375
43.02978515625
36.62109375
32.958984375
36.62109375
43.9453125
51.26953125
52.18505859375
58.59375
58.59375
62.255859375
67.7490234375
62.255859375
65.00244140625
67.7490234375
62.255859375
51.26953125
64.0869140625
77.81982421875
77.81982421875
86.97509765625
90.63720703125
87.890625
93.3837890625
104.3701171875
103.45458984375
107.11669921875
112.60986328125
111.6943359375
126.3427734375
128.173828125
122.6806640625
113.525390625
118.10302734375
128.173828125
129.08935546875
121.76513671875
115.3564453125
109.86328125
141.90673828125
144.6533203125
145.56884765625
152.89306640625
162.04833984375
163.87939453125
170.2880859375
176.69677734375
172.119140625
168.45703125
174.86572265625
179.443359375
165.71044921875
175.78125
183.10546875
173.03466796875
161.1328125
147.39990234375
137.3291015625
130.92041015625
128.173828125
129.08935546875
125.42724609375
111.6943359375
106.201171875
108.0322265625
97.0458984375
77.81982421875
55.84716796875
58.59375
47.607421875
40.283203125
39.36767578125
37.53662109375
37.53662109375
28.38134765625
18.310546875
4.57763671875
3.662109375
-4.57763671875
-18.310546875
-32.958984375
-33.87451171875
-32.04345703125
-39.36767578125
-44.86083984375
-43.02978515625
-37.53662109375
-27.4658203125
-30.21240234375
-40.283203125
-34.7900390625
-32.04345703125
-32.04345703125
-23.8037109375
-21.97265625
-15.56396484375
-24.71923828125
-27.4658203125
-25.634765625
-31.1279296875
-38.4521484375
-33.87451171875
-32.04345703125
-40.283203125
-27.4658203125
-32.04345703125
-27.4658203125
-30.21240234375
-33.87451171875
-21.05712890625
-16.4794921875
-17.39501953125
-23.8037109375
-22.88818359375
-31.1279296875
-22.88818359375
-17.39501953125
-20.1416015625
-13.73291015625
-9.1552734375
-10.07080078125
-10.07080078125
-9.1552734375
-13.73291015625
-26.55029296875
-25.634765625
-19.22607421875
-18.310546875
-14.6484375
-15.56396484375
-29.296875
-28.38134765625
-29.296875
-23.8037109375
-21.05712890625
-25.634765625
-23.8037109375
-16.4794921875
-35.70556640625
-29.296875
-7.32421875
-10.07080078125
-13.73291015625
-11.90185546875
-18.310546875
-15.56396484375
-11.90185546875
-7.32421875
0.91552734375
-2.74658203125
-14.6484375
-16.4794921875
-16.4794921875
-28.38134765625
-36.62109375
-32.958984375
-25.634765625
-27.4658203125
-33.87451171875
-32.958984375
-26.55029296875
-26.55029296875
-24.71923828125
-28.38134765625
-25.634765625
-25.634765625
-20.1416015625
-20.1416015625
-28.38134765625
-40.283203125
-10.986328125
-16.4794921875
-24.71923828125
-22.88818359375
-26.55029296875
-32.04345703125
-24.71923828125
-35.70556640625
-35.70556640625
-26.55029296875
-32.958984375
-31.1279296875
-31.1279296875
-31.1279296875
-28.38134765625
-30.21240234375
-29.296875
-30.21240234375
-35.70556640625
-28.38134765625
-39.36767578125
-54.931640625
-28.38134765625
-27.4658203125
-32.958984375
-28.38134765625
-34.7900390625
-43.02978515625
-50.35400390625
-39.36767578125
-41.19873046875
-43.9453125
-38.4521484375
-21.05712890625
-23.8037109375
-17.39501953125
-22.88818359375
-33.87451171875
-35.70556640625
-38.4521484375
-45.7763671875
-35.70556640625
-32.958984375
-34.7900390625
-33.87451171875
-36.62109375
-34.7900390625
-38.4521484375
-33.87451171875
-32.958984375
-33.87451171875
-41.19873046875
-51.26953125
-39.36767578125
-31.1279296875
-29.296875
-27.4658203125
-22.88818359375
-26.55029296875
-22.88818359375
-18.310546875
-16.4794921875
-19.22607421875
-10.07080078125
-3.662109375
-11.90185546875
-6.40869140625
-1.8310546875
7.32421875
14.6484375
0.91552734375
5.4931640625
28.38134765625
30.21240234375
32.958984375
39.36767578125
50.35400390625
51.26953125
47.607421875
49.4384765625
46.69189453125
48.52294921875
35.70556640625
36.62109375
32.958984375
35.70556640625
32.958984375
31.1279296875
37.53662109375
33.87451171875
29.296875
25.634765625
17.39501953125
11.90185546875
4.57763671875
-14.6484375
-32.04345703125
-14.6484375
-21.05712890625
-20.1416015625
-18.310546875
-25.634765625
-28.38134765625
-30.21240234375
-35.70556640625
-36.62109375
-41.19873046875
-53.1005859375
-51.26953125
-52.18505859375
-49.4384765625
-43.02978515625
-41.19873046875
-31.1279296875
-41.19873046875
-40.283203125
-45.7763671875
-62.255859375
-63.17138671875
-54.931640625
-55.84716796875
-56.7626953125
-47.607421875
-39.36767578125
-46.69189453125
-48.52294921875
-50.35400390625
-56.7626953125
-59.50927734375
-56.7626953125
-59.50927734375
-70.49560546875
-52.18505859375
-54.931640625
-44.86083984375
-46.69189453125
-59.50927734375
-75.98876953125
-116.27197265625
-158.38623046875
-176.69677734375
-174.86572265625
-129.08935546875
-88.80615234375
-43.02978515625
9.1552734375
57.67822265625
126.3427734375
198.66943359375
273.74267578125
358.88671875
460.51025390625
583.19091796875
694.88525390625
805.6640625
845.03173828125
807.4951171875
690.3076171875
531.92138671875
465.087890625
404.6630859375
306.70166015625
205.078125
133.6669921875
78.7353515625
37.53662109375
7.32421875
-10.07080078125
-9.1552734375
-3.662109375
21.97265625
19.22607421875
23.8037109375
32.958984375
33.87451171875
21.97265625
10.07080078125
5.4931640625
2.74658203125
9.1552734375
10.07080078125
1.8310546875
10.986328125
13.73291015625
12.8173828125
3.662109375
-7.32421875
-10.07080078125
3.662109375
-17.39501953125
-21.97265625
-12.8173828125
-11.90185546875
-13.73291015625
-20.1416015625
-32.958984375
-21.05712890625
-5.4931640625
-5.4931640625
-1.8310546875
-4.57763671875
-0.91552734375
13.73291015625
17.39501953125
10.07080078125
10.986328125
14.6484375
0.91552734375
3.662109375
5.4931640625
-1.8310546875
-6.40869140625
13.73291015625
18.310546875
24.71923828125
24.71923828125
17.39501953125
16.4794921875
30.21240234375
23.8037109375
22.88818359375
23.8037109375
26.55029296875
18.310546875
14.6484375
12.8173828125
16.4794921875
26.55029296875
30.21240234375
30.21240234375
37.53662109375
45.7763671875
42.1142578125
37.53662109375
38.4521484375
27.4658203125
29.296875
29.296875
41.19873046875
62.255859375
66.83349609375
68.66455078125
61.34033203125
58.59375
68.66455078125
63.17138671875
62.255859375
56.7626953125
56.7626953125
55.84716796875
61.34033203125
60.4248046875
71.4111328125
73.2421875
81.48193359375
87.890625
88.80615234375
85.14404296875
87.890625
88.80615234375
93.3837890625
99.79248046875
101.62353515625
108.0322265625
118.10302734375
112.60986328125
126.3427734375
128.173828125
134.58251953125
128.173828125
117.1875
123.59619140625
136.41357421875
142.822265625
149.23095703125
142.822265625
146.484375
142.822265625
143.73779296875
151.06201171875
159.3017578125
158.38623046875
153.80859375
154.72412109375
164.794921875
161.1328125
161.1328125
162.04833984375
156.55517578125
153.80859375
150.146484375
143.73779296875
144.6533203125
127.25830078125
129.08935546875
120.849609375
97.0458984375
101.62353515625
102.5390625
88.80615234375
64.0869140625
50.35400390625
41.19873046875
33.87451171875
28.38134765625
17.39501953125
6.40869140625
-6.40869140625
-1.8310546875
-2.74658203125
7.32421875
5.4931640625
-7.32421875
-14.6484375
-20.1416015625
-29.296875
-21.05712890625
-19.22607421875
-16.4794921875
-25.634765625
-29.296875
-27.4658203125
-37.53662109375
-36.62109375
-29.296875
-25.634765625
-32.958984375
-25.634765625
-21.05712890625
-21.05712890625
-25.634765625
-34.7900390625
-41.19873046875
-37.53662109375
-32.04345703125
-30.21240234375
-25.634765625
-28.38134765625
-30.21240234375
-31.1279296875
-34.7900390625
-33.87451171875
-30.21240234375
-21.05712890625
-12.8173828125
-15.56396484375
-24.71923828125
-41.19873046875
-40.283203125
-32.04345703125
-41.19873046875
-34.7900390625
-35.70556640625
-27.4658203125
-31.1279296875
-38.4521484375
-31.1279296875
-21.05712890625
-28.38134765625
-33.87451171875
-38.4521484375
-40.283203125
-29.296875
-23.8037109375
-29.296875
-43.9453125
-34.7900390625
-30.21240234375
-34.7900390625
-30.21240234375
-27.4658203125
-18.310546875
-28.38134765625
-25.634765625
-21.05712890625
-19.22607421875
-24.71923828125
-27.4658203125
-30.21240234375
-33.87451171875
-26.55029296875
-16.4794921875
-25.634765625
-32.958984375
-32.04345703125
-25.634765625
-31.1279296875
-26.55029296875
-18.310546875
-17.39501953125
-21.05712890625
-37.53662109375
-31.1279296875
-18.310546875
-25.634765625
-33.87451171875
-31.1279296875
-40.283203125
-30.21240234375
-29.296875
-30.21240234375
-35.70556640625
-41.19873046875
-38.4521484375
-43.02978515625
-39.36767578125
-43.02978515625
-44.86083984375
-47.607421875
-43.02978515625
-49.4384765625
-47.607421875
-50.35400390625
-57.67822265625
-71.4111328125
-53.1005859375
-54.01611328125
-66.83349609375
-66.83349609375
-53.1005859375
-43.02978515625
-38.4521484375
-29.296875
-28.38134765625
-41.19873046875
-55.84716796875
-53.1005859375
-54.931640625
-55.84716796875
-58.59375
-43.9453125
-45.7763671875
-42.1142578125
-43.02978515625
-50.35400390625
-43.02978515625
-44.86083984375
-46.69189453125
-54.931640625
-50.35400390625
-51.26953125
-51.26953125
-54.01611328125
-54.931640625
-46.69189453125
-54.01611328125
-68.66455078125
-51.26953125
-41.19873046875
-43.9453125
-44.86083984375
-50.35400390625
-49.4384765625
-45.7763671875
-43.02978515625
-48.52294921875
-54.01611328125
-58.59375
-55.84716796875
-41.19873046875
-32.04345703125
-20.1416015625
-3.662109375
2.74658203125
-4.57763671875
-8.23974609375
-3.662109375
-10.07080078125
-2.74658203125
-15.56396484375
-15.56396484375
13.73291015625
26.55029296875
33.87451171875
39.36767578125
31.1279296875
22.88818359375
30.21240234375
26.55029296875
17.39501953125
5.4931640625
3.662109375
13.73291015625
13.73291015625
7.32421875
8.23974609375
15.56396484375
9.1552734375
6.40869140625
-1.8310546875
7.32421875
-5.4931640625
-15.56396484375
-34.7900390625
-36.62109375
-45.7763671875
-47.607421875
-40.283203125
-42.1142578125
-53.1005859375
-54.01611328125
-58.59375
-65.91796875
-55.84716796875
-63.17138671875
-65.00244140625
-62.255859375
-65.00244140625
-58.59375
-56.7626953125
-58.59375
-47.607421875
-54.931640625
-62.255859375
-63.17138671875
-65.91796875
-59.50927734375
-59.50927734375
-71.4111328125
-70.49560546875
-73.2421875
-75.98876953125
-71.4111328125
-68.66455078125
-67.7490234375
-75.0732421875
-75.0732421875
-65.91796875
-69.580078125
-80.56640625
-69.580078125
-54.931640625
-81.48193359375
-94.29931640625
-109.86328125
-134.58251953125
-184.9365234375
-199.5849609375
-194.091796875
-165.71044921875
-120.849609375
-75.0732421875
-35.70556640625
19.22607421875
87.890625
158.38623046875
239.8681640625
322.265625
404.6630859375
527.34375
654.60205078125
788.26904296875
859.68017578125
837.70751953125
720.52001953125
546.56982421875
444.03076171875
410.15625
342.4072265625
242.61474609375
160.21728515625
92.46826171875
35.70556640625
17.39501953125
8.23974609375
-19.22607421875
-18.310546875
-10.986328125
16.4794921875
16.4794921875
3.662109375
10.07080078125
15.56396484375
13.73291015625
-0.91552734375
-5.4931640625
-13.73291015625
-17.39501953125
-19.22607421875
-14.6484375
-17.39501953125
-17.39501953125
-16.4794921875
-10.986328125
-21.05712890625
-25.634765625
-25.634765625
-32.958984375
-32.958984375
-45.7763671875
-34.7900390625
-22.88818359375
-34.7900390625
-27.4658203125
-8.23974609375
7.32421875
0
-4.57763671875
-12.8173828125
-23.8037109375
-17.39501953125
-24.71923828125
-27.4658203125
-26.55029296875
-23.8037109375
-11.90185546875
-8.23974609375
-13.73291015625
-11.90185546875
-7.32421875
2.74658203125
17.39501953125
6.40869140625
2.74658203125
0.91552734375
10.07080078125
10.986328125
8.23974609375
0.91552734375
5.4931640625
15.56396484375
4.57763671875
10.07080078125
21.05712890625
28.38134765625
27.4658203125
31.1279296875
35.70556640625
34.7900390625
41.19873046875
31.1279296875
37.53662109375
33.87451171875
29.296875
33.87451171875
31.1279296875
17.39501953125
18.310546875
32.958984375
40.283203125
49.4384765625
54.01611328125
48.52294921875
38.4521484375
46.69189453125
53.1005859375
48.52294921875
50.35400390625
57.67822265625
65.00244140625
71.4111328125
66.83349609375
73.2421875
77.81982421875
76.904296875
65.00244140625
78.7353515625
91.552734375
82.3974609375
98.876953125
109.86328125
115.3564453125
114.44091796875
112.60986328125
115.3564453125
110.77880859375
105.28564453125
101.62353515625
104.3701171875
113.525390625
122.6806640625
132.75146484375
138.24462890625
136.41357421875
136.41357421875
141.90673828125
148.3154296875
150.146484375
152.89306640625
150.146484375
146.484375
144.6533203125
131.8359375
141.90673828125
147.39990234375
140.9912109375
131.8359375
124.51171875
118.10302734375
112.60986328125
110.77880859375
103.45458984375
98.876953125
87.890625
81.48193359375
74.15771484375
65.00244140625
59.50927734375
58.59375
54.01611328125
39.36767578125
31.1279296875
24.71923828125
9.1552734375
3.662109375
11.90185546875
-2.74658203125
-7.32421875
-2.74658203125
-9.1552734375
-23.8037109375
-32.04345703125
-25.634765625
-44.86083984375
-49.4384765625
-47.607421875
-38.4521484375
-43.9453125
-42.1142578125
-31.1279296875
-28.38134765625
-37.53662109375
-47.607421875
-43.9453125
-37.53662109375
-42.1142578125
-46.69189453125
-48.52294921875
-51.26953125
-54.01611328125
-54.931640625
-55.84716796875
-50.35400390625
-40.283203125
-33.87451171875
-34.7900390625
-32.04345703125
-37.53662109375
-38.4521484375
-35.70556640625
-43.02978515625
-54.01611328125
-62.255859375
-49.4384765625
-43.9453125
-41.19873046875
-43.02978515625
-40.283203125
-36.62109375
-19.22607421875
-20.1416015625
-24.71923828125
-33.87451171875
-33.87451171875
-29.296875
-34.7900390625
-32.958984375
-33.87451171875
-35.70556640625
-32.958984375
-32.04345703125
-33.87451171875
-39.36767578125
-39.36767578125
-45.7763671875
-43.9453125
-43.9453125
-49.4384765625
-43.9453125
-46.69189453125
-52.18505859375
-28.38134765625
-29.296875
-32.04345703125
-35.70556640625
-35.70556640625
-37.53662109375
-37.53662109375
-23.8037109375
-27.4658203125
-35.70556640625
-34.7900390625
-37.53662109375
-39.36767578125
-41.19873046875
-40.283203125
-45.7763671875
-32.958984375
-29.296875
-40.283203125
-39.36767578125
-38.4521484375
-34.7900390625
-39.36767578125
-49.4384765625
-47.607421875
-56.7626953125
-62.255859375
-52.18505859375
-45.7763671875
-46.69189453125
-54.931640625
-60.4248046875
-53.1005859375
-52.18505859375
-50.35400390625
-54.01611328125
-52.18505859375
-43.02978515625
-43.9453125
-54.01611328125
-60.4248046875
-54.01611328125
-57.67822265625
-61.34033203125
-69.580078125
-74.15771484375
-70.49560546875
-70.49560546875
-60.4248046875
-59.50927734375
-54.01611328125
-51.26953125
-58.59375
-59.50927734375
-71.4111328125
-68.66455078125
-69.580078125
-69.580078125
-72.32666015625
-73.2421875
-77.81982421875
-81.48193359375
-72.32666015625
-69.580078125
-65.00244140625
-64.0869140625
-71.4111328125
-74.15771484375
-69.580078125
-70.49560546875
-65.00244140625
-54.931640625
-64.0869140625
-60.4248046875
-53.1005859375
-61.34033203125
-62.255859375
-62.255859375
-58.59375
-58.59375
-59.50927734375
-64.0869140625
-59.50927734375
-53.1005859375
-58.59375
-60.4248046875
-43.9453125
-24.71923828125
-21.05712890625
-18.310546875
-18.310546875
-21.97265625
-21.05712890625
-21.97265625
-10.986328125
-19.22607421875
-15.56396484375
-3.662109375
7.32421875
12.8173828125
18.310546875
17.39501953125
17.39501953125
11.90185546875
9.1552734375
12.8173828125
-2.74658203125
2.74658203125
14.6484375
10.986328125
0
-3.662109375
1.8310546875
-2.74658203125
-19.22607421875
-30.21240234375
-25.634765625
-22.88818359375
-27.4658203125
-28.38134765625
-33.87451171875
-43.02978515625
-52.18505859375
-59.50927734375
-61.34033203125
-63.17138671875
-65.91796875
-67.7490234375
-65.00244140625
-59.50927734375
-67.7490234375
-70.49560546875
-67.7490234375
-68.66455078125
-76.904296875
-76.904296875
-82.3974609375
-77.81982421875
-75.98876953125
-86.0595703125
-86.97509765625
-68.66455078125
-77.81982421875
-84.228515625
-81.48193359375
-76.904296875
-77.81982421875
-84.228515625
-84.228515625
-77.81982421875
-83.31298828125
-91.552734375
-87.890625
-85.14404296875
-87.890625
-81.48193359375
-78.7353515625
-78.7353515625
-77.81982421875
-96.13037109375
-126.3427734375
-165.71044921875
-197.75390625
-219.7265625
-216.064453125
-170.2880859375
-129.08935546875
-75.0732421875
-10.986328125
33.87451171875
86.97509765625
164.794921875
237.12158203125
325.01220703125
444.03076171875
562.1337890625
671.08154296875
776.3671875
822.1435546875
789.1845703125
664.6728515625
493.46923828125
415.6494140625
371.7041015625
280.1513671875
175.78125
98.876953125
47.607421875
3.662109375
-21.97265625
-38.4521484375
-43.02978515625
-35.70556640625
-16.4794921875
-5.4931640625
-4.57763671875
6.40869140625
7.32421875
3.662109375
-7.32421875
-23.8037109375
-27.4658203125
-30.21240234375
-42.1142578125
-41.19873046875
-43.02978515625
-60.4248046875
-37.53662109375
-31.1279296875
-45.7763671875
-38.4521484375
-29.296875
-21.97265625
-17.39501953125
-18.310546875
-16.4794921875
-26.55029296875
-41.19873046875
-45.7763671875
-38.4521484375
-38.4521484375
-44.86083984375
-31.1279296875
-21.97265625
-26.55029296875
-31.1279296875
-38.4521484375
-24.71923828125
-26.55029296875
-30.21240234375
-21.05712890625
-18.310546875
-13.73291015625
-10.986328125
-15.56396484375
-3.662109375
-4.57763671875
0
-2.74658203125
-18.310546875
-11.90185546875
-0.91552734375
-12.8173828125
10.07080078125
14.6484375
13.73291015625
15.56396484375
17.39501953125
11.90185546875
6.40869140625
5.4931640625
8.23974609375
17.39501953125
17.39501953125
6.40869140625
18.310546875
14.6484375
16.4794921875
21.97265625
31.1279296875
30.21240234375
19.22607421875
26.55029296875
32.04345703125
38.4521484375
43.02978515625
43.9453125
43.02978515625
45.7763671875
56.7626953125
58.59375
62.255859375
49.4384765625
45.7763671875
68.66455078125
71.4111328125
70.49560546875
74.15771484375
76.904296875
75.0732421875
86.0595703125
96.13037109375
94.29931640625
90.63720703125
88.80615234375
84.228515625
78.7353515625
84.228515625
100.7080078125
107.11669921875
108.0322265625
116.27197265625
124.51171875
119.0185546875
106.201171875
120.849609375
130.92041015625
125.42724609375
128.173828125
126.3427734375
134.58251953125
148.3154296875
158.38623046875
154.72412109375
157.470703125
156.55517578125
152.89306640625
149.23095703125
152.89306640625
149.23095703125
142.822265625
142.822265625
140.9912109375
135.498046875
123.59619140625
113.525390625
94.29931640625
93.3837890625
95.21484375
84.228515625
74.15771484375
61.34033203125
70.49560546875
65.00244140625
58.59375
44.86083984375
36.62109375
20.1416015625
13.73291015625
11.90185546875
-6.40869140625
-10.07080078125
-19.22607421875
-13.73291015625
-19.22607421875
-21.97265625
-24.71923828125
-31.1279296875
-35.70556640625
-36.62109375
-38.4521484375
-44.86083984375
-41.19873046875
-42.1142578125
-42.1142578125
-43.9453125
-53.1005859375
-47.607421875
-43.9453125
-48.52294921875
-53.1005859375
-67.7490234375
-53.1005859375
-43.02978515625
-55.84716796875
-52.18505859375
-50.35400390625
-60.4248046875
-64.0869140625
-61.34033203125
-48.52294921875
-52.18505859375
-44.86083984375
-48.52294921875
-48.52294921875
-48.52294921875
-39.36767578125
-41.19873046875
-43.02978515625
-55.84716796875
-52.18505859375
-40.283203125
-33.87451171875
-42.1142578125
-43.9453125
-45.7763671875
-48.52294921875
-61.34033203125
-67.7490234375
-40.283203125
-43.02978515625
-43.02978515625
-35.70556640625
-37.53662109375
-43.02978515625
-43.9453125
-43.9453125
-39.36767578125
-37.53662109375
-46.69189453125
-49.4384765625
-47.607421875
-43.9453125
-38.4521484375
-32.958984375
-48.52294921875
-45.7763671875
-46.69189453125
-46.69189453125
-43.9453125
-41.19873046875
-43.9453125
-53.1005859375
-63.17138671875
-68.66455078125
-70.49560546875
-47.607421875
-45.7763671875
-48.52294921875
-43.02978515625
-37.53662109375
-45.7763671875
-47.607421875
-53.1005859375
-45.7763671875
-44.86083984375
-52.18505859375
-54.931640625
-56.7626953125
-58.59375
-61.34033203125
-52.18505859375
-44.86083984375
-49.4384765625
-54.01611328125
-53.1005859375
-54.931640625
-52.18505859375
-62.255859375
-48.52294921875
-48.52294921875
-54.931640625
-51.26953125
-53.1005859375
-60.4248046875
-64.0869140625
-62.255859375
-68.66455078125
-68.66455078125
-59.50927734375
-64.0869140625
-67.7490234375
-65.00244140625
-66.83349609375
-69.580078125
-63.17138671875
-63.17138671875
-69.580078125
-68.66455078125
-67.7490234375
-63.17138671875
-56.7626953125
-54.01611328125
-61.34033203125
-60.4248046875
-73.2421875
-63.17138671875
-65.00244140625
-79.65087890625
-82.3974609375
-81.48193359375
-80.56640625
-87.890625
-86.97509765625
-72.32666015625
-71.4111328125
-67.7490234375
-76.904296875
-75.0732421875
-60.4248046875
-58.59375
-65.00244140625
-66.83349609375
-64.0869140625
-72.32666015625
-82.3974609375
-75.98876953125
-69.580078125
-73.2421875
-65.00244140625
-55.84716796875
-69.580078125
-54.931640625
-34.7900390625
-32.04345703125
-24.71923828125
-24.71923828125
-16.4794921875
-10.07080078125
-15.56396484375
-15.56396484375
-13.73291015625
-9.1552734375
-5.4931640625
4.57763671875
14.6484375
25.634765625
29.296875
24.71923828125
27.4658203125
27.4658203125
25.634765625
22.88818359375
11.90185546875
4.57763671875
-2.74658203125
-4.57763671875
11.90185546875
5.4931640625
-2.74658203125
-10.07080078125
-14.6484375
-21.05712890625
-32.04345703125
-38.4521484375
-41.19873046875
-47.607421875
-54.01611328125
-59.50927734375
-54.931640625
-65.91796875
-70.49560546875
-75.0732421875
-81.48193359375
-87.890625
-84.228515625
-83.31298828125
-87.890625
-80.56640625
-62.255859375
-64.0869140625
-65.00244140625
-68.66455078125
-74.15771484375
-75.98876953125
-79.65087890625
-97.0458984375
-91.552734375
-70.49560546875
-76.904296875
-81.48193359375
-83.31298828125
-77.81982421875
-87.890625
-89.7216796875
-88.80615234375
-96.13037109375
-94.29931640625
-82.3974609375
-81.48193359375
-89.7216796875
-90.63720703125
-85.14404296875
-84.228515625
-86.0595703125
-91.552734375
-99.79248046875
-118.10302734375
-161.1328125
-195.9228515625
-201.416015625
-184.02099609375
-129.08935546875
-79.65087890625
-31.1279296875
13.73291015625
75.98876953125
141.90673828125
220.64208984375
306.70166015625
397.3388671875
516.357421875
632.62939453125
747.0703125
825.8056640625
821.22802734375
724.18212890625
556.640625
429.38232421875
379.0283203125
299.37744140625
205.99365234375
128.173828125
66.83349609375
23.8037109375
-6.40869140625
-22.88818359375
-37.53662109375
-32.04345703125
-17.39501953125
-0.91552734375
-3.662109375
-6.40869140625
-6.40869140625
11.90185546875
-6.40869140625
-27.4658203125
-28.38134765625
-31.1279296875
-32.04345703125
-32.958984375
-36.62109375
-24.71923828125
-20.1416015625
-28.38134765625
-30.21240234375
-34.7900390625
-28.38134765625
-26.55029296875
-38.4521484375
-45.7763671875
-30.21240234375
-27.4658203125
-23.8037109375
-21.05712890625
-23.8037109375
-24.71923828125
-33.87451171875
-42.1142578125
-29.296875
-20.1416015625
-22.88818359375
-18.310546875
-10.07080078125
-10.07080078125
0.91552734375
3.662109375
-10.986328125
-14.6484375
-12.8173828125
-11.90185546875
-17.39501953125
-19.22607421875
-11.90185546875
-5.4931640625
-6.40869140625
-11.90185546875
-6.40869140625
-11.90185546875
-1.8310546875
0.91552734375
-2.74658203125
2.74658203125
-1.8310546875
1.8310546875
11.90185546875
17.39501953125
13.73291015625
20.1416015625
29.296875
32.958984375
32.04345703125
34.7900390625
28.38134765625
23.8037109375
18.310546875
16.4794921875
21.05712890625
26.55029296875
10.07080078125
23.8037109375
25.634765625
32.958984375
30.21240234375
26.55029296875
43.9453125
54.01611328125
56.7626953125
61.34033203125
64.0869140625
67.7490234375
65.91796875
66.83349609375
72.32666015625
78.7353515625
85.14404296875
90.63720703125
89.7216796875
98.876953125
96.13037109375
98.876953125
101.62353515625
104.3701171875
114.44091796875
117.1875
104.3701171875
108.94775390625
116.27197265625
111.6943359375
119.93408203125
137.3291015625
139.16015625
144.6533203125
141.90673828125
149.23095703125
154.72412109375
155.6396484375
151.9775390625
140.07568359375
125.42724609375
144.6533203125
153.80859375
147.39990234375
156.55517578125
169.37255859375
160.21728515625
160.21728515625
155.6396484375
149.23095703125
139.16015625
128.173828125
120.849609375
120.849609375
116.27197265625
110.77880859375
106.201171875
97.96142578125
88.80615234375
77.81982421875
78.7353515625
63.17138671875
49.4384765625
42.1142578125
31.1279296875
21.97265625
25.634765625
15.56396484375
10.07080078125
2.74658203125
0
0
-14.6484375
-21.97265625
-19.22607421875
-22.88818359375
-38.4521484375
-25.634765625
-31.1279296875
-38.4521484375
-34.7900390625
-36.62109375
-44.86083984375
-43.02978515625
-41.19873046875
-37.53662109375
-25.634765625
-23.8037109375
-17.39501953125
-21.97265625
-26.55029296875
-32.958984375
-34.7900390625
-43.02978515625
-47.607421875
-51.26953125
-51.26953125
-54.01611328125
-47.607421875
-36.62109375
-26.55029296875
-25.634765625
-26.55029296875
-36.62109375
-39.36767578125
-36.62109375
-37.53662109375
-43.02978515625
-39.36767578125
-38.4521484375
-44.86083984375
-48.52294921875
-57.67822265625
-52.18505859375
-26.55029296875
-18.310546875
-23.8037109375
-22.88818359375
-18.310546875
-21.05712890625
-22.88818359375
-33.87451171875
-31.1279296875
-31.1279296875
-28.38134765625
-19.22607421875
-22.88818359375
-24.71923828125
-25.634765625
-24.71923828125
-23.8037109375
-22.88818359375
-26.55029296875
-22.88818359375
-22.88818359375
-22.88818359375
-31.1279296875
-27.4658203125
-32.958984375
-29.296875
-24.71923828125
-17.39501953125
-18.310546875
-23.8037109375
-36.62109375
-43.02978515625
-40.283203125
-42.1142578125
-45.7763671875
-32.958984375
-43.02978515625
-46.69189453125
-39.36767578125
-47.607421875
-31.1279296875
-31.1279296875
-28.38134765625
-30.21240234375
-32.958984375
-34.7900390625
-45.7763671875
-49.4384765625
-45.7763671875
-52.18505859375
-48.52294921875
-55.84716796875
-55.84716796875
-52.18505859375
-49.4384765625
-45.7763671875
-41.19873046875
-43.9453125
-36.62109375
-35.70556640625
-37.53662109375
-43.02978515625
-40.283203125
-40.283203125
-35.70556640625
-32.04345703125
-29.296875
-35.70556640625
-43.9453125
-49.4384765625
-50.35400390625
-59.50927734375
-67.7490234375
-44.86083984375
-50.35400390625
-53.1005859375
-53.1005859375
-52.18505859375
-48.52294921875
-44.86083984375
-46.69189453125
-41.19873046875
-39.36767578125
-51.26953125
-48.52294921875
-49.4384765625
-50.35400390625
-54.931640625
-50.35400390625
-49.4384765625
-48.52294921875
-48.52294921875
-54.01611328125
-63.17138671875
-55.84716796875
-54.01611328125
-51.26953125
-50.35400390625
-48.52294921875
-47.607421875
-45.7763671875
-49.4384765625
-48.52294921875
-51.26953125
-60.4248046875
-48.52294921875
-34.7900390625
-32.04345703125
-31.1279296875
-12.8173828125
7.32421875
3.662109375
-5.4931640625
-6.40869140625
-5.4931640625
-0.91552734375
1.8310546875
8.23974609375
14.6484375
17.39501953125
9.1552734375
24.71923828125
28.38134765625
35.70556640625
32.04345703125
40.283203125
36.62109375
29.296875
25.634765625
30.21240234375
20.1416015625
16.4794921875
15.56396484375
15.56396484375
10.07080078125
24.71923828125
31.1279296875
17.39501953125
11.90185546875
0.91552734375
-14.6484375
-24.71923828125
-27.4658203125
-41.19873046875
-43.02978515625
-42.1142578125
-43.02978515625
-50.35400390625
-48.52294921875
-47.607421875
-51.26953125
-49.4384765625
-46.69189453125
-47.607421875
-55.84716796875
-62.255859375
-54.931640625
-52.18505859375
-53.1005859375
-51.26953125
-51.26953125
-62.255859375
-53.1005859375
-58.59375
-72.32666015625
-70.49560546875
-75.0732421875
-70.49560546875
-74.15771484375
-71.4111328125
-62.255859375
-60.4248046875
-61.34033203125
-63.17138671875
-57.67822265625
-57.67822265625
-61.34033203125
-51.26953125
-49.4384765625
-49.4384765625
-54.01611328125
-68.66455078125
-87.890625
-125.42724609375
-162.9638671875
-186.767578125
-185.85205078125
-152.89306640625
-110.77880859375
-69.580078125
-1.8310546875
52.18505859375
114.44091796875
188.5986328125
269.1650390625
346.0693359375
440.36865234375
560.302734375
671.9970703125
787.353515625
844.1162109375
817.56591796875
695.80078125
526.42822265625
418.39599609375
380.859375
303.03955078125
212.40234375
142.822265625
85.14404296875
43.02978515625
11.90185546875
-8.23974609375
-13.73291015625
-11.90185546875
14.6484375
29.296875
21.97265625
11.90185546875
36.62109375
51.26953125
33.87451171875
18.310546875
16.4794921875
10.986328125
0
0
-4.57763671875
-4.57763671875
3.662109375
9.1552734375
6.40869140625
-6.40869140625
-10.986328125
-10.07080078125
-11.90185546875
-20.1416015625
-20.1416015625
-22.88818359375
-21.97265625
-10.986328125
1.8310546875
6.40869140625
5.4931640625
10.986328125
7.32421875
-15.56396484375
-7.32421875
17.39501953125
