ECG
-45.7763671875
-65.91796875
-63.17138671875
-58.59375
-59.50927734375
-73.2421875
-78.7353515625
-68.66455078125
-71.4111328125
-71.4111328125
-65.00244140625
-56.7626953125
-55.84716796875
-57.67822265625
-67.7490234375
-65.00244140625
-65.91796875
-70.49560546875
-71.4111328125
-71.4111328125
-74.15771484375
-75.98876953125
-83.31298828125
-80.56640625
-74.15771484375
-84.228515625
-91.552734375
-79.65087890625
-77.81982421875
-77.81982421875
-90.63720703125
-86.0595703125
-87.890625
-87.890625
-70.49560546875
-49.4384765625
-47.607421875
-69.580078125
-91.552734375
-92.46826171875
-89.7216796875
-69.580078125
-68.66455078125
-75.98876953125
-77.81982421875
-78.7353515625
-77.81982421875
-86.0595703125
-91.552734375
-85.14404296875
-89.7216796875
-87.890625
-81.48193359375
-62.255859375
-54.931640625
-55.84716796875
-50.35400390625
-43.9453125
-44.86083984375
-49.4384765625
-43.9453125
-45.7763671875
-44.86083984375
-27.4658203125
-20.1416015625
-13.73291015625
-21.05712890625
-24.71923828125
-10.986328125
12.8173828125
17.39501953125
21.05712890625
3.662109375
4.57763671875
-8.23974609375
-21.97265625
-10.07080078125
-4.57763671875
1.8310546875
0.91552734375
0.91552734375
-1.8310546875
-4.57763671875
-23.8037109375
-32.958984375
-44.86083984375
-61.34033203125
-85.14404296875
-97.0458984375
-104.3701171875
-96.13037109375
-91.552734375
-88.80615234375
-83.31298828125
-80.56640625
-96.13037109375
-97.0458984375
-99.79248046875
-101.62353515625
-97.0458984375
-95.21484375
-92.46826171875
-92.46826171875
-100.7080078125
-107.11669921875
-114.44091796875
-89.7216796875
-86.0595703125
-108.0322265625
-111.6943359375
-112.60986328125
-103.45458984375
-104.3701171875
-95.21484375
-96.13037109375
-96.13037109375
-95.21484375
-98.876953125
-115.3564453125
-120.849609375
-127.25830078125
-122.6806640625
-111.6943359375
-97.0458984375
-99.79248046875
-97.96142578125
-98.876953125
-121.76513671875
-162.04833984375
-196.83837890625
-226.13525390625
-219.7265625
-188.5986328125
-163.87939453125
-126.3427734375
-53.1005859375
16.4794921875
87.890625
171.20361328125
241.69921875
325.01220703125
435.791015625
560.302734375
672.91259765625
779.11376953125
824.89013671875
777.28271484375
645.44677734375
466.00341796875
368.95751953125
335.99853515625
260.009765625
167.54150390625
97.0458984375
35.70556640625
-16.4794921875
-40.283203125
-71.4111328125
-60.4248046875
-58.59375
-56.7626953125
-28.38134765625
-9.1552734375
-12.8173828125
-2.74658203125
6.40869140625
-15.56396484375
-26.55029296875
-30.21240234375
-22.88818359375
-37.53662109375
-43.9453125
-52.18505859375
-51.26953125
-42.1142578125
-43.9453125
-36.62109375
-40.283203125
-36.62109375
-49.4384765625
-53.1005859375
-45.7763671875
-52.18505859375
-53.1005859375
-54.01611328125
-53.1005859375
-50.35400390625
-35.70556640625
-26.55029296875
-25.634765625
-34.7900390625
-39.36767578125
-25.634765625
-40.283203125
-37.53662109375
-35.70556640625
-44.86083984375
-38.4521484375
-33.87451171875
-39.36767578125
-41.19873046875
-37.53662109375
-27.4658203125
-21.97265625
-28.38134765625
-31.1279296875
-35.70556640625
-29.296875
-18.310546875
-21.05712890625
-11.90185546875
-10.986328125
-9.1552734375
-11.90185546875
-23.8037109375
-24.71923828125
-21.05712890625
-25.634765625
-16.4794921875
-29.296875
-24.71923828125
-13.73291015625
-12.8173828125
1.8310546875
6.40869140625
4.57763671875
10.986328125
18.310546875
25.634765625
22.88818359375
10.07080078125
15.56396484375
28.38134765625
35.70556640625
36.62109375
39.36767578125
43.9453125
47.607421875
43.9453125
61.34033203125
77.81982421875
65.00244140625
66.83349609375
61.34033203125
65.91796875
59.50927734375
60.4248046875
66.83349609375
68.66455078125
71.4111328125
79.65087890625
87.890625
79.65087890625
75.0732421875
96.13037109375
118.10302734375
100.7080078125
106.201171875
110.77880859375
102.5390625
103.45458984375
107.11669921875
111.6943359375
109.86328125
106.201171875
119.0185546875
120.849609375
120.849609375
121.76513671875
117.1875
120.849609375
115.3564453125
118.10302734375
123.59619140625
132.75146484375
134.58251953125
141.90673828125
143.73779296875
138.24462890625
126.3427734375
115.3564453125
112.60986328125
100.7080078125
97.0458984375
98.876953125
97.0458984375
77.81982421875
53.1005859375
45.7763671875
29.296875
33.87451171875
33.87451171875
22.88818359375
26.55029296875
3.662109375
-7.32421875
-11.90185546875
-18.310546875
-19.22607421875
-16.4794921875
-30.21240234375
-32.04345703125
-30.21240234375
-48.52294921875
-45.7763671875
-32.04345703125
-49.4384765625
-41.19873046875
-50.35400390625
-53.1005859375
-53.1005859375
-53.1005859375
-68.66455078125
-65.91796875
-51.26953125
-33.87451171875
-41.19873046875
-36.62109375
-43.02978515625
-32.04345703125
-47.607421875
-62.255859375
-53.1005859375
-54.931640625
-65.00244140625
-54.01611328125
-45.7763671875
-56.7626953125
-59.50927734375
-54.931640625
-45.7763671875
-59.50927734375
-57.67822265625
-67.7490234375
-68.66455078125
-58.59375
-53.1005859375
-49.4384765625
-37.53662109375
-46.69189453125
-46.69189453125
-33.87451171875
-21.05712890625
-37.53662109375
-43.9453125
-46.69189453125
-43.02978515625
-58.59375
-43.9453125
-26.55029296875
-47.607421875
-43.9453125
-23.8037109375
-20.1416015625
-20.1416015625
-40.283203125
-44.86083984375
-43.02978515625
-43.02978515625
-38.4521484375
-31.1279296875
-14.6484375
-29.296875
-41.19873046875
-42.1142578125
-42.1142578125
-40.283203125
-32.04345703125
-22.88818359375
-27.4658203125
-34.7900390625
-32.958984375
-39.36767578125
-52.18505859375
-49.4384765625
-39.36767578125
-36.62109375
-38.4521484375
-45.7763671875
-41.19873046875
-43.02978515625
-40.283203125
-37.53662109375
-39.36767578125
-43.02978515625
-39.36767578125
-46.69189453125
-43.02978515625
-45.7763671875
-39.36767578125
-46.69189453125
-51.26953125
-46.69189453125
-35.70556640625
-41.19873046875
-51.26953125
-59.50927734375
-66.83349609375
-60.4248046875
-34.7900390625
-48.52294921875
-54.931640625
-41.19873046875
-40.283203125
-48.52294921875
-54.01611328125
-65.91796875
-61.34033203125
-59.50927734375
-50.35400390625
-56.7626953125
-60.4248046875
-46.69189453125
-41.19873046875
-44.86083984375
-43.02978515625
-45.7763671875
-50.35400390625
-47.607421875
-42.1142578125
-26.55029296875
-21.97265625
-19.22607421875
-27.4658203125
-13.73291015625
9.1552734375
14.6484375
19.22607421875
11.90185546875
9.1552734375
26.55029296875
41.19873046875
39.36767578125
33.87451171875
32.958984375
44.86083984375
43.02978515625
37.53662109375
25.634765625
16.4794921875
14.6484375
27.4658203125
23.8037109375
22.88818359375
19.22607421875
17.39501953125
-11.90185546875
-21.05712890625
-27.4658203125
-40.283203125
-43.9453125
-61.34033203125
-58.59375
-53.1005859375
-72.32666015625
-73.2421875
-64.0869140625
-71.4111328125
-68.66455078125
-58.59375
-66.83349609375
-79.65087890625
-75.98876953125
-81.48193359375
-77.81982421875
-71.4111328125
-79.65087890625
-75.0732421875
-83.31298828125
-84.228515625
-80.56640625
-84.228515625
-78.7353515625
-83.31298828125
-61.34033203125
-64.0869140625
-73.2421875
-63.17138671875
-67.7490234375
-68.66455078125
-73.2421875
-77.81982421875
-73.2421875
-75.98876953125
-80.56640625
-89.7216796875
-84.228515625
-87.890625
-97.0458984375
-105.28564453125
-128.173828125
-167.54150390625
-201.416015625
-210.5712890625
-198.66943359375
-153.80859375
-107.11669921875
-56.7626953125
1.8310546875
57.67822265625
111.6943359375
187.68310546875
288.39111328125
372.61962890625
491.63818359375
603.33251953125
719.6044921875
812.98828125
836.7919921875
793.76220703125
660.09521484375
479.736328125
394.59228515625
328.67431640625
224.30419921875
129.08935546875
78.7353515625
40.283203125
4.57763671875
-32.04345703125
-27.4658203125
-18.310546875
-15.56396484375
10.986328125
14.6484375
19.22607421875
32.04345703125
21.05712890625
8.23974609375
-8.23974609375
-1.8310546875
0
-12.8173828125
-20.1416015625
-18.310546875
-15.56396484375
-11.90185546875
-22.88818359375
-29.296875
-43.9453125
-29.296875
-39.36767578125
-39.36767578125
-29.296875
-26.55029296875
-33.87451171875
-32.958984375
-20.1416015625
-27.4658203125
-23.8037109375
-27.4658203125
-35.70556640625
-53.1005859375
-47.607421875
-36.62109375
-31.1279296875
-30.21240234375
-32.958984375
-19.22607421875
-28.38134765625
-17.39501953125
-20.1416015625
-31.1279296875
-17.39501953125
-18.310546875
-12.8173828125
-9.1552734375
-10.986328125
-1.8310546875
-9.1552734375
-14.6484375
-10.07080078125
-6.40869140625
-13.73291015625
-9.1552734375
2.74658203125
3.662109375
-19.22607421875
-19.22607421875
0
7.32421875
3.662109375
10.986328125
1.8310546875
-10.986328125
-7.32421875
8.23974609375
11.90185546875
11.90185546875
9.1552734375
18.310546875
18.310546875
21.97265625
20.1416015625
26.55029296875
39.36767578125
35.70556640625
27.4658203125
34.7900390625
33.87451171875
26.55029296875
34.7900390625
51.26953125
52.18505859375
63.17138671875
66.83349609375
72.32666015625
68.66455078125
59.50927734375
69.580078125
72.32666015625
70.49560546875
66.83349609375
77.81982421875
79.65087890625
86.97509765625
75.0732421875
89.7216796875
95.21484375
80.56640625
84.228515625
86.0595703125
95.21484375
102.5390625
107.11669921875
109.86328125
120.849609375
122.6806640625
113.525390625
120.849609375
127.25830078125
121.76513671875
138.24462890625
140.9912109375
134.58251953125
130.92041015625
132.75146484375
130.92041015625
128.173828125
125.42724609375
114.44091796875
135.498046875
127.25830078125
113.525390625
111.6943359375
107.11669921875
99.79248046875
91.552734375
77.81982421875
73.2421875
65.00244140625
53.1005859375
44.86083984375
42.1142578125
30.21240234375
12.8173828125
-8.23974609375
-28.38134765625
-6.40869140625
-28.38134765625
-35.70556640625
-27.4658203125
-37.53662109375
-44.86083984375
-48.52294921875
-62.255859375
-60.4248046875
-60.4248046875
-61.34033203125
-64.0869140625
-65.00244140625
-71.4111328125
-64.0869140625
-55.84716796875
-58.59375
-57.67822265625
-54.01611328125
-54.01611328125
-53.1005859375
-59.50927734375
-76.904296875
-82.3974609375
-58.59375
-64.0869140625
-74.15771484375
-70.49560546875
-76.904296875
-76.904296875
-75.98876953125
-70.49560546875
-72.32666015625
-64.0869140625
-66.83349609375
-65.91796875
-67.7490234375
-63.17138671875
-77.81982421875
-68.66455078125
-68.66455078125
-66.83349609375
-65.91796875
-76.904296875
-74.15771484375
-60.4248046875
-66.83349609375
-67.7490234375
-62.255859375
-60.4248046875
-63.17138671875
-66.83349609375
-75.0732421875
-71.4111328125
-59.50927734375
-58.59375
-63.17138671875
-72.32666015625
-66.83349609375
-59.50927734375
-59.50927734375
-66.83349609375
-65.00244140625
-62.255859375
-77.81982421875
-79.65087890625
-70.49560546875
-72.32666015625
-75.98876953125
-73.2421875
-63.17138671875
-74.15771484375
-77.81982421875
-75.98876953125
-82.3974609375
-75.98876953125
-61.34033203125
-62.255859375
-79.65087890625
-84.228515625
-75.98876953125
-75.98876953125
-87.890625
-88.80615234375
-88.80615234375
-87.890625
-90.63720703125
-91.552734375
-98.876953125
-108.94775390625
-89.7216796875
-80.56640625
-79.65087890625
-73.2421875
-80.56640625
-84.228515625
-89.7216796875
-95.21484375
-88.80615234375
-82.3974609375
-84.228515625
-89.7216796875
-90.63720703125
-108.94775390625
-108.0322265625
-108.0322265625
-103.45458984375
-97.96142578125
-96.13037109375
-100.7080078125
-107.11669921875
-105.28564453125
-100.7080078125
-104.3701171875
-94.29931640625
-82.3974609375
-89.7216796875
-86.97509765625
-85.14404296875
-89.7216796875
-88.80615234375
-99.79248046875
-88.80615234375
-90.63720703125
-87.890625
-89.7216796875
-97.0458984375
-95.21484375
-98.876953125
-98.876953125
-102.5390625
-97.0458984375
-97.96142578125
-102.5390625
-97.96142578125
-86.97509765625
-85.14404296875
-60.4248046875
-63.17138671875
-63.17138671875
-71.4111328125
-69.580078125
-72.32666015625
-64.0869140625
-68.66455078125
-75.0732421875
-84.228515625
-73.2421875
-55.84716796875
-35.70556640625
-23.8037109375
-24.71923828125
-29.296875
-7.32421875
-7.32421875
-18.310546875
-28.38134765625
-32.04345703125
-29.296875
-25.634765625
-29.296875
-15.56396484375
-21.05712890625
-25.634765625
-40.283203125
-56.7626953125
-63.17138671875
-75.98876953125
-82.3974609375
-84.228515625
-105.28564453125
-105.28564453125
-108.0322265625
-108.94775390625
-114.44091796875
-119.93408203125
-119.93408203125
-123.59619140625
-112.60986328125
-125.42724609375
-139.16015625
-134.58251953125
-119.0185546875
-116.27197265625
-107.11669921875
-104.3701171875
-111.6943359375
-122.6806640625
-135.498046875
-119.0185546875
-106.201171875
-126.3427734375
-133.6669921875
-125.42724609375
-129.08935546875
-126.3427734375
-125.42724609375
-119.0185546875
-124.51171875
-138.24462890625
-151.06201171875
-138.24462890625
-128.173828125
-124.51171875
-118.10302734375
-119.93408203125
-129.08935546875
-139.16015625
-154.72412109375
-185.85205078125
-214.2333984375
-252.685546875
-273.74267578125
-251.77001953125
-207.82470703125
-171.20361328125
-117.1875
-51.26953125
12.8173828125
87.890625
170.2880859375
254.5166015625
327.7587890625
446.77734375
559.38720703125
676.57470703125
769.95849609375
806.57958984375
746.15478515625
594.17724609375
433.04443359375
362.548828125
283.8134765625
190.4296875
111.6943359375
35.70556640625
-15.56396484375
-61.34033203125
-74.15771484375
-85.14404296875
-91.552734375
-52.18505859375
-23.8037109375
-32.04345703125
-30.21240234375
-24.71923828125
-26.55029296875
-43.02978515625
-60.4248046875
-61.34033203125
-61.34033203125
-64.0869140625
-70.49560546875
-63.17138671875
-69.580078125
-67.7490234375
-72.32666015625
-82.3974609375
-82.3974609375
-75.0732421875
-70.49560546875
-66.83349609375
-71.4111328125
-76.904296875
-84.228515625
-86.0595703125
-87.890625
-87.890625
-80.56640625
-62.255859375
-63.17138671875
-60.4248046875
-54.931640625
-53.1005859375
-56.7626953125
-74.15771484375
-65.00244140625
-65.91796875
-66.83349609375
-65.00244140625
-66.83349609375
-60.4248046875
-68.66455078125
-71.4111328125
-72.32666015625
-60.4248046875
-62.255859375
-63.17138671875
-52.18505859375
-59.50927734375
-61.34033203125
-55.84716796875
-41.19873046875
-31.1279296875
-40.283203125
-42.1142578125
-33.87451171875
-32.958984375
-46.69189453125
-37.53662109375
-39.36767578125
-50.35400390625
-49.4384765625
-43.02978515625
-32.958984375
-37.53662109375
-46.69189453125
-37.53662109375
-33.87451171875
-32.958984375
-36.62109375
-37.53662109375
-25.634765625
-29.296875
-23.8037109375
-14.6484375
-8.23974609375
-3.662109375
-20.1416015625
-11.90185546875
-15.56396484375
0
13.73291015625
14.6484375
21.97265625
20.1416015625
8.23974609375
11.90185546875
24.71923828125
32.958984375
36.62109375
22.88818359375
21.97265625
21.05712890625
22.88818359375
43.9453125
40.283203125
32.958984375
52.18505859375
62.255859375
58.59375
60.4248046875
64.0869140625
56.7626953125
53.1005859375
61.34033203125
65.91796875
67.7490234375
73.2421875
66.83349609375
69.580078125
75.0732421875
79.65087890625
84.228515625
89.7216796875
92.46826171875
91.552734375
90.63720703125
73.2421875
65.00244140625
67.7490234375
74.15771484375
74.15771484375
69.580078125
64.0869140625
50.35400390625
62.255859375
50.35400390625
31.1279296875
23.8037109375
19.22607421875
11.90185546875
2.74658203125
-21.97265625
-23.8037109375
-22.88818359375
-26.55029296875
-41.19873046875
-54.01611328125
-52.18505859375
-53.1005859375
-54.01611328125
-55.84716796875
-65.91796875
-74.15771484375
-69.580078125
-74.15771484375
-81.48193359375
-91.552734375
-94.29931640625
-97.0458984375
-104.3701171875
-105.28564453125
-99.79248046875
-84.228515625
-95.21484375
-82.3974609375
-82.3974609375
-81.48193359375
-82.3974609375
-92.46826171875
-97.0458984375
-89.7216796875
-90.63720703125
-101.62353515625
-107.11669921875
-113.525390625
-112.60986328125
-99.79248046875
-92.46826171875
-97.0458984375
-93.3837890625
-95.21484375
-87.890625
-86.97509765625
-87.890625
-92.46826171875
-101.62353515625
-85.14404296875
-84.228515625
-90.63720703125
-91.552734375
-87.890625
-78.7353515625
-89.7216796875
-85.14404296875
-85.14404296875
-81.48193359375
-78.7353515625
-84.228515625
-89.7216796875
-94.29931640625
-87.890625
-91.552734375
-97.96142578125
-95.21484375
-93.3837890625
-92.46826171875
-82.3974609375
-94.29931640625
-98.876953125
-114.44091796875
-88.80615234375
-83.31298828125
-83.31298828125
-82.3974609375
-74.15771484375
-66.83349609375
-66.83349609375
-86.97509765625
-83.31298828125
-89.7216796875
-81.48193359375
-70.49560546875
-82.3974609375
-79.65087890625
-94.29931640625
-99.79248046875
-93.3837890625
-95.21484375
-83.31298828125
-77.81982421875
-85.14404296875
-110.77880859375
-97.96142578125
-94.29931640625
-101.62353515625
-114.44091796875
-108.94775390625
-106.201171875
-114.44091796875
-108.94775390625
-108.0322265625
-96.13037109375
-99.79248046875
-106.201171875
-113.525390625
-108.0322265625
-98.876953125
-101.62353515625
-124.51171875
-120.849609375
-108.0322265625
-118.10302734375
-111.6943359375
-123.59619140625
-108.94775390625
-91.552734375
-98.876953125
-95.21484375
-91.552734375
-97.0458984375
-94.29931640625
-97.96142578125
-111.6943359375
-100.7080078125
-107.11669921875
-117.1875
-110.77880859375
-105.28564453125
-97.96142578125
-96.13037109375
-105.28564453125
-134.58251953125
-137.3291015625
-119.0185546875
-124.51171875
-114.44091796875
-122.6806640625
-119.93408203125
-113.525390625
-104.3701171875
-110.77880859375
-112.60986328125
-121.76513671875
-124.51171875
-131.8359375
-128.173828125
-116.27197265625
-116.27197265625
-120.849609375
-119.93408203125
-117.1875
-110.77880859375
-91.552734375
-86.0595703125
-94.29931640625
-97.0458984375
-94.29931640625
-85.14404296875
-69.580078125
-66.83349609375
-69.580078125
-59.50927734375
-65.00244140625
-62.255859375
-56.7626953125
-49.4384765625
-64.0869140625
-51.26953125
-43.02978515625
-47.607421875
-70.49560546875
-51.26953125
-36.62109375
-42.1142578125
-36.62109375
-28.38134765625
-32.04345703125
-40.283203125
-54.01611328125
-57.67822265625
-53.1005859375
-43.9453125
-45.7763671875
-46.69189453125
-63.17138671875
-83.31298828125
-75.0732421875
-68.66455078125
-76.904296875
-94.29931640625
-99.79248046875
-113.525390625
-127.25830078125
-130.0048828125
-126.3427734375
-129.08935546875
-143.73779296875
-134.58251953125
-118.10302734375
-111.6943359375
-114.44091796875
-106.201171875
-108.94775390625
-105.28564453125
-118.10302734375
-114.44091796875
-120.849609375
-134.58251953125
-136.41357421875
-147.39990234375
-132.75146484375
-130.0048828125
-140.9912109375
-145.56884765625
-140.07568359375
-150.146484375
-135.498046875
-136.41357421875
-137.3291015625
-126.3427734375
-124.51171875
-128.173828125
-122.6806640625
-130.92041015625
-126.3427734375
-127.25830078125
-135.498046875
-138.24462890625
-163.87939453125
-195.00732421875
-219.7265625
-249.93896484375
-284.72900390625
-261.8408203125
-227.96630859375
-181.2744140625
-134.58251953125
-85.14404296875
-24.71923828125
36.62109375
126.3427734375
184.02099609375
260.009765625
367.12646484375
484.31396484375
578.61328125
706.787109375
809.326171875
803.8330078125
692.138671875
509.033203125
377.197265625
346.0693359375
281.06689453125
175.78125
98.876953125
30.21240234375
5.4931640625
-7.32421875
-56.7626953125
-80.56640625
-86.0595703125
-69.580078125
-58.59375
-56.7626953125
-44.86083984375
-48.52294921875
-45.7763671875
-49.4384765625
-66.83349609375
-85.14404296875
-90.63720703125
-81.48193359375
-72.32666015625
-86.0595703125
-65.00244140625
-53.1005859375
-67.7490234375
-65.00244140625
-61.34033203125
-79.65087890625
-70.49560546875
-50.35400390625
-56.7626953125
-73.2421875
-80.56640625
-73.2421875
-79.65087890625
-81.48193359375
-78.7353515625
-68.66455078125
-68.66455078125
-58.59375
-58.59375
-68.66455078125
-77.81982421875
-61.34033203125
-84.228515625
-65.91796875
-65.00244140625
-69.580078125
-70.49560546875
-60.4248046875
-67.7490234375
-74.15771484375
-64.0869140625
-52.18505859375
-67.7490234375
-71.4111328125
-56.7626953125
-40.283203125
-26.55029296875
-21.05712890625
-10.986328125
-31.1279296875
-54.01611328125
-61.34033203125
-48.52294921875
-22.88818359375
-31.1279296875
-31.1279296875
-21.97265625
-15.56396484375
-18.310546875
-14.6484375
-13.73291015625
-14.6484375
-3.662109375
-14.6484375
-11.90185546875
-12.8173828125
-18.310546875
-19.22607421875
-16.4794921875
-17.39501953125
-27.4658203125
-47.607421875
-36.62109375
-3.662109375
2.74658203125
19.22607421875
10.07080078125
-6.40869140625
-9.1552734375
-2.74658203125
15.56396484375
17.39501953125
20.1416015625
17.39501953125
27.4658203125
37.53662109375
49.4384765625
59.50927734375
56.7626953125
54.931640625
67.7490234375
57.67822265625
63.17138671875
66.83349609375
61.34033203125
68.66455078125
75.0732421875
81.48193359375
60.4248046875
62.255859375
76.904296875
88.80615234375
78.7353515625
82.3974609375
85.14404296875
78.7353515625
65.91796875
81.48193359375
91.552734375
101.62353515625
96.13037109375
94.29931640625
100.7080078125
86.0595703125
81.48193359375
78.7353515625
83.31298828125
76.904296875
63.17138671875
42.1142578125
33.87451171875
49.4384765625
38.4521484375
42.1142578125
53.1005859375
44.86083984375
21.05712890625
5.4931640625
0.91552734375
11.90185546875
0.91552734375
4.57763671875
3.662109375
-12.8173828125
-24.71923828125
-41.19873046875
-22.88818359375
-25.634765625
-43.02978515625
-57.67822265625
-60.4248046875
-71.4111328125
-76.904296875
-81.48193359375
-71.4111328125
-70.49560546875
-72.32666015625
-64.0869140625
-73.2421875
-89.7216796875
-88.80615234375
-86.97509765625
-90.63720703125
-113.525390625
-119.0185546875
-106.201171875
-86.97509765625
-66.83349609375
-88.80615234375
-93.3837890625
-74.15771484375
-86.0595703125
-106.201171875
-107.11669921875
-102.5390625
-100.7080078125
-110.77880859375
-108.94775390625
-80.56640625
-72.32666015625
-77.81982421875
-83.31298828125
-85.14404296875
-83.31298828125
-71.4111328125
-74.15771484375
-78.7353515625
-78.7353515625
-73.2421875
-55.84716796875
-71.4111328125
-79.65087890625
-79.65087890625
-86.0595703125
-88.80615234375
-87.890625
-77.81982421875
-71.4111328125
-71.4111328125
-74.15771484375
-80.56640625
-85.14404296875
-88.80615234375
-86.0595703125
-78.7353515625
-83.31298828125
-75.0732421875
-76.904296875
-66.83349609375
-72.32666015625
-79.65087890625
-75.0732421875
-87.890625
-91.552734375
-111.6943359375
-85.14404296875
-61.34033203125
-75.0732421875
-65.91796875
-57.67822265625
-64.0869140625
-75.98876953125
-78.7353515625
-91.552734375
-102.5390625
-90.63720703125
-91.552734375
-83.31298828125
-65.91796875
-71.4111328125
-77.81982421875
-97.96142578125
-103.45458984375
-77.81982421875
-74.15771484375
-80.56640625
-76.904296875
-86.97509765625
-87.890625
-87.890625
-95.21484375
-113.525390625
-128.173828125
-119.93408203125
-109.86328125
-90.63720703125
-106.201171875
-91.552734375
-79.65087890625
-107.11669921875
-85.14404296875
-77.81982421875
-92.46826171875
-115.3564453125
-119.93408203125
-115.3564453125
-123.59619140625
-132.75146484375
-139.16015625
-136.41357421875
-111.6943359375
-94.29931640625
-97.0458984375
-100.7080078125
-107.11669921875
-113.525390625
-100.7080078125
-96.13037109375
-109.86328125
-99.79248046875
-88.80615234375
-82.3974609375
-89.7216796875
-103.45458984375
-120.849609375
-117.1875
-98.876953125
-74.15771484375
-95.21484375
-66.83349609375
-65.00244140625
-69.580078125
-65.91796875
-56.7626953125
-65.91796875
-86.97509765625
-74.15771484375
-69.580078125
-67.7490234375
-42.1142578125
-50.35400390625
-65.91796875
-42.1142578125
-24.71923828125
-18.310546875
-10.986328125
-12.8173828125
-21.05712890625
-28.38134765625
-22.88818359375
-27.4658203125
-22.88818359375
-32.958984375
-42.1142578125
-40.283203125
-36.62109375
-57.67822265625
-32.958984375
-11.90185546875
-21.05712890625
-41.19873046875
-59.50927734375
-50.35400390625
-68.66455078125
-86.0595703125
-100.7080078125
-75.98876953125
-83.31298828125
-97.96142578125
-102.5390625
-100.7080078125
-116.27197265625
-125.42724609375
-97.96142578125
-94.29931640625
-94.29931640625
-105.28564453125
-104.3701171875
-104.3701171875
-104.3701171875
-109.86328125
-113.525390625
-100.7080078125
-109.86328125
-109.86328125
-108.0322265625
-118.10302734375
-118.10302734375
-140.07568359375
-160.21728515625
-138.24462890625
-123.59619140625
-131.8359375
-108.94775390625
-104.3701171875
-85.14404296875
-86.0595703125
-82.3974609375
-84.228515625
-114.44091796875
-130.92041015625
-142.822265625
-134.58251953125
-159.3017578125
-168.45703125
-227.96630859375
-265.5029296875
-278.3203125
-228.8818359375
-195.9228515625
-148.3154296875
-86.97509765625
-32.04345703125
33.87451171875
116.27197265625
177.6123046875
244.44580078125
366.2109375
482.48291015625
576.7822265625
713.19580078125
814.8193359375
816.650390625
725.09765625
548.40087890625
379.0283203125
336.9140625
299.37744140625
230.712890625
138.24462890625
64.0869140625
9.1552734375
2.74658203125
-30.21240234375
-55.84716796875
-58.59375
-52.18505859375
-49.4384765625
-35.70556640625
-55.84716796875
-53.1005859375
-42.1142578125
-55.84716796875
-68.66455078125
-78.7353515625
-54.01611328125
-66.83349609375
-71.4111328125
-84.228515625
-77.81982421875
-57.67822265625
-39.36767578125
-63.17138671875
-36.62109375
-65.00244140625
-86.97509765625
-76.904296875
-94.29931640625
-89.7216796875
-65.91796875
-61.34033203125
-55.84716796875
-62.255859375
-73.2421875
-48.52294921875
-64.0869140625
-53.1005859375
-54.01611328125
-45.7763671875
-40.283203125
-41.19873046875
-38.4521484375
-51.26953125
-48.52294921875
-52.18505859375
-41.19873046875
-30.21240234375
-35.70556640625
-43.9453125
-56.7626953125
-56.7626953125
-28.38134765625
-28.38134765625
-34.7900390625
-46.69189453125
-52.18505859375
-37.53662109375
-47.607421875
-52.18505859375
-8.23974609375
-37.53662109375
-43.02978515625
-43.02978515625
-35.70556640625
-32.958984375
-12.8173828125
17.39501953125
13.73291015625
16.4794921875
9.1552734375
-12.8173828125
-0.91552734375
11.90185546875
21.05712890625
27.4658203125
28.38134765625
10.07080078125
5.4931640625
-7.32421875
0.91552734375
15.56396484375
10.986328125
10.07080078125
19.22607421875
19.22607421875
13.73291015625
10.07080078125
22.88818359375
27.4658203125
32.958984375
52.18505859375
61.34033203125
54.931640625
53.1005859375
61.34033203125
58.59375
56.7626953125
76.904296875
69.580078125
67.7490234375
72.32666015625
93.3837890625
86.0595703125
84.228515625
79.65087890625
75.0732421875
80.56640625
79.65087890625
96.13037109375
90.63720703125
101.62353515625
98.876953125
96.13037109375
98.876953125
89.7216796875
99.79248046875
91.552734375
106.201171875
121.76513671875
113.525390625
103.45458984375
114.44091796875
99.79248046875
98.876953125
131.8359375
117.1875
99.79248046875
85.14404296875
75.0732421875
71.4111328125
62.255859375
60.4248046875
55.84716796875
44.86083984375
19.22607421875
18.310546875
9.1552734375
-7.32421875
3.662109375
11.90185546875
-7.32421875
-10.986328125
-22.88818359375
-16.4794921875
-40.283203125
-44.86083984375
-32.958984375
-29.296875
-29.296875
-48.52294921875
-42.1142578125
-41.19873046875
-42.1142578125
-41.19873046875
-52.18505859375
-57.67822265625
-77.81982421875
-74.15771484375
-53.1005859375
-60.4248046875
-55.84716796875
-64.0869140625
-69.580078125
-61.34033203125
-69.580078125
-66.83349609375
-68.66455078125
-70.49560546875
-63.17138671875
-75.0732421875
-63.17138671875
-54.931640625
-54.01611328125
-50.35400390625
-48.52294921875
-39.36767578125
-44.86083984375
-53.1005859375
-43.9453125
-60.4248046875
-52.18505859375
-51.26953125
-60.4248046875
-62.255859375
-49.4384765625
-46.69189453125
-52.18505859375
-66.83349609375
-69.580078125
-60.4248046875
-65.00244140625
-62.255859375
-51.26953125
-56.7626953125
-47.607421875
-47.607421875
-69.580078125
-45.7763671875
-28.38134765625
-34.7900390625
-38.4521484375
-21.97265625
-21.05712890625
-19.22607421875
-18.310546875
-21.05712890625
-23.8037109375
-23.8037109375
-13.73291015625
-26.55029296875
-24.71923828125
-21.97265625
-25.634765625
-25.634765625
-27.4658203125
-33.87451171875
-32.04345703125
-19.22607421875
-26.55029296875
-29.296875
-33.87451171875
-41.19873046875
-28.38134765625
-32.958984375
-31.1279296875
-33.87451171875
-31.1279296875
-21.97265625
-32.958984375
-33.87451171875
-48.52294921875
-45.7763671875
-36.62109375
-45.7763671875
-54.931640625
-41.19873046875
-43.02978515625
-54.931640625
-36.62109375
-32.958984375
-38.4521484375
-34.7900390625
-43.02978515625
-51.26953125
-50.35400390625
-50.35400390625
-48.52294921875
-58.59375
-56.7626953125
-60.4248046875
-65.91796875
-48.52294921875
-68.66455078125
-47.607421875
-49.4384765625
-60.4248046875
-46.69189453125
-36.62109375
-41.19873046875
-43.02978515625
-38.4521484375
-40.283203125
-43.02978515625
-54.01611328125
-59.50927734375
-63.17138671875
-65.91796875
-62.255859375
-44.86083984375
-41.19873046875
-44.86083984375
-34.7900390625
-32.04345703125
-35.70556640625
-40.283203125
-41.19873046875
-42.1142578125
-48.52294921875
-52.18505859375
-45.7763671875
-43.02978515625
-46.69189453125
-39.36767578125
-42.1142578125
-51.26953125
-55.84716796875
-29.296875
-16.4794921875
-15.56396484375
-15.56396484375
1.8310546875
3.662109375
0.91552734375
-5.4931640625
-7.32421875
-23.8037109375
-9.1552734375
27.4658203125
32.04345703125
38.4521484375
30.21240234375
20.1416015625
11.90185546875
14.6484375
34.7900390625
23.8037109375
13.73291015625
20.1416015625
27.4658203125
25.634765625
25.634765625
32.958984375
48.52294921875
50.35400390625
39.36767578125
21.97265625
1.8310546875
3.662109375
-10.07080078125
-31.1279296875
-23.8037109375
-14.6484375
-32.958984375
-32.958984375
-32.04345703125
-43.02978515625
-59.50927734375
-80.56640625
-57.67822265625
-45.7763671875
-39.36767578125
-37.53662109375
-43.9453125
-48.52294921875
-50.35400390625
-49.4384765625
-53.1005859375
-64.0869140625
-65.00244140625
-65.91796875
-57.67822265625
-53.1005859375
-53.1005859375
-54.931640625
-64.0869140625
-74.15771484375
-67.7490234375
-65.91796875
-65.00244140625
-59.50927734375
-58.59375
-65.91796875
-61.34033203125
-59.50927734375
-56.7626953125
-62.255859375
-67.7490234375
-76.904296875
-99.79248046875
-135.498046875
-172.119140625
-201.416015625
-185.85205078125
-142.822265625
-94.29931640625
-48.52294921875
7.32421875
70.49560546875
143.73779296875
219.7265625
298.4619140625
368.0419921875
486.14501953125
603.33251953125
710.44921875
827.63671875
865.17333984375
797.42431640625
670.166015625
487.060546875
401.0009765625
350.64697265625
283.8134765625
200.50048828125
140.07568359375
86.97509765625
46.69189453125
19.22607421875
-2.74658203125
-9.1552734375
-0.91552734375
19.22607421875
30.21240234375
32.04345703125
45.7763671875
42.1142578125
29.296875
11.90185546875
-5.4931640625
-11.90185546875
-14.6484375
5.4931640625
13.73291015625
3.662109375
-2.74658203125
-17.39501953125
-44.86083984375
-19.22607421875
-10.07080078125
-9.1552734375
-3.662109375
-0.91552734375
-7.32421875
-5.4931640625
-11.90185546875
-15.56396484375
-16.4794921875
-11.90185546875
-14.6484375
-18.310546875
-21.97265625
-25.634765625
-24.71923828125
-21.05712890625
-14.6484375
-4.57763671875
-4.57763671875
-1.8310546875
21.97265625
10.07080078125
3.662109375
6.40869140625
16.4794921875
19.22607421875
13.73291015625
9.1552734375
16.4794921875
-7.32421875
-17.39501953125
3.662109375
18.310546875
19.22607421875
32.958984375
30.21240234375
40.283203125
31.1279296875
19.22607421875
21.05712890625
30.21240234375
35.70556640625
40.283203125
45.7763671875
36.62109375
22.88818359375
28.38134765625
36.62109375
37.53662109375
43.02978515625
46.69189453125
32.04345703125
47.607421875
57.67822265625
61.34033203125
56.7626953125
75.0732421875
77.81982421875
75.0732421875
72.32666015625
67.7490234375
69.580078125
73.2421875
73.2421875
86.0595703125
87.890625
86.97509765625
86.0595703125
91.552734375
87.890625
85.14404296875
108.0322265625
107.11669921875
102.5390625
112.60986328125
115.3564453125
122.6806640625
118.10302734375
124.51171875
117.1875
123.59619140625
122.6806640625
129.08935546875
130.0048828125
126.3427734375
134.58251953125
137.3291015625
122.6806640625
121.76513671875
146.484375
146.484375
153.80859375
155.6396484375
153.80859375
160.21728515625
164.794921875
162.9638671875
158.38623046875
161.1328125
169.37255859375
175.78125
175.78125
169.37255859375
165.71044921875
149.23095703125
140.07568359375
136.41357421875
128.173828125
127.25830078125
122.6806640625
114.44091796875
105.28564453125
86.0595703125
75.0732421875
61.34033203125
42.1142578125
43.9453125
63.17138671875
47.607421875
32.04345703125
20.1416015625
14.6484375
11.90185546875
10.07080078125
-3.662109375
-2.74658203125
-7.32421875
-15.56396484375
-27.4658203125
-30.21240234375
-22.88818359375
-19.22607421875
-18.310546875
-17.39501953125
-35.70556640625
-39.36767578125
-16.4794921875
-31.1279296875
-21.05712890625
-31.1279296875
-42.1142578125
-31.1279296875
-29.296875
-18.310546875
-10.986328125
-14.6484375
-23.8037109375
-24.71923828125
-28.38134765625
-35.70556640625
-50.35400390625
-43.9453125
-37.53662109375
-38.4521484375
-30.21240234375
-36.62109375
-27.4658203125
-38.4521484375
-44.86083984375
-43.02978515625
-38.4521484375
-26.55029296875
-19.22607421875
-23.8037109375
-30.21240234375
-29.296875
-40.283203125
-38.4521484375
-32.04345703125
-30.21240234375
-33.87451171875
-38.4521484375
-28.38134765625
-23.8037109375
-26.55029296875
-28.38134765625
-27.4658203125
-27.4658203125
-30.21240234375
-32.958984375
-32.958984375
-18.310546875
-19.22607421875
-28.38134765625
-23.8037109375
-13.73291015625
-20.1416015625
-20.1416015625
-21.97265625
-16.4794921875
-11.90185546875
-12.8173828125
-19.22607421875
-18.310546875
-13.73291015625
-17.39501953125
-25.634765625
-15.56396484375
-24.71923828125
-26.55029296875
-16.4794921875
-12.8173828125
-18.310546875
-27.4658203125
-29.296875
-41.19873046875
-37.53662109375
-42.1142578125
-43.02978515625
-54.01611328125
-42.1142578125
-35.70556640625
-50.35400390625
-44.86083984375
-58.59375
-70.49560546875
-71.4111328125
-67.7490234375
-56.7626953125
-62.255859375
-57.67822265625
-65.91796875
-50.35400390625
-25.634765625
-12.8173828125
-16.4794921875
-7.32421875
-20.1416015625
-28.38134765625
-25.634765625
-25.634765625
-46.69189453125
-49.4384765625
-34.7900390625
-15.56396484375
-23.8037109375
-31.1279296875
-31.1279296875
-29.296875
-17.39501953125
-32.04345703125
-54.931640625
-59.50927734375
-59.50927734375
-39.36767578125
-44.86083984375
-62.255859375
-53.1005859375
-52.18505859375
-68.66455078125
-67.7490234375
-64.0869140625
-58.59375
-65.00244140625
-58.59375
-57.67822265625
-50.35400390625
-49.4384765625
-50.35400390625
-33.87451171875
-42.1142578125
-44.86083984375
-43.9453125
-48.52294921875
-27.4658203125
-14.6484375
-14.6484375
-22.88818359375
-18.310546875
0.91552734375
-10.986328125
-27.4658203125
-12.8173828125
-11.90185546875
-3.662109375
11.90185546875
22.88818359375
35.70556640625
32.958984375
24.71923828125
19.22607421875
17.39501953125
12.8173828125
21.97265625
16.4794921875
16.4794921875
13.73291015625
22.88818359375
26.55029296875
29.296875
26.55029296875
14.6484375
0.91552734375
-2.74658203125
-1.8310546875
-24.71923828125
-24.71923828125
-58.59375
-80.56640625
-80.56640625
-79.65087890625
-78.7353515625
-71.4111328125
-61.34033203125
-64.0869140625
-64.0869140625
-59.50927734375
-68.66455078125
-76.904296875
-69.580078125
-92.46826171875
-102.5390625
-95.21484375
-91.552734375
-93.3837890625
-94.29931640625
-101.62353515625
-108.0322265625
-96.13037109375
-95.21484375
-90.63720703125
-96.13037109375
-92.46826171875
-72.32666015625
-65.00244140625
-73.2421875
-70.49560546875
-64.0869140625
-65.00244140625
-77.81982421875
-65.91796875
-70.49560546875
-73.2421875
-73.2421875
-89.7216796875
-104.3701171875
-109.86328125
-151.9775390625
-200.50048828125
-216.97998046875
-211.48681640625
-173.03466796875
-139.16015625
-95.21484375
-25.634765625
21.05712890625
80.56640625
167.54150390625
243.5302734375
330.50537109375
447.69287109375
579.52880859375
692.138671875
816.650390625
869.7509765625
820.3125
675.6591796875
487.060546875
398.25439453125
350.64697265625
276.4892578125
191.34521484375
109.86328125
46.69189453125
8.23974609375
-17.39501953125
-31.1279296875
-35.70556640625
-32.04345703125
-23.8037109375
-2.74658203125
9.1552734375
9.1552734375
9.1552734375
3.662109375
-15.56396484375
-33.87451171875
-38.4521484375
-44.86083984375
-28.38134765625
-27.4658203125
-41.19873046875
-28.38134765625
-27.4658203125
-33.87451171875
-46.69189453125
-40.283203125
-40.283203125
-46.69189453125
-47.607421875
-44.86083984375
-43.9453125
-34.7900390625
-38.4521484375
-31.1279296875
-29.296875
-31.1279296875
-35.70556640625
-38.4521484375
-39.36767578125
-36.62109375
-35.70556640625
-30.21240234375
-21.97265625
-18.310546875
-30.21240234375
-26.55029296875
-38.4521484375
-42.1142578125
-27.4658203125
-31.1279296875
-18.310546875
-8.23974609375
-8.23974609375
-10.986328125
-10.07080078125
2.74658203125
-1.8310546875
2.74658203125
1.8310546875
-2.74658203125
-11.90185546875
-11.90185546875
-5.4931640625
0
-0.91552734375
-9.1552734375
-1.8310546875
-5.4931640625
1.8310546875
-1.8310546875
3.662109375
2.74658203125
1.8310546875
9.1552734375
9.1552734375
7.32421875
20.1416015625
10.986328125
18.310546875
20.1416015625
21.97265625
28.38134765625
38.4521484375
25.634765625
21.05712890625
20.1416015625
27.4658203125
32.04345703125
41.19873046875
45.7763671875
60.4248046875
60.4248046875
54.01611328125
54.01611328125
59.50927734375
68.66455078125
65.00244140625
67.7490234375
74.15771484375
82.3974609375
88.80615234375
86.97509765625
85.14404296875
86.97509765625
94.29931640625
99.79248046875
91.552734375
92.46826171875
97.96142578125
92.46826171875
92.46826171875
96.13037109375
108.94775390625
116.27197265625
116.27197265625
110.77880859375
110.77880859375
123.59619140625
123.59619140625
110.77880859375
124.51171875
136.41357421875
129.08935546875
126.3427734375
124.51171875
132.75146484375
146.484375
134.58251953125
124.51171875
129.08935546875
108.94775390625
103.45458984375
105.28564453125
105.28564453125
87.890625
73.2421875
62.255859375
54.01611328125
57.67822265625
49.4384765625
28.38134765625
21.05712890625
7.32421875
-4.57763671875
-8.23974609375
-21.97265625
-19.22607421875
-34.7900390625
-28.38134765625
-22.88818359375
-21.97265625
-31.1279296875
-41.19873046875
-42.1142578125
-38.4521484375
-54.01611328125
-65.00244140625
-62.255859375
-60.4248046875
-52.18505859375
-60.4248046875
-63.17138671875
-72.32666015625
-85.14404296875
-83.31298828125
-69.580078125
-62.255859375
-72.32666015625
-69.580078125
-56.7626953125
-58.59375
-62.255859375
-58.59375
-53.1005859375
-48.52294921875
-42.1142578125
-54.931640625
-68.66455078125
-69.580078125
-62.255859375
-64.0869140625
-69.580078125
-61.34033203125
-57.67822265625
-71.4111328125
-74.15771484375
-72.32666015625
-56.7626953125
-55.84716796875
-62.255859375
-54.01611328125
-61.34033203125
-54.931640625
-54.931640625
-51.26953125
-54.931640625
-57.67822265625
-65.00244140625
-62.255859375
-62.255859375
-58.59375
-57.67822265625
-54.931640625
-56.7626953125
-61.34033203125
-67.7490234375
-75.98876953125
-74.15771484375
-74.15771484375
-58.59375
-53.1005859375
-67.7490234375
-67.7490234375
-72.32666015625
-78.7353515625
-67.7490234375
-57.67822265625
-54.01611328125
-64.0869140625
-70.49560546875
-65.00244140625
-62.255859375
-63.17138671875
-66.83349609375
-55.84716796875
-56.7626953125
-61.34033203125
-57.67822265625
-59.50927734375
-56.7626953125
-59.50927734375
-61.34033203125
-69.580078125
-75.98876953125
-67.7490234375
-51.26953125
-62.255859375
-61.34033203125
-57.67822265625
-58.59375
-56.7626953125
-63.17138671875
-65.00244140625
-70.49560546875
-82.3974609375
-79.65087890625
-74.15771484375
-78.7353515625
-91.552734375
-94.29931640625
-99.79248046875
-94.29931640625
-86.0595703125
-80.56640625
-73.2421875
-76.904296875
-97.96142578125
-87.890625
-93.3837890625
-97.96142578125
-99.79248046875
-96.13037109375
-88.80615234375
-98.876953125
-97.0458984375
-103.45458984375
-102.5390625
-96.13037109375
-82.3974609375
-76.904296875
-69.580078125
-68.66455078125
-62.255859375
-55.84716796875
-60.4248046875
-54.01611328125
-59.50927734375
-49.4384765625
-43.02978515625
-50.35400390625
-54.931640625
-43.02978515625
-44.86083984375
-39.36767578125
-24.71923828125
-24.71923828125
-32.04345703125
-36.62109375
-39.36767578125
-2.74658203125
8.23974609375
11.90185546875
15.56396484375
13.73291015625
12.8173828125
6.40869140625
-3.662109375
-4.57763671875
-10.986328125
-15.56396484375
-16.4794921875
-9.1552734375
-7.32421875
-10.07080078125
-5.4931640625
-18.310546875
-39.36767578125
-46.69189453125
-47.607421875
-51.26953125
-69.580078125
-84.228515625
-89.7216796875
-84.228515625
-78.7353515625
-73.2421875
-69.580078125
-93.3837890625
-77.81982421875
-75.0732421875
-90.63720703125
-84.228515625
-89.7216796875
-85.14404296875
-96.13037109375
-87.890625
-89.7216796875
-98.876953125
-97.96142578125
-104.3701171875
-102.5390625
-105.28564453125
-102.5390625
-97.0458984375
-108.94775390625
-109.86328125
-102.5390625
-97.96142578125
-90.63720703125
-88.80615234375
-75.98876953125
-72.32666015625
-72.32666015625
-77.81982421875
-86.97509765625
-88.80615234375
-93.3837890625
-104.3701171875
-109.86328125
-129.08935546875
-173.9501953125
-215.14892578125
-228.8818359375
-222.47314453125
-195.00732421875
-143.73779296875
-98.876953125
-44.86083984375
15.56396484375
119.0185546875
186.767578125
253.60107421875
336.9140625
460.51025390625
580.4443359375
683.89892578125
796.5087890625
845.03173828125
796.5087890625
650.93994140625
462.34130859375
379.94384765625
355.224609375
293.88427734375
185.85205078125
118.10302734375
54.931640625
13.73291015625
-6.40869140625
-21.97265625
-30.21240234375
-32.04345703125
-10.986328125
7.32421875
14.6484375
2.74658203125
6.40869140625
0.91552734375
-1.8310546875
-26.55029296875
-47.607421875
-40.283203125
-51.26953125
-45.7763671875
-43.02978515625
-42.1142578125
-36.62109375
-32.04345703125
-34.7900390625
-40.283203125
-47.607421875
-36.62109375
-39.36767578125
-40.283203125
-38.4521484375
-42.1142578125
-50.35400390625
-42.1142578125
-47.607421875
-52.18505859375
-49.4384765625
-58.59375
-63.17138671875
-51.26953125
-44.86083984375
-44.86083984375
-37.53662109375
-51.26953125
-48.52294921875
-30.21240234375
-32.958984375
-37.53662109375
-32.04345703125
-21.97265625
-15.56396484375
-14.6484375
-16.4794921875
-12.8173828125
-16.4794921875
-14.6484375
-14.6484375
-11.90185546875
-15.56396484375
-17.39501953125
-13.73291015625
-13.73291015625
-11.90185546875
-10.07080078125
-7.32421875
-6.40869140625
0.91552734375
0.91552734375
5.4931640625
12.8173828125
12.8173828125
21.05712890625
18.310546875
24.71923828125
26.55029296875
23.8037109375
10.07080078125
21.97265625
32.958984375
32.958984375
29.296875
35.70556640625
35.70556640625
38.4521484375
33.87451171875
32.04345703125
30.21240234375
32.958984375
36.62109375
45.7763671875
51.26953125
50.35400390625
55.84716796875
46.69189453125
49.4384765625
55.84716796875
73.2421875
57.67822265625
47.607421875
55.84716796875
59.50927734375
72.32666015625
59.50927734375
63.17138671875
65.00244140625
64.0869140625
64.0869140625
71.4111328125
78.7353515625
99.79248046875
119.0185546875
128.173828125
123.59619140625
117.1875
126.3427734375
115.3564453125
118.10302734375
132.75146484375
130.92041015625
130.0048828125
127.25830078125
130.0048828125
128.173828125
132.75146484375
129.08935546875
119.93408203125
122.6806640625
121.76513671875
115.3564453125
85.14404296875
101.62353515625
101.62353515625
86.97509765625
75.98876953125
59.50927734375
54.01611328125
34.7900390625
24.71923828125
24.71923828125
21.05712890625
13.73291015625
5.4931640625
-4.57763671875
-7.32421875
-27.4658203125
-36.62109375
-35.70556640625
-16.4794921875
-20.1416015625
-36.62109375
-49.4384765625
-61.34033203125
-67.7490234375
-74.15771484375
-68.66455078125
-81.48193359375
-73.2421875
-74.15771484375
-70.49560546875
-60.4248046875
-55.84716796875
-48.52294921875
-73.2421875
-86.0595703125
-75.98876953125
-70.49560546875
-70.49560546875
-62.255859375
-39.36767578125
-44.86083984375
-54.01611328125
-61.34033203125
-65.00244140625
-60.4248046875
-50.35400390625
-54.931640625
-57.67822265625
-55.84716796875
-52.18505859375
-45.7763671875
-35.70556640625
-42.1142578125
-32.958984375
-22.88818359375
-29.296875
-33.87451171875
-40.283203125
-37.53662109375
-38.4521484375
-44.86083984375
-43.02978515625
-51.26953125
-51.26953125
-56.7626953125
-50.35400390625
-34.7900390625
-38.4521484375
-41.19873046875
-41.19873046875
-44.86083984375
-54.931640625
-58.59375
-64.0869140625
-79.65087890625
-71.4111328125
-50.35400390625
-39.36767578125
-39.36767578125
-37.53662109375
-32.958984375
-28.38134765625
-36.62109375
-52.18505859375
-54.01611328125
-36.62109375
-43.02978515625
-43.9453125
-45.7763671875
-43.9453125
-48.52294921875
-45.7763671875
-49.4384765625
-50.35400390625
-48.52294921875
-57.67822265625
-68.66455078125
-67.7490234375
-67.7490234375
-65.00244140625
-65.00244140625
-57.67822265625
-57.67822265625
-47.607421875
-56.7626953125
-52.18505859375
-48.52294921875
-57.67822265625
-46.69189453125
-44.86083984375
-64.0869140625
-84.228515625
-65.00244140625
-75.0732421875
-77.81982421875
-79.65087890625
-72.32666015625
-61.34033203125
-57.67822265625
-66.83349609375
-64.0869140625
-70.49560546875
-73.2421875
-76.904296875
-66.83349609375
-67.7490234375
-65.00244140625
-64.0869140625
-71.4111328125
-77.81982421875
-76.904296875
-80.56640625
-79.65087890625
-59.50927734375
-66.83349609375
-64.0869140625
-66.83349609375
-69.580078125
-75.98876953125
-75.98876953125
-62.255859375
-70.49560546875
-72.32666015625
-74.15771484375
-80.56640625
-87.890625
-87.890625
-82.3974609375
-83.31298828125
-95.21484375
-95.21484375
-87.890625
-86.97509765625
-75.98876953125
-71.4111328125
-54.931640625
-18.310546875
-17.39501953125
-24.71923828125
-18.310546875
-21.05712890625
-16.4794921875
-15.56396484375
-17.39501953125
-13.73291015625
-19.22607421875
-18.310546875
-26.55029296875
-8.23974609375
4.57763671875
-3.662109375
-4.57763671875
-10.07080078125
0
-4.57763671875
-20.1416015625
-20.1416015625
-19.22607421875
-21.97265625
-15.56396484375
-1.8310546875
-8.23974609375
-19.22607421875
-30.21240234375
-36.62109375
-29.296875
-43.02978515625
-51.26953125
-55.84716796875
-58.59375
-53.1005859375
-63.17138671875
-76.904296875
-86.0595703125
-92.46826171875
-74.15771484375
-62.255859375
-65.91796875
-76.904296875
-75.0732421875
-67.7490234375
-80.56640625
-83.31298828125
-82.3974609375
-87.890625
-93.3837890625
-97.0458984375
-99.79248046875
-104.3701171875
-95.21484375
-94.29931640625
-80.56640625
-82.3974609375
-77.81982421875
-80.56640625
-96.13037109375
-106.201171875
-97.96142578125
-103.45458984375
-109.86328125
-78.7353515625
-80.56640625
-107.11669921875
-106.201171875
-101.62353515625
-97.96142578125
-127.25830078125
-162.04833984375
-205.078125
-227.05078125
-226.13525390625
-184.9365234375
-145.56884765625
-125.42724609375
-65.00244140625
-7.32421875
60.4248046875
140.9912109375
223.388671875
310.36376953125
417.48046875
529.1748046875
633.544921875
741.5771484375
780.029296875
756.2255859375
660.09521484375
499.8779296875
385.43701171875
349.7314453125
274.658203125
179.443359375
102.5390625
46.69189453125
-0.91552734375
-33.87451171875
-47.607421875
-53.1005859375
-41.19873046875
-17.39501953125
-7.32421875
-20.1416015625
-19.22607421875
-10.07080078125
-5.4931640625
-11.90185546875
-25.634765625
-24.71923828125
-39.36767578125
-38.4521484375
-31.1279296875
-41.19873046875
-33.87451171875
-31.1279296875
-37.53662109375
-28.38134765625
-31.1279296875
-30.21240234375
-40.283203125
-38.4521484375
-39.36767578125
-48.52294921875
-49.4384765625
-38.4521484375
-35.70556640625
-39.36767578125
-40.283203125
-43.02978515625
-40.283203125
-35.70556640625
-49.4384765625
-64.0869140625
-36.62109375
-25.634765625
-36.62109375
-34.7900390625
-27.4658203125
-27.4658203125
-32.958984375
-41.19873046875
-40.283203125
-43.02978515625
-43.02978515625
-42.1142578125
-25.634765625
-15.56396484375
-32.958984375
-19.22607421875
-10.07080078125
-10.986328125
-20.1416015625
-10.986328125
-20.1416015625
-15.56396484375
-3.662109375
-8.23974609375
0.91552734375
-0.91552734375
-4.57763671875
-1.8310546875
-8.23974609375
6.40869140625
15.56396484375
15.56396484375
11.90185546875
3.662109375
13.73291015625
11.90185546875
16.4794921875
19.22607421875
17.39501953125
32.04345703125
39.36767578125
35.70556640625
24.71923828125
38.4521484375
47.607421875
45.7763671875
50.35400390625
52.18505859375
43.02978515625
39.36767578125
27.4658203125
13.73291015625
18.310546875
41.19873046875
57.67822265625
76.904296875
80.56640625
83.31298828125
96.13037109375
99.79248046875
86.97509765625
86.97509765625
97.96142578125
101.62353515625
97.0458984375
100.7080078125
108.0322265625
99.79248046875
98.876953125
118.10302734375
114.44091796875
114.44091796875
119.93408203125
125.42724609375
130.0048828125
131.8359375
128.173828125
130.92041015625
127.25830078125
130.0048828125
136.41357421875
140.07568359375
131.8359375
140.07568359375
143.73779296875
140.9912109375
140.9912109375
129.08935546875
106.201171875
102.5390625
102.5390625
94.29931640625
93.3837890625
77.81982421875
66.83349609375
50.35400390625
20.1416015625
19.22607421875
24.71923828125
13.73291015625
-1.8310546875
7.32421875
2.74658203125
-11.90185546875
-3.662109375
-10.986328125
-19.22607421875
-22.88818359375
-30.21240234375
-38.4521484375
-41.19873046875
-37.53662109375
-32.04345703125
-35.70556640625
-45.7763671875
-54.01611328125
-65.91796875
-70.49560546875
-64.0869140625
-65.91796875
-73.2421875
-62.255859375
-59.50927734375
-68.66455078125
-76.904296875
-77.81982421875
-68.66455078125
-67.7490234375
-65.00244140625
-66.83349609375
-67.7490234375
-74.15771484375
-70.49560546875
-65.91796875
-70.49560546875
-73.2421875
-77.81982421875
-78.7353515625
-63.17138671875
-43.02978515625
-53.1005859375
-62.255859375
-63.17138671875
-75.0732421875
-75.0732421875
-73.2421875
-52.18505859375
-43.02978515625
-49.4384765625
-54.01611328125
-69.580078125
-62.255859375
-64.0869140625
-62.255859375
-51.26953125
-37.53662109375
-22.88818359375
-33.87451171875
-31.1279296875
-29.296875
-25.634765625
-31.1279296875
-36.62109375
-35.70556640625
-36.62109375
-43.02978515625
-41.19873046875
-35.70556640625
-54.931640625
-47.607421875
-51.26953125
-62.255859375
-54.01611328125
-51.26953125
-52.18505859375
-51.26953125
-57.67822265625
-65.00244140625
-69.580078125
-65.91796875
-57.67822265625
-58.59375
-57.67822265625
-50.35400390625
-52.18505859375
-49.4384765625
-50.35400390625
-45.7763671875
-47.607421875
-46.69189453125
-51.26953125
-59.50927734375
-76.904296875
-77.81982421875
-66.83349609375
-62.255859375
-57.67822265625
-62.255859375
-67.7490234375
-63.17138671875
-63.17138671875
-62.255859375
-58.59375
-66.83349609375
-83.31298828125
-86.97509765625
-74.15771484375
-75.98876953125
-76.904296875
-65.91796875
-73.2421875
-85.14404296875
-83.31298828125
-89.7216796875
-88.80615234375
-84.228515625
-82.3974609375
-73.2421875
-54.01611328125
-59.50927734375
-65.91796875
-64.0869140625
-65.00244140625
-68.66455078125
-62.255859375
-72.32666015625
-78.7353515625
-72.32666015625
-80.56640625
-85.14404296875
-91.552734375
-81.48193359375
-75.0732421875
-86.97509765625
-95.21484375
-90.63720703125
-85.14404296875
-78.7353515625
-90.63720703125
-73.2421875
-66.83349609375
-67.7490234375
-66.83349609375
-72.32666015625
-81.48193359375
-86.0595703125
-83.31298828125
-77.81982421875
-62.255859375
-41.19873046875
-26.55029296875
-33.87451171875
-25.634765625
-25.634765625
-25.634765625
-21.97265625
-17.39501953125
-17.39501953125
-16.4794921875
-14.6484375
-18.310546875
-11.90185546875
-10.986328125
-9.1552734375
-3.662109375
-5.4931640625
10.986328125
2.74658203125
-1.8310546875
7.32421875
0.91552734375
-3.662109375
0
-13.73291015625
-7.32421875
1.8310546875
-8.23974609375
-21.97265625
-17.39501953125
-21.05712890625
-28.38134765625
-48.52294921875
-54.01611328125
-67.7490234375
-68.66455078125
-66.83349609375
-72.32666015625
-75.98876953125
-78.7353515625
-77.81982421875
-73.2421875
-72.32666015625
-77.81982421875
-75.0732421875
-84.228515625
-79.65087890625
-65.91796875
-65.00244140625
-57.67822265625
-64.0869140625
-76.904296875
-75.0732421875
-94.29931640625
-91.552734375
-88.80615234375
-86.97509765625
-83.31298828125
-90.63720703125
-97.96142578125
-91.552734375
-84.228515625
-82.3974609375
-85.14404296875
-86.97509765625
-94.29931640625
-96.13037109375
-88.80615234375
-82.3974609375
-83.31298828125
-81.48193359375
-100.7080078125
-122.6806640625
-156.55517578125
-202.33154296875
-214.2333984375
-193.17626953125
-156.55517578125
-119.0185546875
-65.00244140625
-17.39501953125
35.70556640625
110.77880859375
192.2607421875
266.41845703125
363.46435546875
466.00341796875
572.20458984375
682.06787109375
797.42431640625
842.28515625
791.93115234375
650.93994140625
480.65185546875
411.07177734375
354.30908203125
255.43212890625
155.6396484375
92.46826171875
47.607421875
9.1552734375
-18.310546875
-20.1416015625
-24.71923828125
-16.4794921875
0.91552734375
10.986328125
1.8310546875
3.662109375
3.662109375
-12.8173828125
-22.88818359375
-33.87451171875
-49.4384765625
-25.634765625
-10.986328125
-23.8037109375
-22.88818359375
-26.55029296875
-27.4658203125
-26.55029296875
-31.1279296875
-38.4521484375
-31.1279296875
-33.87451171875
-31.1279296875
-28.38134765625
-28.38134765625
-22.88818359375
-20.1416015625
-19.22607421875
-12.8173828125
-24.71923828125
-37.53662109375
-53.1005859375
-40.283203125
-40.283203125
-25.634765625
-23.8037109375
-15.56396484375
-10.986328125
-20.1416015625
-20.1416015625
-20.1416015625
-12.8173828125
-12.8173828125
-16.4794921875
-10.07080078125
-7.32421875
-10.07080078125
-5.4931640625
-17.39501953125
-23.8037109375
-25.634765625
-12.8173828125
-18.310546875
-15.56396484375
-13.73291015625
-10.986328125
-9.1552734375
-8.23974609375
-4.57763671875
-7.32421875
10.986328125
12.8173828125
8.23974609375
8.23974609375
12.8173828125
21.05712890625
15.56396484375
13.73291015625
5.4931640625
3.662109375
1.8310546875
3.662109375
6.40869140625
18.310546875
37.53662109375
44.86083984375
53.1005859375
54.931640625
45.7763671875
43.9453125
40.283203125
47.607421875
53.1005859375
54.01611328125
62.255859375
65.91796875
67.7490234375
67.7490234375
68.66455078125
78.7353515625
79.65087890625
86.0595703125
82.3974609375
88.80615234375
84.228515625
89.7216796875
109.86328125
105.28564453125
109.86328125
114.44091796875
115.3564453125
119.0185546875
113.525390625
113.525390625
115.3564453125
114.44091796875
139.16015625
138.24462890625
143.73779296875
139.16015625
130.92041015625
130.0048828125
131.8359375
151.9775390625
150.146484375
147.39990234375
146.484375
152.89306640625
136.41357421875
137.3291015625
145.56884765625
131.8359375
134.58251953125
117.1875
111.6943359375
103.45458984375
107.11669921875
84.228515625
72.32666015625
75.0732421875
69.580078125
65.91796875
58.59375
59.50927734375
48.52294921875
35.70556640625
46.69189453125
23.8037109375
3.662109375
1.8310546875
4.57763671875
-11.90185546875
-19.22607421875
-12.8173828125
-11.90185546875
-21.05712890625
-21.05712890625
-27.4658203125
-32.958984375
-39.36767578125
-52.18505859375
-43.9453125
-33.87451171875
-37.53662109375
-35.70556640625
-34.7900390625
-44.86083984375
-40.283203125
-32.04345703125
-45.7763671875
-39.36767578125
-44.86083984375
-43.02978515625
-39.36767578125
-40.283203125
-43.02978515625
-45.7763671875
-62.255859375
-49.4384765625
-49.4384765625
-54.01611328125
-52.18505859375
-57.67822265625
-53.1005859375
-53.1005859375
-54.01611328125
-57.67822265625
-56.7626953125
-62.255859375
-56.7626953125
-48.52294921875
-56.7626953125
-55.84716796875
-62.255859375
-55.84716796875
-48.52294921875
-38.4521484375
-56.7626953125
-50.35400390625
-37.53662109375
-46.69189453125
-52.18505859375
-58.59375
-46.69189453125
-21.05712890625
-32.958984375
-39.36767578125
-28.38134765625
-30.21240234375
-42.1142578125
-48.52294921875
-43.02978515625
-43.02978515625
-44.86083984375
-43.02978515625
-41.19873046875
-41.19873046875
-34.7900390625
-43.02978515625
-39.36767578125
-38.4521484375
-47.607421875
-63.17138671875
-43.9453125
-48.52294921875
-52.18505859375
-44.86083984375
-49.4384765625
-50.35400390625
-43.02978515625
-51.26953125
-48.52294921875
-44.86083984375
-31.1279296875
-37.53662109375
-51.26953125
-47.607421875
-49.4384765625
-50.35400390625
-68.66455078125
-75.0732421875
-75.0732421875
-63.17138671875
-56.7626953125
-51.26953125
-54.931640625
-54.01611328125
-58.59375
-59.50927734375
-51.26953125
-56.7626953125
-54.01611328125
-60.4248046875
-63.17138671875
-55.84716796875
-70.49560546875
-65.00244140625
-54.931640625
-48.52294921875
-51.26953125
-65.91796875
-72.32666015625
-65.00244140625
-71.4111328125
-68.66455078125
-65.91796875
-75.98876953125
-74.15771484375
-80.56640625
-74.15771484375
-75.0732421875
-81.48193359375
-97.0458984375
-75.98876953125
-66.83349609375
-61.34033203125
-52.18505859375
-61.34033203125
-75.98876953125
-81.48193359375
-86.97509765625
-81.48193359375
-87.890625
-84.228515625
-77.81982421875
-70.49560546875
-65.00244140625
-62.255859375
-66.83349609375
-76.904296875
-66.83349609375
-67.7490234375
-56.7626953125
-42.1142578125
-40.283203125
-38.4521484375
-53.1005859375
-44.86083984375
-15.56396484375
-17.39501953125
-33.87451171875
-27.4658203125
-31.1279296875
-33.87451171875
-26.55029296875
-3.662109375
18.310546875
3.662109375
4.57763671875
12.8173828125
15.56396484375
-3.662109375
-1.8310546875
5.4931640625
6.40869140625
6.40869140625
5.4931640625
10.07080078125
6.40869140625
-11.90185546875
-10.986328125
-40.283203125
-42.1142578125
-44.86083984375
-54.931640625
-61.34033203125
-68.66455078125
-66.83349609375
-70.49560546875
-65.00244140625
-58.59375
-61.34033203125
-65.91796875
-67.7490234375
-72.32666015625
-65.00244140625
-66.83349609375
-75.0732421875
-77.81982421875
-89.7216796875
-97.96142578125
-92.46826171875
-83.31298828125
-89.7216796875
-88.80615234375
-88.80615234375
-107.11669921875
-100.7080078125
-102.5390625
-97.96142578125
-108.94775390625
-104.3701171875
-103.45458984375
-99.79248046875
-87.890625
-75.0732421875
-86.97509765625
-81.48193359375
-86.0595703125
-91.552734375
-86.97509765625
-75.98876953125
-81.48193359375
-99.79248046875
-111.6943359375
-136.41357421875
-173.03466796875
-205.078125
-223.388671875
-211.48681640625
-164.794921875
-115.3564453125
-72.32666015625
-10.07080078125
57.67822265625
124.51171875
199.5849609375
274.658203125
357.97119140625
478.82080078125
587.7685546875
697.6318359375
814.8193359375
846.86279296875
791.93115234375
628.0517578125
444.03076171875
377.197265625
367.12646484375
305.7861328125
189.51416015625
111.6943359375
57.67822265625
29.296875
-10.07080078125
-15.56396484375
-31.1279296875
-27.4658203125
-20.1416015625
-7.32421875
-9.1552734375
-7.32421875
6.40869140625
9.1552734375
0.91552734375
-18.310546875
-16.4794921875
-17.39501953125
-18.310546875
-21.05712890625
-20.1416015625
-32.04345703125
-36.62109375
-33.87451171875
-55.84716796875
-47.607421875
-34.7900390625
-34.7900390625
-37.53662109375
-41.19873046875
-47.607421875
-32.958984375
-34.7900390625
-35.70556640625
-32.958984375
-23.8037109375
-35.70556640625
-64.0869140625
-58.59375
-59.50927734375
-54.931640625
-37.53662109375
-32.958984375
-27.4658203125
-33.87451171875
-36.62109375
-21.05712890625
-14.6484375
-7.32421875
-9.1552734375
-12.8173828125
-0.91552734375
-4.57763671875
-10.986328125
-12.8173828125
-13.73291015625
-16.4794921875
-15.56396484375
-13.73291015625
-18.310546875
-24.71923828125
-20.1416015625
-21.97265625
-15.56396484375
3.662109375
10.07080078125
10.07080078125
14.6484375
13.73291015625
10.07080078125
13.73291015625
4.57763671875
8.23974609375
19.22607421875
21.05712890625
19.22607421875
17.39501953125
15.56396484375
21.05712890625
36.62109375
32.04345703125
34.7900390625
35.70556640625
28.38134765625
35.70556640625
39.36767578125
45.7763671875
46.69189453125
54.931640625
56.7626953125
59.50927734375
67.7490234375
67.7490234375
61.34033203125
40.283203125
50.35400390625
53.1005859375
59.50927734375
67.7490234375
68.66455078125
76.904296875
76.904296875
82.3974609375
86.0595703125
90.63720703125
94.29931640625
105.28564453125
97.96142578125
105.28564453125
110.77880859375
106.201171875
99.79248046875
110.77880859375
120.849609375
125.42724609375
132.75146484375
131.8359375
130.0048828125
117.1875
117.1875
135.498046875
127.25830078125
120.849609375
109.86328125
118.10302734375
128.173828125
126.3427734375
130.0048828125
120.849609375
119.0185546875
104.3701171875
96.13037109375
82.3974609375
86.97509765625
83.31298828125
66.83349609375
57.67822265625
47.607421875
39.36767578125
38.4521484375
36.62109375
27.4658203125
15.56396484375
10.986328125
7.32421875
0.91552734375
-6.40869140625
-22.88818359375
-27.4658203125
-19.22607421875
-37.53662109375
-40.283203125
-40.283203125
-37.53662109375
-33.87451171875
-37.53662109375
-41.19873046875
-41.19873046875
-51.26953125
-60.4248046875
-70.49560546875
-59.50927734375
-47.607421875
-46.69189453125
-39.36767578125
-48.52294921875
-53.1005859375
-51.26953125
-50.35400390625
-54.931640625
-70.49560546875
-75.98876953125
-75.98876953125
-53.1005859375
-53.1005859375
-55.84716796875
-54.01611328125
-63.17138671875
-64.0869140625
-54.01611328125
-55.84716796875
-44.86083984375
-45.7763671875
-36.62109375
-41.19873046875
-43.9453125
-46.69189453125
-33.87451171875
-28.38134765625
-32.04345703125
-37.53662109375
-41.19873046875
-43.02978515625
-44.86083984375
-44.86083984375
-51.26953125
-48.52294921875
-51.26953125
-51.26953125
-65.00244140625
-50.35400390625
-41.19873046875
-52.18505859375
-46.69189453125
-44.86083984375
-42.1142578125
-43.9453125
-48.52294921875
-45.7763671875
-44.86083984375
-38.4521484375
-37.53662109375
-49.4384765625
-48.52294921875
-44.86083984375
-50.35400390625
-50.35400390625
-39.36767578125
-40.283203125
-49.4384765625
-55.84716796875
-51.26953125
-50.35400390625
-56.7626953125
-55.84716796875
-61.34033203125
-64.0869140625
-56.7626953125
-44.86083984375
-42.1142578125
-33.87451171875
-43.9453125
-58.59375
-54.931640625
-55.84716796875
-59.50927734375
-55.84716796875
-53.1005859375
-54.01611328125
-43.02978515625
-40.283203125
-47.607421875
-47.607421875
-46.69189453125
-57.67822265625
-65.91796875
-67.7490234375
-59.50927734375
-61.34033203125
-63.17138671875
-65.91796875
-65.91796875
-74.15771484375
-79.65087890625
-60.4248046875
-62.255859375
-52.18505859375
-60.4248046875
-66.83349609375
-65.91796875
-67.7490234375
-74.15771484375
-71.4111328125
-76.904296875
-74.15771484375
-81.48193359375
-73.2421875
-77.81982421875
-64.0869140625
-61.34033203125
-67.7490234375
-60.4248046875
-68.66455078125
-57.67822265625
-69.580078125
-78.7353515625
-73.2421875
-64.0869140625
-72.32666015625
-70.49560546875
-81.48193359375
-68.66455078125
-66.83349609375
-61.34033203125
-58.59375
-63.17138671875
-55.84716796875
-53.1005859375
-54.01611328125
-45.7763671875
-36.62109375
-32.958984375
-17.39501953125
-23.8037109375
-29.296875
-35.70556640625
-35.70556640625
-31.1279296875
-29.296875
-19.22607421875
-7.32421875
-3.662109375
6.40869140625
18.310546875
11.90185546875
10.07080078125
19.22607421875
12.8173828125
12.8173828125
8.23974609375
3.662109375
-1.8310546875
14.6484375
8.23974609375
8.23974609375
-4.57763671875
-10.986328125
-14.6484375
-19.22607421875
-26.55029296875
-29.296875
-40.283203125
-45.7763671875
-58.59375
-75.0732421875
-75.98876953125
-66.83349609375
-62.255859375
-71.4111328125
-72.32666015625
-73.2421875
-83.31298828125
-86.0595703125
-84.228515625
-83.31298828125
-75.98876953125
-83.31298828125
-82.3974609375
-94.29931640625
-86.0595703125
-84.228515625
-82.3974609375
-84.228515625
-86.0595703125
-93.3837890625
-93.3837890625
-94.29931640625
-86.0595703125
-79.65087890625
-84.228515625
-80.56640625
-72.32666015625
-77.81982421875
-75.98876953125
-71.4111328125
-76.904296875
-60.4248046875
-75.98876953125
-101.62353515625
-111.6943359375
-136.41357421875
-154.72412109375
-171.20361328125
-193.17626953125
-219.7265625
-201.416015625
-147.39990234375
-107.11669921875
-45.7763671875
6.40869140625
68.66455078125
146.484375
228.8818359375
314.02587890625
396.42333984375
498.046875
606.99462890625
725.09765625
818.4814453125
834.9609375
740.66162109375
585.02197265625
428.466796875
373.53515625
303.03955078125
220.64208984375
145.56884765625
84.228515625
39.36767578125
1.8310546875
-19.22607421875
-20.1416015625
-34.7900390625
-29.296875
-6.40869140625
4.57763671875
8.23974609375
4.57763671875
0.91552734375
-4.57763671875
-15.56396484375
-27.4658203125
-19.22607421875
-21.05712890625
-23.8037109375
-20.1416015625
-23.8037109375
-24.71923828125
-33.87451171875
-37.53662109375
-32.04345703125
-20.1416015625
-27.4658203125
-38.4521484375
-40.283203125
-43.02978515625
-38.4521484375
-40.283203125
-29.296875
-19.22607421875
-29.296875
-26.55029296875
-32.04345703125
-29.296875
-22.88818359375
-28.38134765625
-20.1416015625
-14.6484375
-0.91552734375
-4.57763671875
-10.986328125
-21.05712890625
-32.958984375
-26.55029296875
-12.8173828125
-12.8173828125
-6.40869140625
4.57763671875
-5.4931640625
-7.32421875
0.91552734375
4.57763671875
-5.4931640625
-5.4931640625
-6.40869140625
-7.32421875
0.91552734375
10.986328125
8.23974609375
9.1552734375
6.40869140625
5.4931640625
8.23974609375
16.4794921875
16.4794921875
13.73291015625
21.97265625
22.88818359375
23.8037109375
13.73291015625
16.4794921875
15.56396484375
21.05712890625
11.90185546875
21.05712890625
42.1142578125
46.69189453125
42.1142578125
55.84716796875
52.18505859375
43.02978515625
52.18505859375
53.1005859375
56.7626953125
60.4248046875
61.34033203125
64.0869140625
72.32666015625
70.49560546875
85.14404296875
95.21484375
105.28564453125
99.79248046875
88.80615234375
98.876953125
104.3701171875
108.94775390625
116.27197265625
112.60986328125
113.525390625
108.0322265625
118.10302734375
116.27197265625
132.75146484375
130.92041015625
107.11669921875
114.44091796875
128.173828125
140.9912109375
144.6533203125
141.90673828125
124.51171875
133.6669921875
148.3154296875
162.9638671875
153.80859375
160.21728515625
173.9501953125
162.04833984375
154.72412109375
140.9912109375
146.484375
149.23095703125
161.1328125
148.3154296875
128.173828125
130.92041015625
119.93408203125
105.28564453125
97.96142578125
99.79248046875
97.0458984375
90.63720703125
75.0732421875
62.255859375
56.7626953125
43.02978515625
45.7763671875
32.958984375
21.97265625
27.4658203125
6.40869140625
-9.1552734375
-1.8310546875
-15.56396484375
-21.97265625
-18.310546875
-14.6484375
-17.39501953125
-24.71923828125
-28.38134765625
-34.7900390625
-43.9453125
-34.7900390625
-33.87451171875
-44.86083984375
-59.50927734375
-53.1005859375
-43.02978515625
-47.607421875
-39.36767578125
-43.9453125
-52.18505859375
-54.01611328125
-47.607421875
-53.1005859375
-51.26953125
-50.35400390625
-48.52294921875
-45.7763671875
-41.19873046875
-37.53662109375
-32.958984375
-32.958984375
-35.70556640625
-40.283203125
-41.19873046875
-43.9453125
-46.69189453125
-36.62109375
-25.634765625
-30.21240234375
-35.70556640625
-27.4658203125
-27.4658203125
-48.52294921875
-46.69189453125
-39.36767578125
-51.26953125
-58.59375
-38.4521484375
-36.62109375
-32.04345703125
-34.7900390625
-38.4521484375
-31.1279296875
-35.70556640625
-41.19873046875
-42.1142578125
-37.53662109375
-39.36767578125
-35.70556640625
-28.38134765625
-30.21240234375
-30.21240234375
-27.4658203125
-32.04345703125
-47.607421875
-41.19873046875
-21.05712890625
-43.02978515625
-36.62109375
-41.19873046875
-43.9453125
-39.36767578125
-29.296875
-36.62109375
-32.04345703125
-37.53662109375
-32.958984375
-39.36767578125
-24.71923828125
-37.53662109375
-41.19873046875
-37.53662109375
-44.86083984375
-45.7763671875
-51.26953125
-47.607421875
-40.283203125
-41.19873046875
-42.1142578125
-43.02978515625
-46.69189453125
-43.9453125
-43.02978515625
-44.86083984375
-49.4384765625
-46.69189453125
-54.931640625
-57.67822265625
-75.0732421875
-61.34033203125
-58.59375
-58.59375
-47.607421875
-49.4384765625
-44.86083984375
-49.4384765625
-42.1142578125
-50.35400390625
-54.931640625
-52.18505859375
-58.59375
-62.255859375
-62.255859375
-51.26953125
-52.18505859375
-60.4248046875
-52.18505859375
-43.9453125
-49.4384765625
-60.4248046875
-62.255859375
-60.4248046875
-75.98876953125
-61.34033203125
-57.67822265625
-66.83349609375
-65.91796875
-58.59375
-48.52294921875
-50.35400390625
-54.01611328125
-50.35400390625
-54.931640625
-71.4111328125
-63.17138671875
-59.50927734375
-54.01611328125
-60.4248046875
-72.32666015625
-58.59375
-60.4248046875
-66.83349609375
-67.7490234375
-63.17138671875
-57.67822265625
-56.7626953125
-62.255859375
-62.255859375
-65.91796875
-70.49560546875
-63.17138671875
-47.607421875
-33.87451171875
-25.634765625
-10.07080078125
-2.74658203125
-4.57763671875
-21.05712890625
-11.90185546875
-7.32421875
-14.6484375
-9.1552734375
-9.1552734375
-2.74658203125
1.8310546875
5.4931640625
19.22607421875
15.56396484375
19.22607421875
21.97265625
29.296875
17.39501953125
9.1552734375
9.1552734375
-18.310546875
6.40869140625
14.6484375
19.22607421875
22.88818359375
10.07080078125
-17.39501953125
-13.73291015625
-7.32421875
-20.1416015625
-33.87451171875
-50.35400390625
-51.26953125
-46.69189453125
-44.86083984375
-48.52294921875
-63.17138671875
-63.17138671875
-59.50927734375
-51.26953125
-63.17138671875
-63.17138671875
-71.4111328125
-73.2421875
-69.580078125
-75.0732421875
-74.15771484375
-81.48193359375
-77.81982421875
-72.32666015625
-82.3974609375
-88.80615234375
-91.552734375
-89.7216796875
-85.14404296875
-86.97509765625
-64.0869140625
-66.83349609375
-69.580078125
-69.580078125
-76.904296875
-84.228515625
-83.31298828125
-79.65087890625
-84.228515625
-86.0595703125
-85.14404296875
-82.3974609375
-82.3974609375
-94.29931640625
-94.29931640625
-111.6943359375
-148.3154296875
-177.6123046875
-193.17626953125
-183.10546875
-151.9775390625
-114.44091796875
-70.49560546875
-19.22607421875
4.57763671875
89.7216796875
188.5986328125
262.75634765625
346.98486328125
464.17236328125
568.54248046875
674.74365234375
789.1845703125
845.947265625
812.98828125
685.72998046875
504.45556640625
421.142578125
370.78857421875
270.08056640625
180.35888671875
114.44091796875
65.00244140625
33.87451171875
-4.57763671875
-21.97265625
-40.283203125
-22.88818359375
12.8173828125
21.97265625
7.32421875
8.23974609375
6.40869140625
8.23974609375
-7.32421875
-24.71923828125
-6.40869140625
-14.6484375
-16.4794921875
-15.56396484375
-13.73291015625
-12.8173828125
-26.55029296875
-34.7900390625
-43.02978515625
-25.634765625
-19.22607421875
-34.7900390625
-27.4658203125
-17.39501953125
-22.88818359375
-21.97265625
-30.21240234375
-31.1279296875
-42.1142578125
-32.04345703125
-19.22607421875
-22.88818359375
-16.4794921875
-6.40869140625
-0.91552734375
7.32421875
-10.986328125
-12.8173828125
-7.32421875
-15.56396484375
-9.1552734375
-2.74658203125
-1.8310546875
0.91552734375
14.6484375
13.73291015625
12.8173828125
5.4931640625
6.40869140625
-18.310546875
-8.23974609375
-0.91552734375
10.986328125
16.4794921875
11.90185546875
0
20.1416015625
34.7900390625
22.88818359375
7.32421875
11.90185546875
25.634765625
9.1552734375
1.8310546875
21.05712890625
25.634765625
33.87451171875
36.62109375
35.70556640625
34.7900390625
38.4521484375
35.70556640625
32.04345703125
36.62109375
36.62109375
36.62109375
53.1005859375
49.4384765625
44.86083984375
43.9453125
58.59375
61.34033203125
66.83349609375
67.7490234375
68.66455078125
75.98876953125
88.80615234375
100.7080078125
98.876953125
89.7216796875
96.13037109375
90.63720703125
100.7080078125
96.13037109375
86.0595703125
78.7353515625
99.79248046875
100.7080078125
114.44091796875
115.3564453125
108.94775390625
109.86328125
127.25830078125
130.0048828125
130.0048828125
134.58251953125
140.9912109375
142.822265625
152.89306640625
150.146484375
146.484375
148.3154296875
158.38623046875
161.1328125
173.03466796875
165.71044921875
163.87939453125
160.21728515625
158.38623046875
141.90673828125
146.484375
151.9775390625
140.9912109375
138.24462890625
135.498046875
124.51171875
112.60986328125
116.27197265625
123.59619140625
116.27197265625
83.31298828125
79.65087890625
72.32666015625
61.34033203125
54.01611328125
45.7763671875
37.53662109375
30.21240234375
23.8037109375
21.97265625
8.23974609375
4.57763671875
-6.40869140625
-11.90185546875
-22.88818359375
-16.4794921875
-21.97265625
-16.4794921875
-20.1416015625
-23.8037109375
-18.310546875
-31.1279296875
-33.87451171875
-37.53662109375
-40.283203125
-46.69189453125
-56.7626953125
-58.59375
-50.35400390625
-37.53662109375
-40.283203125
-45.7763671875
-41.19873046875
-46.69189453125
-48.52294921875
-28.38134765625
-31.1279296875
-28.38134765625
-30.21240234375
-39.36767578125
-39.36767578125
-29.296875
-24.71923828125
-35.70556640625
-34.7900390625
-39.36767578125
-49.4384765625
-50.35400390625
-43.02978515625
-53.1005859375
-53.1005859375
-57.67822265625
-37.53662109375
-41.19873046875
-45.7763671875
-47.607421875
-30.21240234375
-36.62109375
-33.87451171875
-37.53662109375
-34.7900390625
-42.1142578125
-38.4521484375
-46.69189453125
-44.86083984375
-32.04345703125
-27.4658203125
-21.05712890625
-27.4658203125
-35.70556640625
-37.53662109375
-25.634765625
-25.634765625
-38.4521484375
-42.1142578125
-28.38134765625
-37.53662109375
-39.36767578125
-41.19873046875
-34.7900390625
-24.71923828125
-26.55029296875
-22.88818359375
-24.71923828125
-35.70556640625
-34.7900390625
-32.04345703125
-31.1279296875
-31.1279296875
-34.7900390625
-29.296875
-46.69189453125
-27.4658203125
-25.634765625
-32.04345703125
-39.36767578125
-39.36767578125
-50.35400390625
-43.02978515625
-52.18505859375
-43.02978515625
-43.9453125
-46.69189453125
-42.1142578125
-43.9453125
-48.52294921875
-60.4248046875
-59.50927734375
-56.7626953125
-63.17138671875
-68.66455078125
-50.35400390625
-50.35400390625
-49.4384765625
-52.18505859375
-53.1005859375
-57.67822265625
-58.59375
-64.0869140625
-61.34033203125
-50.35400390625
-46.69189453125
-61.34033203125
-65.00244140625
-65.00244140625
-66.83349609375
-60.4248046875
-48.52294921875
-50.35400390625
-52.18505859375
-65.00244140625
-67.7490234375
-57.67822265625
-56.7626953125
-62.255859375
-56.7626953125
-61.34033203125
-67.7490234375
-75.0732421875
-72.32666015625
-78.7353515625
-66.83349609375
-66.83349609375
-67.7490234375
-67.7490234375
-73.2421875
-65.91796875
-57.67822265625
-56.7626953125
-48.52294921875
-48.52294921875
-59.50927734375
-54.931640625
-64.0869140625
-74.15771484375
-47.607421875
-65.00244140625
-67.7490234375
-55.84716796875
-56.7626953125
-56.7626953125
-64.0869140625
-67.7490234375
-65.91796875
-60.4248046875
-50.35400390625
-29.296875
-17.39501953125
-8.23974609375
-9.1552734375
-21.97265625
-22.88818359375
-15.56396484375
-21.97265625
-30.21240234375
-26.55029296875
-32.04345703125
-4.57763671875
7.32421875
13.73291015625
7.32421875
3.662109375
-0.91552734375
0
11.90185546875
8.23974609375
10.07080078125
18.310546875
16.4794921875
10.07080078125
7.32421875
-0.91552734375
-1.8310546875
-21.05712890625
-19.22607421875
-18.310546875
-30.21240234375
-29.296875
-61.34033203125
-43.02978515625
-54.01611328125
-56.7626953125
-54.931640625
-54.931640625
-64.0869140625
-65.00244140625
-68.66455078125
-55.84716796875
-59.50927734375
-55.84716796875
-61.34033203125
-71.4111328125
-71.4111328125
-71.4111328125
-69.580078125
-73.2421875
-66.83349609375
-64.0869140625
-62.255859375
-62.255859375
-74.15771484375
-78.7353515625
-77.81982421875
-79.65087890625
-80.56640625
-78.7353515625
-97.96142578125
-98.876953125
-93.3837890625
-101.62353515625
-97.96142578125
-69.580078125
-70.49560546875
-75.98876953125
-65.00244140625
-66.83349609375
-86.97509765625
-109.86328125
-138.24462890625
-172.119140625
-203.2470703125
-202.33154296875
-182.18994140625
-141.90673828125
-100.7080078125
-47.607421875
7.32421875
65.91796875
144.6533203125
218.81103515625
294.7998046875
387.26806640625
496.2158203125
620.7275390625
742.49267578125
842.28515625
856.01806640625
771.78955078125
597.83935546875
419.3115234375
368.0419921875
334.16748046875
263.671875
166.6259765625
96.13037109375
65.91796875
34.7900390625
10.986328125
-9.1552734375
-30.21240234375
-26.55029296875
3.662109375
17.39501953125
10.07080078125
22.88818359375
15.56396484375
3.662109375
-7.32421875
4.57763671875
-2.74658203125
-10.986328125
-32.958984375
-25.634765625
-31.1279296875
-27.4658203125
-18.310546875
-18.310546875
-21.97265625
-26.55029296875
-21.05712890625
-17.39501953125
-17.39501953125
-26.55029296875
-54.931640625
-47.607421875
-29.296875
-31.1279296875
-19.22607421875
-11.90185546875
-5.4931640625
-9.1552734375
-21.05712890625
-14.6484375
-4.57763671875
-10.07080078125
-10.986328125
-9.1552734375
-6.40869140625
-21.05712890625
-12.8173828125
-6.40869140625
-9.1552734375
0.91552734375
-8.23974609375
-7.32421875
0.91552734375
0
0
-7.32421875
0
5.4931640625
1.8310546875
8.23974609375
6.40869140625
-4.57763671875
-16.4794921875
-5.4931640625
15.56396484375
17.39501953125
17.39501953125
12.8173828125
28.38134765625
17.39501953125
11.90185546875
10.986328125
19.22607421875
11.90185546875
25.634765625
37.53662109375
30.21240234375
27.4658203125
21.97265625
22.88818359375
29.296875
38.4521484375
57.67822265625
57.67822265625
50.35400390625
46.69189453125
48.52294921875
48.52294921875
45.7763671875
55.84716796875
63.17138671875
75.0732421875
72.32666015625
77.81982421875
97.96142578125
88.80615234375
91.552734375
100.7080078125
92.46826171875
97.96142578125
105.28564453125
108.94775390625
112.60986328125
108.94775390625
106.201171875
112.60986328125
111.6943359375
109.86328125
106.201171875
121.76513671875
129.08935546875
135.498046875
140.07568359375
129.08935546875
125.42724609375
140.07568359375
148.3154296875
149.23095703125
151.06201171875
149.23095703125
144.6533203125
130.92041015625
130.0048828125
127.25830078125
139.16015625
157.470703125
146.484375
145.56884765625
133.6669921875
131.8359375
117.1875
109.86328125
112.60986328125
109.86328125
90.63720703125
90.63720703125
83.31298828125
68.66455078125
62.255859375
54.931640625
43.02978515625
37.53662109375
37.53662109375
31.1279296875
43.9453125
40.283203125
10.986328125
3.662109375
-3.662109375
-1.8310546875
-8.23974609375
-18.310546875
-28.38134765625
-46.69189453125
-8.23974609375
-14.6484375
-31.1279296875
-18.310546875
-20.1416015625
-19.22607421875
-25.634765625
-31.1279296875
-26.55029296875
-28.38134765625
-32.958984375
-34.7900390625
-36.62109375
-31.1279296875
-25.634765625
-33.87451171875
-46.69189453125
-32.04345703125
-19.22607421875
-29.296875
-29.296875
-12.8173828125
-21.97265625
-41.19873046875
-34.7900390625
-32.958984375
-39.36767578125
-32.958984375
-37.53662109375
-32.958984375
-18.310546875
-21.05712890625
-20.1416015625
-23.8037109375
-33.87451171875
-35.70556640625
-30.21240234375
-21.05712890625
-30.21240234375
-33.87451171875
-31.1279296875
-42.1142578125
-26.55029296875
-21.05712890625
-20.1416015625
-15.56396484375
-16.4794921875
-26.55029296875
-29.296875
-34.7900390625
-29.296875
-22.88818359375
-23.8037109375
-24.71923828125
-21.05712890625
-24.71923828125
-26.55029296875
-38.4521484375
-28.38134765625
-18.310546875
-10.986328125
-18.310546875
-36.62109375
-33.87451171875
-19.22607421875
-15.56396484375
-10.986328125
-18.310546875
-19.22607421875
-3.662109375
5.4931640625
-4.57763671875
-9.1552734375
-5.4931640625
-24.71923828125
-34.7900390625
-33.87451171875
-31.1279296875
-29.296875
-29.296875
-19.22607421875
-23.8037109375
-32.958984375
-36.62109375
-25.634765625
-24.71923828125
-25.634765625
-30.21240234375
-25.634765625
-22.88818359375
-22.88818359375
-29.296875
-22.88818359375
-25.634765625
-26.55029296875
-31.1279296875
-43.02978515625
-39.36767578125
-31.1279296875
-37.53662109375
-42.1142578125
-51.26953125
-32.04345703125
-35.70556640625
-46.69189453125
-52.18505859375
-54.01611328125
-47.607421875
-41.19873046875
-39.36767578125
-42.1142578125
-43.9453125
-45.7763671875
-45.7763671875
-41.19873046875
-42.1142578125
-43.9453125
-54.01611328125
-47.607421875
-57.67822265625
-66.83349609375
-40.283203125
-38.4521484375
-43.02978515625
-48.52294921875
-37.53662109375
-43.02978515625
-32.958984375
-29.296875
-35.70556640625
-31.1279296875
-32.04345703125
-23.8037109375
-35.70556640625
-36.62109375
-33.87451171875
-37.53662109375
-38.4521484375
-33.87451171875
-43.02978515625
-39.36767578125
-21.97265625
-5.4931640625
1.8310546875
-1.8310546875
-4.57763671875
-3.662109375
-14.6484375
14.6484375
15.56396484375
8.23974609375
3.662109375
32.04345703125
35.70556640625
41.19873046875
44.86083984375
39.36767578125
49.4384765625
44.86083984375
48.52294921875
41.19873046875
43.02978515625
39.36767578125
36.62109375
51.26953125
38.4521484375
37.53662109375
36.62109375
22.88818359375
-0.91552734375
-0.91552734375
-12.8173828125
-11.90185546875
-21.05712890625
-32.04345703125
-35.70556640625
-38.4521484375
-53.1005859375
-62.255859375
-60.4248046875
-49.4384765625
-43.02978515625
-43.9453125
-49.4384765625
-47.607421875
-48.52294921875
-68.66455078125
-67.7490234375
-46.69189453125
-55.84716796875
-48.52294921875
-49.4384765625
-56.7626953125
-49.4384765625
-61.34033203125
-57.67822265625
-63.17138671875
-81.48193359375
-62.255859375
-61.34033203125
-65.00244140625
-60.4248046875
-65.00244140625
-57.67822265625
-61.34033203125
-63.17138671875
-52.18505859375
-51.26953125
-55.84716796875
-64.0869140625
-56.7626953125
-65.91796875
-58.59375
-97.0458984375
-154.72412109375
-184.02099609375
-194.091796875
-173.03466796875
-118.10302734375
-84.228515625
-36.62109375
14.6484375
74.15771484375
150.146484375
211.48681640625
303.955078125
400.08544921875
520.93505859375
633.544921875
747.98583984375
853.271484375
864.2578125
795.59326171875
633.544921875
462.34130859375
403.74755859375
364.3798828125
278.3203125
183.10546875
107.11669921875
38.4521484375
30.21240234375
23.8037109375
7.32421875
5.4931640625
8.23974609375
21.05712890625
37.53662109375
26.55029296875
18.310546875
21.05712890625
11.90185546875
10.07080078125
10.986328125
10.986328125
6.40869140625
-9.1552734375
-9.1552734375
-14.6484375
-10.986328125
-8.23974609375
-8.23974609375
-10.986328125
-11.90185546875
-25.634765625
-11.90185546875
-10.07080078125
-9.1552734375
-3.662109375
2.74658203125
1.8310546875
1.8310546875
7.32421875
9.1552734375
0.91552734375
-3.662109375
-16.4794921875
-19.22607421875
-1.8310546875
-3.662109375
-4.57763671875
1.8310546875
5.4931640625
-4.57763671875
0
19.22607421875
17.39501953125
20.1416015625
18.310546875
29.296875
15.56396484375
13.73291015625
25.634765625
21.05712890625
22.88818359375
13.73291015625
11.90185546875
19.22607421875
22.88818359375
32.958984375
31.1279296875
30.21240234375
21.05712890625
5.4931640625
16.4794921875
32.04345703125
30.21240234375
28.38134765625
32.958984375
33.87451171875
44.86083984375
50.35400390625
47.607421875
42.1142578125
48.52294921875
51.26953125
47.607421875
46.69189453125
49.4384765625
53.1005859375
64.0869140625
70.49560546875
67.7490234375
79.65087890625
79.65087890625
91.552734375
88.80615234375
85.14404296875
73.2421875
69.580078125
78.7353515625
77.81982421875
83.31298828125
95.21484375
112.60986328125
108.0322265625
108.0322265625
115.3564453125
114.44091796875
112.60986328125
130.0048828125
136.41357421875
140.9912109375
138.24462890625
140.07568359375
140.07568359375
126.3427734375
148.3154296875
149.23095703125
151.9775390625
162.9638671875
153.80859375
159.3017578125
155.6396484375
155.6396484375
162.9638671875
151.06201171875
169.37255859375
175.78125
171.20361328125
177.6123046875
168.45703125
160.21728515625
169.37255859375
157.470703125
154.72412109375
171.20361328125
152.89306640625
142.822265625
136.41357421875
133.6669921875
129.08935546875
122.6806640625
104.3701171875
77.81982421875
75.0732421875
55.84716796875
53.1005859375
54.931640625
41.19873046875
31.1279296875
25.634765625
19.22607421875
14.6484375
16.4794921875
15.56396484375
2.74658203125
-12.8173828125
-8.23974609375
-12.8173828125
-8.23974609375
-16.4794921875
-23.8037109375
-9.1552734375
-13.73291015625
-14.6484375
-8.23974609375
-21.97265625
-30.21240234375
-29.296875
-23.8037109375
-40.283203125
-42.1142578125
-39.36767578125
-44.86083984375
-40.283203125
-32.958984375
-33.87451171875
-40.283203125
-44.86083984375
-39.36767578125
-42.1142578125
-29.296875
-26.55029296875
-33.87451171875
-34.7900390625
-39.36767578125
-33.87451171875
-28.38134765625
-24.71923828125
-36.62109375
-43.02978515625
-34.7900390625
-24.71923828125
-36.62109375
-29.296875
-29.296875
-33.87451171875
-37.53662109375
-41.19873046875
-38.4521484375
-22.88818359375
-20.1416015625
-23.8037109375
-29.296875
-24.71923828125
-25.634765625
-24.71923828125
-31.1279296875
-26.55029296875
-15.56396484375
-6.40869140625
-21.97265625
-27.4658203125
-37.53662109375
-25.634765625
-23.8037109375
-32.04345703125
-32.958984375
-43.9453125
-38.4521484375
-34.7900390625
-29.296875
-21.05712890625
-26.55029296875
-32.04345703125
-25.634765625
-23.8037109375
-25.634765625
-32.958984375
-32.04345703125
-32.958984375
-34.7900390625
-47.607421875
-40.283203125
-32.04345703125
-33.87451171875
-32.958984375
-30.21240234375
-43.9453125
-46.69189453125
-47.607421875
-36.62109375
-33.87451171875
-28.38134765625
-33.87451171875
-32.04345703125
-32.958984375
-28.38134765625
-32.958984375
-51.26953125
-57.67822265625
-39.36767578125
-38.4521484375
-48.52294921875
-40.283203125
-42.1142578125
-49.4384765625
-41.19873046875
-41.19873046875
-63.17138671875
-62.255859375
-48.52294921875
-56.7626953125
-54.01611328125
-52.18505859375
-50.35400390625
-51.26953125
-59.50927734375
-59.50927734375
-55.84716796875
-65.00244140625
-67.7490234375
-56.7626953125
-52.18505859375
-60.4248046875
-62.255859375
-69.580078125
-50.35400390625
-59.50927734375
-58.59375
-54.01611328125
-48.52294921875
-49.4384765625
-66.83349609375
-61.34033203125
-52.18505859375
-51.26953125
-64.0869140625
-49.4384765625
-62.255859375
-79.65087890625
-78.7353515625
-84.228515625
-79.65087890625
-74.15771484375
-77.81982421875
-69.580078125
-63.17138671875
-53.1005859375
-47.607421875
-47.607421875
-54.01611328125
-51.26953125
-37.53662109375
-34.7900390625
-29.296875
-30.21240234375
-25.634765625
-10.07080078125
-5.4931640625
-12.8173828125
-10.07080078125
-13.73291015625
-15.56396484375
-16.4794921875
-15.56396484375
-8.23974609375
0
6.40869140625
18.310546875
28.38134765625
19.22607421875
22.88818359375
43.02978515625
30.21240234375
20.1416015625
23.8037109375
15.56396484375
11.90185546875
5.4931640625
7.32421875
21.97265625
9.1552734375
0.91552734375
-3.662109375
-21.05712890625
-32.04345703125
-23.8037109375
-32.958984375
-36.62109375
-43.02978515625
-52.18505859375
-54.931640625
-55.84716796875
-55.84716796875
-57.67822265625
-73.2421875
-55.84716796875
-51.26953125
-54.01611328125
-53.1005859375
-56.7626953125
-54.931640625
-54.931640625
-63.17138671875
-71.4111328125
-64.0869140625
-65.00244140625
-64.0869140625
-72.32666015625
-70.49560546875
-77.81982421875
-80.56640625
-81.48193359375
-74.15771484375
-73.2421875
-82.3974609375
-76.904296875
-68.66455078125
-74.15771484375
-71.4111328125
-66.83349609375
-65.00244140625
-70.49560546875
-57.67822265625
-70.49560546875
-72.32666015625
-81.48193359375
-97.96142578125
-137.3291015625
-176.69677734375
-195.9228515625
-184.02099609375
-145.56884765625
-110.77880859375
-74.15771484375
-11.90185546875
45.7763671875
123.59619140625
193.17626953125
255.43212890625
354.30908203125
458.67919921875
568.54248046875
684.814453125
798.33984375
842.28515625
800.1708984375
685.72998046875
509.94873046875
402.83203125
353.3935546875
261.8408203125
168.45703125
113.525390625
59.50927734375
17.39501953125
-6.40869140625
-33.87451171875
-20.1416015625
-30.21240234375
-11.90185546875
21.97265625
13.73291015625
20.1416015625
25.634765625
30.21240234375
23.8037109375
4.57763671875
-14.6484375
-17.39501953125
-21.05712890625
-20.1416015625
-28.38134765625
-33.87451171875
-54.931640625
-37.53662109375
-29.296875
-32.04345703125
-29.296875
-25.634765625
-25.634765625
-30.21240234375
-32.958984375
-31.1279296875
-38.4521484375
-43.9453125
-48.52294921875
-54.01611328125
-52.18505859375
-54.931640625
-49.4384765625
-35.70556640625
-9.1552734375
3.662109375
20.1416015625
7.32421875
-10.986328125
-13.73291015625
-20.1416015625
-14.6484375
-19.22607421875
-14.6484375
-11.90185546875
-21.05712890625
-23.8037109375
-32.958984375
-23.8037109375
0
-9.1552734375
-10.986328125
-14.6484375
-10.986328125
3.662109375
12.8173828125
4.57763671875
9.1552734375
9.1552734375
5.4931640625
8.23974609375
6.40869140625
0
10.986328125
23.8037109375
22.88818359375
25.634765625
29.296875
31.1279296875
28.38134765625
26.55029296875
30.21240234375
35.70556640625
26.55029296875
37.53662109375
40.283203125
40.283203125
43.9453125
31.1279296875
30.21240234375
42.1142578125
53.1005859375
58.59375
65.00244140625
70.49560546875
68.66455078125
69.580078125
76.904296875
82.3974609375
83.31298828125
93.3837890625
97.96142578125
94.29931640625
89.7216796875
97.0458984375
105.28564453125
98.876953125
103.45458984375
115.3564453125
120.849609375
127.25830078125
122.6806640625
130.92041015625
137.3291015625
136.41357421875
147.39990234375
142.822265625
135.498046875
140.07568359375
149.23095703125
148.3154296875
151.9775390625
146.484375
151.06201171875
149.23095703125
149.23095703125
152.89306640625
144.6533203125
142.822265625
142.822265625
144.6533203125
140.9912109375
128.173828125
131.8359375
132.75146484375
115.3564453125
111.6943359375
114.44091796875
107.11669921875
89.7216796875
70.49560546875
65.00244140625
66.83349609375
62.255859375
47.607421875
37.53662109375
47.607421875
28.38134765625
21.97265625
13.73291015625
10.986328125
-1.8310546875
-8.23974609375
-10.986328125
-18.310546875
-21.05712890625
-22.88818359375
-36.62109375
-48.52294921875
-54.931640625
-54.931640625
-48.52294921875
-49.4384765625
-39.36767578125
-40.283203125
-45.7763671875
-53.1005859375
-54.931640625
-55.84716796875
-59.50927734375
-45.7763671875
-50.35400390625
-57.67822265625
-57.67822265625
-49.4384765625
-49.4384765625
-56.7626953125
-54.931640625
-61.34033203125
-62.255859375
-55.84716796875
-48.52294921875
-45.7763671875
-48.52294921875
-45.7763671875
-51.26953125
-64.0869140625
-61.34033203125
-64.0869140625
-59.50927734375
-54.01611328125
-60.4248046875
-53.1005859375
-65.00244140625
-48.52294921875
-40.283203125
-43.02978515625
-40.283203125
-53.1005859375
-56.7626953125
-66.83349609375
-65.91796875
-57.67822265625
-47.607421875
-48.52294921875
-51.26953125
-58.59375
-51.26953125
-52.18505859375
-47.607421875
-49.4384765625
-43.9453125
-46.69189453125
-46.69189453125
-48.52294921875
-44.86083984375
-48.52294921875
-43.02978515625
-39.36767578125
-38.4521484375
-37.53662109375
-46.69189453125
-54.931640625
-43.9453125
-38.4521484375
-43.9453125
-51.26953125
-53.1005859375
-53.1005859375
-44.86083984375
-49.4384765625
-59.50927734375
-54.01611328125
-51.26953125
-49.4384765625
-51.26953125
-45.7763671875
-41.19873046875
-53.1005859375
-58.59375
-49.4384765625
-55.84716796875
-54.01611328125
-47.607421875
-64.0869140625
-71.4111328125
-57.67822265625
-54.01611328125
-55.84716796875
-57.67822265625
-51.26953125
-65.00244140625
-64.0869140625
-53.1005859375
-57.67822265625
-62.255859375
-58.59375
-65.91796875
-69.580078125
-65.00244140625
-62.255859375
-63.17138671875
-66.83349609375
-64.0869140625
-65.91796875
-63.17138671875
-65.00244140625
-74.15771484375
-68.66455078125
-70.49560546875
-65.91796875
-63.17138671875
-69.580078125
-73.2421875
-58.59375
-68.66455078125
-70.49560546875
-45.7763671875
-58.59375
-69.580078125
-66.83349609375
-63.17138671875
-64.0869140625
-56.7626953125
-61.34033203125
-71.4111328125
-73.2421875
-76.904296875
-86.0595703125
-86.0595703125
-75.0732421875
-77.81982421875
-75.0732421875
-80.56640625
-82.3974609375
-75.0732421875
-72.32666015625
-73.2421875
-81.48193359375
-76.904296875
-63.17138671875
-51.26953125
-23.8037109375
-9.1552734375
-20.1416015625
-26.55029296875
-12.8173828125
-15.56396484375
-15.56396484375
-8.23974609375
-13.73291015625
-13.73291015625
-15.56396484375
1.8310546875
5.4931640625
10.986328125
13.73291015625
10.07080078125
19.22607421875
14.6484375
13.73291015625
8.23974609375
4.57763671875
3.662109375
10.986328125
9.1552734375
11.90185546875
11.90185546875
6.40869140625
6.40869140625
-20.1416015625
-23.8037109375
-41.19873046875
-47.607421875
-46.69189453125
-65.00244140625
-58.59375
-60.4248046875
-75.0732421875
-77.81982421875
-80.56640625
-95.21484375
-73.2421875
-69.580078125
-81.48193359375
-71.4111328125
-58.59375
-63.17138671875
-69.580078125
-72.32666015625
-77.81982421875
-85.14404296875
-77.81982421875
-65.00244140625
-65.00244140625
-77.81982421875
-86.0595703125
-85.14404296875
-79.65087890625
-72.32666015625
-77.81982421875
-78.7353515625
-87.890625
-88.80615234375
-97.96142578125
-102.5390625
-97.0458984375
-104.3701171875
-107.11669921875
-86.97509765625
-73.2421875
-88.80615234375
-108.94775390625
-124.51171875
-151.06201171875
-192.2607421875
-202.33154296875
-203.2470703125
-173.9501953125
-127.25830078125
-86.0595703125
-37.53662109375
21.97265625
99.79248046875
176.69677734375
255.43212890625
328.67431640625
432.12890625
557.55615234375
655.517578125
769.95849609375
844.1162109375
817.56591796875
696.71630859375
520.01953125
415.6494140625
366.2109375
266.41845703125
170.2880859375
110.77880859375
62.255859375
29.296875
-1.8310546875
-30.21240234375
-40.283203125
-35.70556640625
-9.1552734375
6.40869140625
1.8310546875
2.74658203125
4.57763671875
7.32421875
-1.8310546875
-10.986328125
-17.39501953125
-28.38134765625
-32.958984375
-29.296875
-35.70556640625
-38.4521484375
-53.1005859375
-32.958984375
-24.71923828125
-37.53662109375
-37.53662109375
-37.53662109375
-43.02978515625
-43.9453125
-34.7900390625
-38.4521484375
-39.36767578125
-32.958984375
-37.53662109375
-37.53662109375
-32.04345703125
-31.1279296875
-40.283203125
-51.26953125
-40.283203125
-36.62109375
-55.84716796875
-58.59375
-46.69189453125
-24.71923828125
-23.8037109375
-42.1142578125
-33.87451171875
-21.05712890625
-7.32421875
-19.22607421875
-16.4794921875
-21.97265625
-17.39501953125
-18.310546875
-18.310546875
-6.40869140625
-10.986328125
-16.4794921875
-14.6484375
-9.1552734375
-8.23974609375
-11.90185546875
-4.57763671875
-3.662109375
-5.4931640625
-12.8173828125
-4.57763671875
-6.40869140625
-7.32421875
2.74658203125
0.91552734375
13.73291015625
21.05712890625
17.39501953125
19.22607421875
29.296875
27.4658203125
28.38134765625
16.4794921875
8.23974609375
25.634765625
27.4658203125
23.8037109375
32.04345703125
42.1142578125
44.86083984375
37.53662109375
31.1279296875
38.4521484375
40.283203125
51.26953125
46.69189453125
54.931640625
67.7490234375
75.98876953125
81.48193359375
78.7353515625
84.228515625
93.3837890625
86.0595703125
83.31298828125
90.63720703125
92.46826171875
92.46826171875
93.3837890625
95.21484375
97.96142578125
103.45458984375
107.11669921875
86.0595703125
101.62353515625
124.51171875
113.525390625
123.59619140625
124.51171875
135.498046875
130.92041015625
129.08935546875
134.58251953125
130.0048828125
131.8359375
138.24462890625
133.6669921875
129.08935546875
126.3427734375
113.525390625
109.86328125
108.94775390625
127.25830078125
121.76513671875
105.28564453125
93.3837890625
82.3974609375
84.228515625
74.15771484375
52.18505859375
26.55029296875
24.71923828125
25.634765625
13.73291015625
-7.32421875
6.40869140625
10.07080078125
-5.4931640625
-16.4794921875
-16.4794921875
-22.88818359375
-33.87451171875
-40.283203125
-53.1005859375
-54.01611328125
-48.52294921875
-56.7626953125
-63.17138671875
-56.7626953125
-54.01611328125
-56.7626953125
-64.0869140625
-58.59375
-62.255859375
-65.00244140625
-70.49560546875
-73.2421875
-65.00244140625
-69.580078125
-69.580078125
-66.83349609375
-66.83349609375
-78.7353515625
-80.56640625
-75.98876953125
-74.15771484375
-84.228515625
-72.32666015625
-82.3974609375
-85.14404296875
-68.66455078125
-74.15771484375
-82.3974609375
-79.65087890625
-75.98876953125
-83.31298828125
-81.48193359375
-65.91796875
-48.52294921875
-46.69189453125
-45.7763671875
-64.0869140625
-59.50927734375
-65.91796875
-67.7490234375
-72.32666015625
-75.98876953125
-75.0732421875
-70.49560546875
-75.0732421875
-65.91796875
-58.59375
-59.50927734375
-59.50927734375
-48.52294921875
-50.35400390625
-59.50927734375
-67.7490234375
-67.7490234375
-72.32666015625
-47.607421875
-42.1142578125
-54.01611328125
-63.17138671875
-66.83349609375
-61.34033203125
-60.4248046875
-55.84716796875
-58.59375
-72.32666015625
-74.15771484375
-73.2421875
-63.17138671875
-65.91796875
-76.904296875
-84.228515625
-83.31298828125
-75.98876953125
-75.0732421875
-77.81982421875
-70.49560546875
-76.904296875
-75.0732421875
-66.83349609375
-72.32666015625
-68.66455078125
-80.56640625
-69.580078125
-65.00244140625
-66.83349609375
-66.83349609375
-69.580078125
-81.48193359375
-72.32666015625
-70.49560546875
-82.3974609375
-91.552734375
-82.3974609375
-78.7353515625
-79.65087890625
-87.890625
-92.46826171875
-86.0595703125
-73.2421875
-71.4111328125
-69.580078125
-75.0732421875
-79.65087890625
-84.228515625
-73.2421875
-85.14404296875
-82.3974609375
-93.3837890625
-103.45458984375
-88.80615234375
-85.14404296875
-89.7216796875
-92.46826171875
-95.21484375
-88.80615234375
-88.80615234375
-89.7216796875
-88.80615234375
-76.904296875
-74.15771484375
-86.0595703125
-96.13037109375
-97.0458984375
-86.97509765625
-89.7216796875
-93.3837890625
-86.0595703125
-81.48193359375
-83.31298828125
-85.14404296875
-93.3837890625
-91.552734375
-86.0595703125
-74.15771484375
-76.904296875
-82.3974609375
-78.7353515625
-75.0732421875
-65.91796875
-42.1142578125
-40.283203125
-42.1142578125
-42.1142578125
-36.62109375
-46.69189453125
-53.1005859375
-46.69189453125
-43.02978515625
-36.62109375
-13.73291015625
-11.90185546875
1.8310546875
-4.57763671875
10.07080078125
10.986328125
0.91552734375
-13.73291015625
-34.7900390625
-30.21240234375
-26.55029296875
-21.97265625
-16.4794921875
-11.90185546875
0
-27.4658203125
-36.62109375
-25.634765625
-28.38134765625
-40.283203125
-43.9453125
-54.01611328125
-65.00244140625
-55.84716796875
-70.49560546875
-79.65087890625
-97.96142578125
-102.5390625
-111.6943359375
-94.29931640625
-88.80615234375
-101.62353515625
-101.62353515625
-97.0458984375
-97.96142578125
-108.0322265625
-103.45458984375
-98.876953125
-97.0458984375
-107.11669921875
-97.96142578125
-103.45458984375
-102.5390625
-98.876953125
-99.79248046875
-97.96142578125
-95.21484375
-97.96142578125
-100.7080078125
-108.94775390625
-108.94775390625
-124.51171875
-125.42724609375
-99.79248046875
-84.228515625
-96.13037109375
-97.96142578125
-101.62353515625
-118.10302734375
-140.07568359375
-166.6259765625
-216.064453125
-236.2060546875
-231.62841796875
-204.16259765625
-155.6396484375
-121.76513671875
-60.4248046875
-5.4931640625
73.2421875
149.23095703125
226.13525390625
297.54638671875
399.169921875
521.8505859375
628.96728515625
751.64794921875
822.1435546875
802.001953125
694.88525390625
524.59716796875
399.169921875
358.88671875
324.0966796875
238.95263671875
143.73779296875
67.7490234375
22.88818359375
-10.07080078125
-35.70556640625
-35.70556640625
-50.35400390625
-56.7626953125
-40.283203125
-14.6484375
-14.6484375
-15.56396484375
-14.6484375
-12.8173828125
-29.296875
-45.7763671875
-32.04345703125
-33.87451171875
-43.02978515625
-48.52294921875
-42.1142578125
-39.36767578125
-46.69189453125
-57.67822265625
-54.931640625
-50.35400390625
-54.01611328125
-55.84716796875
-50.35400390625
-51.26953125
-56.7626953125
-54.01611328125
-49.4384765625
-51.26953125
-58.59375
-70.49560546875
-57.67822265625
-58.59375
-50.35400390625
-40.283203125
-38.4521484375
-41.19873046875
-44.86083984375
-44.86083984375
-30.21240234375
-29.296875
-37.53662109375
-29.296875
-33.87451171875
-27.4658203125
-35.70556640625
-39.36767578125
-36.62109375
-32.958984375
-20.1416015625
-19.22607421875
-30.21240234375
-25.634765625
-20.1416015625
-20.1416015625
-20.1416015625
-20.1416015625
-16.4794921875
-4.57763671875
-10.986328125
-25.634765625
-8.23974609375
-8.23974609375
-6.40869140625
-6.40869140625
-0.91552734375
0
-1.8310546875
-7.32421875
1.8310546875
0.91552734375
0
13.73291015625
15.56396484375
8.23974609375
1.8310546875
10.986328125
11.90185546875
20.1416015625
32.04345703125
35.70556640625
29.296875
18.310546875
31.1279296875
32.04345703125
30.21240234375
32.958984375
60.4248046875
65.91796875
54.931640625
52.18505859375
52.18505859375
49.4384765625
63.17138671875
69.580078125
65.91796875
69.580078125
71.4111328125
75.98876953125
88.80615234375
83.31298828125
79.65087890625
85.14404296875
69.580078125
75.98876953125
86.0595703125
104.3701171875
109.86328125
112.60986328125
116.27197265625
101.62353515625
110.77880859375
117.1875
119.0185546875
119.93408203125
129.08935546875
130.0048828125
118.10302734375
126.3427734375
124.51171875
117.1875
107.11669921875
97.96142578125
92.46826171875
82.3974609375
83.31298828125
75.0732421875
64.0869140625
57.67822265625
58.59375
43.9453125
37.53662109375
21.97265625
17.39501953125
22.88818359375
17.39501953125
5.4931640625
7.32421875
7.32421875
-18.310546875
-28.38134765625
-21.05712890625
-34.7900390625
-34.7900390625
-45.7763671875
-60.4248046875
-56.7626953125
-60.4248046875
-54.01611328125
-54.01611328125
-53.1005859375
-62.255859375
-74.15771484375
-70.49560546875
-72.32666015625
-71.4111328125
-67.7490234375
-66.83349609375
-70.49560546875
-62.255859375
-74.15771484375
-86.97509765625
-84.228515625
-77.81982421875
-76.904296875
-72.32666015625
-85.14404296875
-69.580078125
-82.3974609375
-88.80615234375
-85.14404296875
-67.7490234375
-65.00244140625
-67.7490234375
-56.7626953125
-51.26953125
-45.7763671875
-37.53662109375
-51.26953125
-52.18505859375
-58.59375
-57.67822265625
-64.0869140625
-63.17138671875
-61.34033203125
-61.34033203125
-63.17138671875
-55.84716796875
-64.0869140625
-64.0869140625
-62.255859375
-66.83349609375
-63.17138671875
-60.4248046875
-75.0732421875
-78.7353515625
-66.83349609375
-73.2421875
-60.4248046875
-60.4248046875
-65.00244140625
-57.67822265625
-54.931640625
-61.34033203125
-71.4111328125
-69.580078125
-67.7490234375
-64.0869140625
-65.00244140625
-54.931640625
-50.35400390625
-56.7626953125
-61.34033203125
-60.4248046875
-67.7490234375
-66.83349609375
-55.84716796875
-66.83349609375
-66.83349609375
-60.4248046875
-63.17138671875
-69.580078125
-61.34033203125
-67.7490234375
-62.255859375
-59.50927734375
-59.50927734375
-67.7490234375
-66.83349609375
-72.32666015625
-72.32666015625
-69.580078125
-65.91796875
-70.49560546875
-82.3974609375
-94.29931640625
-84.228515625
-82.3974609375
-77.81982421875
-70.49560546875
-75.0732421875
-88.80615234375
-79.65087890625
-80.56640625
-89.7216796875
-86.97509765625
-82.3974609375
-79.65087890625
-74.15771484375
-68.66455078125
-71.4111328125
-69.580078125
-70.49560546875
-71.4111328125
-72.32666015625
-85.14404296875
-98.876953125
-88.80615234375
-87.890625
-84.228515625
-81.48193359375
-79.65087890625
-90.63720703125
-91.552734375
-87.890625
-88.80615234375
-78.7353515625
-76.904296875
-77.81982421875
-81.48193359375
-86.0595703125
-89.7216796875
-90.63720703125
-82.3974609375
-88.80615234375
-87.890625
-99.79248046875
-100.7080078125
-90.63720703125
-97.0458984375
-93.3837890625
-77.81982421875
-71.4111328125
-66.83349609375
-66.83349609375
-47.607421875
-43.02978515625
-43.9453125
-34.7900390625
-42.1142578125
-48.52294921875
-42.1142578125
-44.86083984375
-43.02978515625
-17.39501953125
-9.1552734375
-10.986328125
-5.4931640625
0
1.8310546875
-5.4931640625
-20.1416015625
-5.4931640625
1.8310546875
-0.91552734375
-7.32421875
-6.40869140625
-22.88818359375
-10.986328125
-1.8310546875
-3.662109375
-10.07080078125
-29.296875
-44.86083984375
-44.86083984375
-49.4384765625
-67.7490234375
-75.98876953125
-76.904296875
-74.15771484375
-86.97509765625
-82.3974609375
-91.552734375
-93.3837890625
-86.97509765625
-92.46826171875
-86.97509765625
-65.91796875
-75.98876953125
-85.14404296875
-86.97509765625
-84.228515625
-85.14404296875
-89.7216796875
-92.46826171875
-98.876953125
-96.13037109375
-102.5390625
-102.5390625
-97.0458984375
-103.45458984375
-110.77880859375
-108.0322265625
-110.77880859375
-116.27197265625
-114.44091796875
-91.552734375
-90.63720703125
-106.201171875
-107.11669921875
-95.21484375
-87.890625
-94.29931640625
-97.96142578125
-104.3701171875
-110.77880859375
-134.58251953125
-160.21728515625
-203.2470703125
-220.64208984375
-211.48681640625
-173.03466796875
-134.58251953125
-84.228515625
-35.70556640625
22.88818359375
107.11669921875
171.20361328125
248.10791015625
331.4208984375
451.35498046875
566.71142578125
678.40576171875
794.677734375
822.1435546875
747.0703125
598.7548828125
443.115234375
371.7041015625
320.4345703125
255.43212890625
157.470703125
80.56640625
19.22607421875
-4.57763671875
-32.958984375
-51.26953125
-66.83349609375
-61.34033203125
-37.53662109375
-23.8037109375
-15.56396484375
-8.23974609375
0
-12.8173828125
-24.71923828125
-35.70556640625
-38.4521484375
-28.38134765625
-34.7900390625
-51.26953125
-46.69189453125
-41.19873046875
-48.52294921875
-42.1142578125
-49.4384765625
-50.35400390625
-55.84716796875
-54.01611328125
-50.35400390625
-55.84716796875
-50.35400390625
-39.36767578125
-44.86083984375
-53.1005859375
-47.607421875
-60.4248046875
-65.91796875
-50.35400390625
-38.4521484375
-45.7763671875
-47.607421875
-47.607421875
-51.26953125
-41.19873046875
-35.70556640625
-37.53662109375
-42.1142578125
-43.9453125
-46.69189453125
-28.38134765625
-35.70556640625
-32.04345703125
-26.55029296875
-31.1279296875
-27.4658203125
-18.310546875
-13.73291015625
-19.22607421875
-12.8173828125
-10.07080078125
-16.4794921875
-17.39501953125
-21.97265625
-28.38134765625
-19.22607421875
-15.56396484375
-11.90185546875
-11.90185546875
-1.8310546875
-2.74658203125
0
5.4931640625
-3.662109375
-11.90185546875
11.90185546875
26.55029296875
7.32421875
1.8310546875
6.40869140625
2.74658203125
-7.32421875
3.662109375
11.90185546875
19.22607421875
32.04345703125
31.1279296875
24.71923828125
26.55029296875
31.1279296875
32.04345703125
40.283203125
54.931640625
60.4248046875
55.84716796875
55.84716796875
56.7626953125
65.91796875
75.98876953125
81.48193359375
71.4111328125
75.0732421875
66.83349609375
83.31298828125
93.3837890625
86.0595703125
96.13037109375
97.0458984375
102.5390625
106.201171875
113.525390625
107.11669921875
102.5390625
115.3564453125
113.525390625
104.3701171875
119.0185546875
120.849609375
121.76513671875
138.24462890625
142.822265625
139.16015625
137.3291015625
126.3427734375
128.173828125
130.0048828125
133.6669921875
126.3427734375
117.1875
109.86328125
93.3837890625
75.0732421875
89.7216796875
103.45458984375
93.3837890625
84.228515625
70.49560546875
59.50927734375
45.7763671875
39.36767578125
38.4521484375
14.6484375
4.57763671875
1.8310546875
-6.40869140625
-1.8310546875
-13.73291015625
-18.310546875
-12.8173828125
-24.71923828125
-37.53662109375
-31.1279296875
-30.21240234375
-37.53662109375
-52.18505859375
-72.32666015625
-63.17138671875
-73.2421875
-71.4111328125
-74.15771484375
-60.4248046875
-61.34033203125
-66.83349609375
-65.00244140625
-69.580078125
-80.56640625
-73.2421875
-72.32666015625
-72.32666015625
-70.49560546875
-75.0732421875
-69.580078125
-63.17138671875
-71.4111328125
-70.49560546875
-67.7490234375
-77.81982421875
-80.56640625
-80.56640625
-74.15771484375
-72.32666015625
-72.32666015625
-69.580078125
-63.17138671875
-60.4248046875
-72.32666015625
-75.98876953125
-77.81982421875
-75.0732421875
-78.7353515625
-58.59375
-63.17138671875
-66.83349609375
-65.91796875
-65.91796875
-62.255859375
-63.17138671875
-69.580078125
-62.255859375
-69.580078125
-60.4248046875
-57.67822265625
-57.67822265625
-60.4248046875
-68.66455078125
-65.91796875
-59.50927734375
-65.91796875
-63.17138671875
-57.67822265625
-65.00244140625
-75.0732421875
-65.91796875
-70.49560546875
-63.17138671875
-53.1005859375
-54.01611328125
-61.34033203125
-60.4248046875
-60.4248046875
-52.18505859375
-61.34033203125
-63.17138671875
-63.17138671875
-64.0869140625
-50.35400390625
-62.255859375
-61.34033203125
-68.66455078125
-64.0869140625
-62.255859375
-65.91796875
-78.7353515625
-75.98876953125
-71.4111328125
-66.83349609375
-75.0732421875
-77.81982421875
-75.98876953125
-74.15771484375
-70.49560546875
-71.4111328125
-75.0732421875
-87.890625
-69.580078125
-66.83349609375
-74.15771484375
-79.65087890625
-79.65087890625
-78.7353515625
-78.7353515625
-83.31298828125
-91.552734375
-85.14404296875
-84.228515625
-82.3974609375
-86.97509765625
-83.31298828125
-74.15771484375
-78.7353515625
-93.3837890625
-86.0595703125
-90.63720703125
-90.63720703125
-85.14404296875
-75.98876953125
-85.14404296875
-87.890625
-85.14404296875
-82.3974609375
-80.56640625
-85.14404296875
-88.80615234375
-78.7353515625
-72.32666015625
-95.21484375
-83.31298828125
-77.81982421875
-83.31298828125
-71.4111328125
-80.56640625
-89.7216796875
-83.31298828125
-80.56640625
-92.46826171875
-92.46826171875
-86.97509765625
-84.228515625
-80.56640625
-73.2421875
-89.7216796875
-94.29931640625
-86.0595703125
-86.97509765625
-86.0595703125
-93.3837890625
-86.0595703125
-69.580078125
-56.7626953125
-54.01611328125
-49.4384765625
-43.9453125
-36.62109375
-33.87451171875
-28.38134765625
-32.958984375
-42.1142578125
-41.19873046875
-27.4658203125
-22.88818359375
-14.6484375
-15.56396484375
-7.32421875
-10.986328125
-10.986328125
0
-10.07080078125
-12.8173828125
-15.56396484375
-1.8310546875
-9.1552734375
-21.97265625
-17.39501953125
-13.73291015625
-14.6484375
-9.1552734375
-3.662109375
-8.23974609375
-28.38134765625
-41.19873046875
-56.7626953125
-59.50927734375
-65.00244140625
-75.98876953125
-88.80615234375
-103.45458984375
-93.3837890625
-86.0595703125
-92.46826171875
-87.890625
-79.65087890625
-72.32666015625
-81.48193359375
-86.97509765625
-82.3974609375
-89.7216796875
-88.80615234375
-81.48193359375
-83.31298828125
-87.890625
-89.7216796875
-86.97509765625
-96.13037109375
-102.5390625
-100.7080078125
-105.28564453125
-112.60986328125
-111.6943359375
-99.79248046875
-85.14404296875
-88.80615234375
-95.21484375
-101.62353515625
-104.3701171875
-104.3701171875
-104.3701171875
-112.60986328125
-102.5390625
-89.7216796875
-97.96142578125
-99.79248046875
-119.93408203125
-155.6396484375
-190.4296875
-221.5576171875
-215.14892578125
-184.9365234375
-145.56884765625
-104.3701171875
-41.19873046875
11.90185546875
82.3974609375
151.06201171875
225.2197265625
305.7861328125
413.818359375
535.58349609375
638.12255859375
748.9013671875
812.98828125
788.26904296875
671.9970703125
493.46923828125
369.873046875
327.7587890625
249.0234375
178.52783203125
111.6943359375
46.69189453125
10.07080078125
-21.97265625
-39.36767578125
-49.4384765625
-36.62109375
-10.07080078125
-6.40869140625
-10.07080078125
-10.986328125
-5.4931640625
-14.6484375
-32.958984375
-40.283203125
-41.19873046875
-38.4521484375
-27.4658203125
-30.21240234375
-42.1142578125
-40.283203125
-39.36767578125
-51.26953125
-45.7763671875
-46.69189453125
-41.19873046875
-47.607421875
-36.62109375
-41.19873046875
-44.86083984375
-58.59375
-56.7626953125
-42.1142578125
-42.1142578125
-43.9453125
-52.18505859375
-48.52294921875
-40.283203125
-42.1142578125
-37.53662109375
-33.87451171875
-42.1142578125
-26.55029296875
-19.22607421875
-28.38134765625
-30.21240234375
-38.4521484375
-32.958984375
-34.7900390625
-34.7900390625
-31.1279296875
-38.4521484375
-37.53662109375
-27.4658203125
-20.1416015625
-22.88818359375
-24.71923828125
-21.05712890625
-11.90185546875
-17.39501953125
-21.97265625
-18.310546875
-16.4794921875
-18.310546875
-7.32421875
-13.73291015625
-28.38134765625
-24.71923828125
-16.4794921875
-7.32421875
-10.07080078125
-9.1552734375
5.4931640625
16.4794921875
13.73291015625
11.90185546875
13.73291015625
12.8173828125
19.22607421875
17.39501953125
12.8173828125
8.23974609375
19.22607421875
40.283203125
35.70556640625
25.634765625
44.86083984375
39.36767578125
39.36767578125
33.87451171875
43.9453125
48.52294921875
53.1005859375
60.4248046875
59.50927734375
54.931640625
71.4111328125
71.4111328125
70.49560546875
77.81982421875
82.3974609375
83.31298828125
86.0595703125
89.7216796875
98.876953125
99.79248046875
98.876953125
108.0322265625
119.0185546875
120.849609375
112.60986328125
110.77880859375
107.11669921875
90.63720703125
118.10302734375
133.6669921875
131.8359375
135.498046875
135.498046875
135.498046875
138.24462890625
135.498046875
137.3291015625
137.3291015625
134.58251953125
138.24462890625
132.75146484375
130.92041015625
127.25830078125
113.525390625
110.77880859375
98.876953125
86.0595703125
74.15771484375
61.34033203125
60.4248046875
55.84716796875
54.01611328125
46.69189453125
29.296875
12.8173828125
4.57763671875
10.07080078125
13.73291015625
2.74658203125
-17.39501953125
-37.53662109375
-43.02978515625
-31.1279296875
-40.283203125
-68.66455078125
-62.255859375
-61.34033203125
-54.01611328125
-54.931640625
-57.67822265625
-49.4384765625
-57.67822265625
-61.34033203125
-67.7490234375
-72.32666015625
-66.83349609375
-64.0869140625
-60.4248046875
-71.4111328125
-70.49560546875
-60.4248046875
-64.0869140625
-74.15771484375
-80.56640625
-79.65087890625
-78.7353515625
-70.49560546875
-64.0869140625
-70.49560546875
-69.580078125
-72.32666015625
-74.15771484375
-69.580078125
-68.66455078125
-83.31298828125
-74.15771484375
-53.1005859375
-63.17138671875
-68.66455078125
-66.83349609375
-67.7490234375
-58.59375
-62.255859375
-59.50927734375
-58.59375
-62.255859375
-65.00244140625
-74.15771484375
-75.98876953125
-73.2421875
-76.904296875
-73.2421875
-68.66455078125
-70.49560546875
-66.83349609375
-65.91796875
-70.49560546875
-70.49560546875
-64.0869140625
-65.00244140625
-78.7353515625
-70.49560546875
-69.580078125
-66.83349609375
-65.91796875
-59.50927734375
-52.18505859375
-44.86083984375
-47.607421875
-54.931640625
-62.255859375
-69.580078125
-62.255859375
-58.59375
-73.2421875
-75.98876953125
-69.580078125
-67.7490234375
-59.50927734375
-64.0869140625
-61.34033203125
-53.1005859375
-63.17138671875
-71.4111328125
-70.49560546875
-64.0869140625
-65.00244140625
-64.0869140625
-62.255859375
-68.66455078125
-67.7490234375
-63.17138671875
-76.904296875
-73.2421875
-70.49560546875
-75.0732421875
-72.32666015625
-74.15771484375
-68.66455078125
-81.48193359375
-68.66455078125
-74.15771484375
-73.2421875
-70.49560546875
-77.81982421875
-89.7216796875
-69.580078125
-74.15771484375
-87.890625
-84.228515625
-77.81982421875
-92.46826171875
-102.5390625
-73.2421875
-73.2421875
-74.15771484375
-65.91796875
-80.56640625
-80.56640625
-76.904296875
-74.15771484375
-82.3974609375
-88.80615234375
-87.890625
-91.552734375
-90.63720703125
-82.3974609375
-76.904296875
-73.2421875
-78.7353515625
-77.81982421875
-79.65087890625
-79.65087890625
-86.0595703125
-73.2421875
-72.32666015625
-86.0595703125
-82.3974609375
-87.890625
-97.0458984375
-106.201171875
-82.3974609375
-88.80615234375
-96.13037109375
-89.7216796875
-94.29931640625
-94.29931640625
-99.79248046875
-92.46826171875
-94.29931640625
-90.63720703125
-80.56640625
-86.0595703125
-79.65087890625
-71.4111328125
-78.7353515625
-78.7353515625
-69.580078125
-58.59375
-45.7763671875
-50.35400390625
-42.1142578125
-40.283203125
-38.4521484375
-32.04345703125
-29.296875
-33.87451171875
-31.1279296875
-24.71923828125
-15.56396484375
-12.8173828125
-6.40869140625
-1.8310546875
-8.23974609375
-18.310546875
3.662109375
1.8310546875
0
-4.57763671875
-9.1552734375
-6.40869140625
-3.662109375
-10.07080078125
-4.57763671875
0.91552734375
-20.1416015625
-42.1142578125
-42.1142578125
-44.86083984375
-53.1005859375
-68.66455078125
-82.3974609375
-77.81982421875
-84.228515625
-77.81982421875
-78.7353515625
-86.97509765625
-86.0595703125
-80.56640625
-81.48193359375
-86.97509765625
-96.13037109375
-89.7216796875
-93.3837890625
-97.0458984375
-103.45458984375
-101.62353515625
-99.79248046875
-94.29931640625
-94.29931640625
-101.62353515625
-107.11669921875
-89.7216796875
-100.7080078125
-97.0458984375
-99.79248046875
-106.201171875
-97.0458984375
-103.45458984375
-105.28564453125
-97.96142578125
-90.63720703125
-91.552734375
-94.29931640625
-90.63720703125
-91.552734375
-89.7216796875
-98.876953125
-110.77880859375
-124.51171875
-152.89306640625
-188.5986328125
-222.47314453125
-227.05078125
-205.99365234375
-171.20361328125
-125.42724609375
-67.7490234375
-20.1416015625
42.1142578125
125.42724609375
205.078125
280.1513671875
379.0283203125
488.8916015625
595.0927734375
715.9423828125
812.07275390625
826.72119140625
734.2529296875
566.71142578125
413.818359375
363.46435546875
299.37744140625
201.416015625
120.849609375
69.580078125
13.73291015625
-12.8173828125
-26.55029296875
-48.52294921875
-53.1005859375
-36.62109375
-10.986328125
-7.32421875
-1.8310546875
0.91552734375
-6.40869140625
-13.73291015625
-25.634765625
-32.958984375
-41.19873046875
-38.4521484375
-42.1142578125
-43.9453125
-51.26953125
-64.0869140625
-41.19873046875
-33.87451171875
-40.283203125
-40.283203125
-46.69189453125
-43.02978515625
-33.87451171875
-41.19873046875
-47.607421875
-42.1142578125
-42.1142578125
-42.1142578125
-54.01611328125
-51.26953125
-42.1142578125
-38.4521484375
-42.1142578125
-42.1142578125
-43.02978515625
-44.86083984375
-43.02978515625
-37.53662109375
-23.8037109375
-27.4658203125
-22.88818359375
-21.97265625
-18.310546875
-17.39501953125
-28.38134765625
-36.62109375
-32.04345703125
-21.05712890625
-22.88818359375
-26.55029296875
-21.05712890625
-11.90185546875
-11.90185546875
-16.4794921875
-23.8037109375
-43.9453125
-14.6484375
-4.57763671875
-10.07080078125
-7.32421875
-4.57763671875
0
10.986328125
-0.91552734375
-7.32421875
-4.57763671875
0
-7.32421875
-2.74658203125
-0.91552734375
8.23974609375
13.73291015625
11.90185546875
18.310546875
28.38134765625
26.55029296875
27.4658203125
28.38134765625
34.7900390625
30.21240234375
21.05712890625
29.296875
43.9453125
46.69189453125
43.9453125
60.4248046875
54.931640625
54.01611328125
57.67822265625
65.00244140625
74.15771484375
74.15771484375
71.4111328125
75.98876953125
72.32666015625
78.7353515625
66.83349609375
80.56640625
106.201171875
102.5390625
104.3701171875
105.28564453125
116.27197265625
119.0185546875
112.60986328125
116.27197265625
114.44091796875
97.96142578125
103.45458984375
114.44091796875
121.76513671875
134.58251953125
138.24462890625
138.24462890625
135.498046875
125.42724609375
130.0048828125
130.92041015625
139.16015625
145.56884765625
130.92041015625
127.25830078125
123.59619140625
113.525390625
109.86328125
109.86328125
98.876953125
95.21484375
88.80615234375
75.98876953125
62.255859375
42.1142578125
32.958984375
30.21240234375
26.55029296875
19.22607421875
0.91552734375
0
3.662109375
-7.32421875
-16.4794921875
-29.296875
-21.97265625
-40.283203125
-43.02978515625
-50.35400390625
-54.931640625
-50.35400390625
-40.283203125
-51.26953125
-63.17138671875
-57.67822265625
-69.580078125
-76.904296875
-72.32666015625
-68.66455078125
-71.4111328125
-75.0732421875
-75.0732421875
-75.98876953125
-84.228515625
-70.49560546875
-72.32666015625
-83.31298828125
-75.98876953125
-72.32666015625
-65.91796875
-77.81982421875
-91.552734375
-88.80615234375
-63.17138671875
-67.7490234375
-63.17138671875
-71.4111328125
-65.91796875
-68.66455078125
-73.2421875
-62.255859375
-63.17138671875
-70.49560546875
-66.83349609375
-52.18505859375
-60.4248046875
-65.91796875
-67.7490234375
-61.34033203125
-62.255859375
-60.4248046875
-60.4248046875
-64.0869140625
-57.67822265625
-65.91796875
-71.4111328125
-69.580078125
-67.7490234375
-61.34033203125
-62.255859375
-66.83349609375
-65.91796875
-68.66455078125
-67.7490234375
-57.67822265625
-54.01611328125
-58.59375
-62.255859375
-66.83349609375
-64.0869140625
-64.0869140625
-61.34033203125
-61.34033203125
-64.0869140625
