ECG
-64.0869140625
-55.84716796875
-47.607421875
-38.4521484375
-30.21240234375
-32.04345703125
-31.1279296875
-35.70556640625
-46.69189453125
-21.97265625
-19.22607421875
-21.97265625
-9.1552734375
-3.662109375
11.90185546875
21.05712890625
26.55029296875
20.1416015625
22.88818359375
20.1416015625
15.56396484375
2.74658203125
10.07080078125
10.07080078125
10.07080078125
14.6484375
12.8173828125
16.4794921875
7.32421875
-3.662109375
-16.4794921875
-23.8037109375
-29.296875
-31.1279296875
-38.4521484375
-46.69189453125
-51.26953125
-52.18505859375
-56.7626953125
-68.66455078125
-76.904296875
-64.0869140625
-78.7353515625
-70.49560546875
-75.0732421875
-84.228515625
-91.552734375
-100.7080078125
-95.21484375
-84.228515625
-81.48193359375
-68.66455078125
-61.34033203125
-65.00244140625
-64.0869140625
-67.7490234375
-67.7490234375
-75.98876953125
-84.228515625
-80.56640625
-77.81982421875
-66.83349609375
-77.81982421875
-83.31298828125
-75.98876953125
-74.15771484375
-86.0595703125
-87.890625
-89.7216796875
-92.46826171875
-89.7216796875
-67.7490234375
-70.49560546875
-86.97509765625
-91.552734375
-115.3564453125
-151.9775390625
-189.51416015625
-214.2333984375
-205.078125
-175.78125
-136.41357421875
-98.876953125
-35.70556640625
20.1416015625
92.46826171875
183.10546875
257.26318359375
333.251953125
443.115234375
568.54248046875
676.57470703125
793.76220703125
864.2578125
827.63671875
694.88525390625
519.10400390625
405.57861328125
379.94384765625
316.7724609375
219.7265625
143.73779296875
89.7216796875
66.83349609375
23.8037109375
-2.74658203125
-13.73291015625
-21.05712890625
-6.40869140625
12.8173828125
17.39501953125
17.39501953125
15.56396484375
21.05712890625
11.90185546875
-3.662109375
-8.23974609375
-22.88818359375
-23.8037109375
-21.97265625
-32.04345703125
-30.21240234375
-26.55029296875
-24.71923828125
-17.39501953125
-17.39501953125
-16.4794921875
-15.56396484375
-13.73291015625
-22.88818359375
-11.90185546875
-20.1416015625
-20.1416015625
-18.310546875
-13.73291015625
-19.22607421875
-29.296875
-24.71923828125
-24.71923828125
-20.1416015625
-23.8037109375
-16.4794921875
-5.4931640625
-14.6484375
-1.8310546875
2.74658203125
-6.40869140625
-4.57763671875
-10.986328125
-19.22607421875
-21.97265625
-11.90185546875
-3.662109375
6.40869140625
4.57763671875
-16.4794921875
1.8310546875
10.986328125
10.986328125
10.986328125
1.8310546875
-3.662109375
1.8310546875
2.74658203125
-3.662109375
5.4931640625
12.8173828125
17.39501953125
21.97265625
12.8173828125
17.39501953125
20.1416015625
18.310546875
27.4658203125
28.38134765625
32.04345703125
38.4521484375
31.1279296875
27.4658203125
27.4658203125
41.19873046875
49.4384765625
47.607421875
45.7763671875
46.69189453125
46.69189453125
43.9453125
36.62109375
32.958984375
39.36767578125
69.580078125
61.34033203125
66.83349609375
70.49560546875
69.580078125
81.48193359375
81.48193359375
82.3974609375
90.63720703125
93.3837890625
96.13037109375
96.13037109375
97.0458984375
108.0322265625
104.3701171875
109.86328125
111.6943359375
123.59619140625
122.6806640625
115.3564453125
127.25830078125
148.3154296875
140.07568359375
130.0048828125
131.8359375
138.24462890625
129.08935546875
120.849609375
144.6533203125
153.80859375
153.80859375
158.38623046875
163.87939453125
162.9638671875
165.71044921875
168.45703125
173.03466796875
168.45703125
169.37255859375
169.37255859375
165.71044921875
154.72412109375
154.72412109375
157.470703125
143.73779296875
140.07568359375
136.41357421875
122.6806640625
112.60986328125
95.21484375
89.7216796875
89.7216796875
75.98876953125
78.7353515625
67.7490234375
48.52294921875
42.1142578125
41.19873046875
28.38134765625
18.310546875
12.8173828125
5.4931640625
0.91552734375
0
-1.8310546875
-11.90185546875
-21.05712890625
-28.38134765625
-33.87451171875
-40.283203125
-45.7763671875
-40.283203125
-54.01611328125
-43.02978515625
-40.283203125
-54.931640625
-50.35400390625
-44.86083984375
-43.9453125
-58.59375
-55.84716796875
-49.4384765625
-47.607421875
-55.84716796875
-52.18505859375
-59.50927734375
-55.84716796875
-65.00244140625
-71.4111328125
-76.904296875
-75.0732421875
-60.4248046875
-55.84716796875
-47.607421875
-40.283203125
-44.86083984375
-38.4521484375
-47.607421875
-44.86083984375
-47.607421875
-43.9453125
-43.02978515625
-39.36767578125
-43.02978515625
-49.4384765625
-33.87451171875
-42.1142578125
-38.4521484375
-31.1279296875
-38.4521484375
-39.36767578125
-44.86083984375
-43.02978515625
-36.62109375
-37.53662109375
-41.19873046875
-37.53662109375
-37.53662109375
-39.36767578125
-43.02978515625
-44.86083984375
-45.7763671875
-49.4384765625
-51.26953125
-32.04345703125
-43.9453125
-55.84716796875
-52.18505859375
-54.01611328125
-53.1005859375
-45.7763671875
-44.86083984375
-46.69189453125
-39.36767578125
-28.38134765625
-33.87451171875
-37.53662109375
-43.9453125
-48.52294921875
-44.86083984375
-49.4384765625
-49.4384765625
-47.607421875
-43.9453125
-52.18505859375
-46.69189453125
-53.1005859375
-56.7626953125
-62.255859375
-57.67822265625
-53.1005859375
-62.255859375
-64.0869140625
-55.84716796875
-59.50927734375
-60.4248046875
-62.255859375
-62.255859375
-56.7626953125
-55.84716796875
-58.59375
-74.15771484375
-69.580078125
-59.50927734375
-65.00244140625
-61.34033203125
-66.83349609375
-72.32666015625
-65.00244140625
-58.59375
-58.59375
-68.66455078125
-75.0732421875
-65.91796875
-65.91796875
-64.0869140625
-48.52294921875
-55.84716796875
-66.83349609375
-63.17138671875
-58.59375
-60.4248046875
-64.0869140625
-65.00244140625
-73.2421875
-61.34033203125
-62.255859375
-75.0732421875
-67.7490234375
-62.255859375
-65.91796875
-62.255859375
-68.66455078125
-55.84716796875
-64.0869140625
-71.4111328125
-74.15771484375
-77.81982421875
-79.65087890625
-71.4111328125
-70.49560546875
-73.2421875
-75.98876953125
-68.66455078125
-69.580078125
-66.83349609375
-70.49560546875
-74.15771484375
-75.98876953125
-76.904296875
-79.65087890625
-75.98876953125
-72.32666015625
-78.7353515625
-83.31298828125
-74.15771484375
-62.255859375
-76.904296875
-75.0732421875
-71.4111328125
-68.66455078125
-69.580078125
-66.83349609375
-59.50927734375
-56.7626953125
-54.01611328125
-43.9453125
-36.62109375
-33.87451171875
-39.36767578125
-38.4521484375
-35.70556640625
-37.53662109375
-27.4658203125
-37.53662109375
-39.36767578125
-17.39501953125
-1.8310546875
3.662109375
5.4931640625
2.74658203125
-8.23974609375
11.90185546875
0
-9.1552734375
-10.07080078125
-4.57763671875
-10.07080078125
-10.07080078125
-4.57763671875
2.74658203125
13.73291015625
1.8310546875
-18.310546875
-25.634765625
-23.8037109375
-36.62109375
-50.35400390625
-56.7626953125
-69.580078125
-80.56640625
-88.80615234375
-88.80615234375
-80.56640625
-74.15771484375
-72.32666015625
-76.904296875
-75.98876953125
-80.56640625
-75.0732421875
-71.4111328125
-68.66455078125
-67.7490234375
-74.15771484375
-68.66455078125
-71.4111328125
-75.98876953125
-82.3974609375
-83.31298828125
-82.3974609375
-83.31298828125
-86.97509765625
-90.63720703125
-89.7216796875
-93.3837890625
-88.80615234375
-96.13037109375
-96.13037109375
-98.876953125
-103.45458984375
-103.45458984375
-111.6943359375
-116.27197265625
-86.0595703125
-87.890625
-93.3837890625
-104.3701171875
-103.45458984375
-119.93408203125
-149.23095703125
-189.51416015625
-216.97998046875
-214.2333984375
-183.10546875
-144.6533203125
-107.11669921875
-54.01611328125
10.986328125
81.48193359375
160.21728515625
231.62841796875
312.19482421875
413.818359375
534.66796875
652.77099609375
759.8876953125
830.38330078125
812.98828125
696.71630859375
511.77978515625
395.5078125
346.0693359375
292.96875
204.16259765625
139.16015625
86.0595703125
44.86083984375
14.6484375
-12.8173828125
-16.4794921875
-12.8173828125
-6.40869140625
6.40869140625
10.986328125
6.40869140625
10.07080078125
0
-12.8173828125
-32.958984375
-43.9453125
-48.52294921875
-32.958984375
-37.53662109375
-30.21240234375
-26.55029296875
-24.71923828125
-25.634765625
-25.634765625
-30.21240234375
-32.958984375
-30.21240234375
-31.1279296875
-34.7900390625
-30.21240234375
-39.36767578125
-43.9453125
-41.19873046875
-46.69189453125
-41.19873046875
-46.69189453125
-47.607421875
-44.86083984375
-40.283203125
-37.53662109375
-35.70556640625
-34.7900390625
-31.1279296875
-25.634765625
-32.958984375
-16.4794921875
-17.39501953125
-16.4794921875
-10.07080078125
-18.310546875
-23.8037109375
-29.296875
-28.38134765625
-11.90185546875
-9.1552734375
-6.40869140625
-5.4931640625
-11.90185546875
-4.57763671875
-15.56396484375
-10.986328125
-9.1552734375
-5.4931640625
1.8310546875
0.91552734375
3.662109375
8.23974609375
0.91552734375
2.74658203125
8.23974609375
11.90185546875
19.22607421875
19.22607421875
23.8037109375
14.6484375
17.39501953125
10.07080078125
16.4794921875
20.1416015625
17.39501953125
17.39501953125
23.8037109375
34.7900390625
47.607421875
49.4384765625
52.18505859375
49.4384765625
52.18505859375
52.18505859375
54.01611328125
51.26953125
45.7763671875
46.69189453125
61.34033203125
64.0869140625
57.67822265625
66.83349609375
83.31298828125
81.48193359375
86.97509765625
97.0458984375
99.79248046875
107.11669921875
99.79248046875
106.201171875
107.11669921875
104.3701171875
101.62353515625
104.3701171875
118.10302734375
127.25830078125
125.42724609375
118.10302734375
126.3427734375
138.24462890625
138.24462890625
140.07568359375
145.56884765625
150.146484375
145.56884765625
145.56884765625
144.6533203125
132.75146484375
145.56884765625
169.37255859375
172.119140625
175.78125
173.9501953125
169.37255859375
167.54150390625
161.1328125
155.6396484375
147.39990234375
140.07568359375
127.25830078125
117.1875
113.525390625
112.60986328125
107.11669921875
94.29931640625
75.98876953125
54.931640625
52.18505859375
47.607421875
27.4658203125
24.71923828125
22.88818359375
2.74658203125
-12.8173828125
7.32421875
0.91552734375
-5.4931640625
-14.6484375
-21.97265625
-23.8037109375
-32.958984375
-36.62109375
-32.958984375
-33.87451171875
-43.9453125
-49.4384765625
-67.7490234375
-75.0732421875
-78.7353515625
-69.580078125
-61.34033203125
-63.17138671875
-57.67822265625
-54.931640625
-52.18505859375
-56.7626953125
-57.67822265625
-54.01611328125
-54.931640625
-64.0869140625
-64.0869140625
-73.2421875
-69.580078125
-61.34033203125
-72.32666015625
-78.7353515625
-79.65087890625
-79.65087890625
-80.56640625
-70.49560546875
-67.7490234375
-70.49560546875
-70.49560546875
-63.17138671875
-59.50927734375
-60.4248046875
-54.931640625
-47.607421875
-32.958984375
-39.36767578125
-45.7763671875
-51.26953125
-47.607421875
-54.931640625
-50.35400390625
-44.86083984375
-54.01611328125
-54.01611328125
-42.1142578125
-52.18505859375
-57.67822265625
-34.7900390625
-39.36767578125
-38.4521484375
-44.86083984375
-50.35400390625
-51.26953125
-54.931640625
-57.67822265625
-55.84716796875
-61.34033203125
-69.580078125
-65.91796875
-59.50927734375
-56.7626953125
-52.18505859375
-54.01611328125
-46.69189453125
-29.296875
-37.53662109375
-46.69189453125
-54.931640625
-56.7626953125
-51.26953125
-51.26953125
-51.26953125
-47.607421875
-45.7763671875
-48.52294921875
-55.84716796875
-47.607421875
-52.18505859375
-58.59375
-59.50927734375
-53.1005859375
-56.7626953125
-59.50927734375
-75.98876953125
-62.255859375
-57.67822265625
-63.17138671875
-72.32666015625
-75.0732421875
-78.7353515625
-72.32666015625
-68.66455078125
-66.83349609375
-67.7490234375
-71.4111328125
-69.580078125
-77.81982421875
-78.7353515625
-80.56640625
-75.98876953125
-70.49560546875
-65.00244140625
-66.83349609375
-66.83349609375
-72.32666015625
-68.66455078125
-64.0869140625
-75.0732421875
-69.580078125
-65.91796875
-68.66455078125
-63.17138671875
-66.83349609375
-75.98876953125
-81.48193359375
-75.98876953125
-75.98876953125
-88.80615234375
-88.80615234375
-72.32666015625
-71.4111328125
-67.7490234375
-70.49560546875
-65.91796875
-60.4248046875
-70.49560546875
-82.3974609375
-78.7353515625
-76.904296875
-70.49560546875
-70.49560546875
-72.32666015625
-65.91796875
-63.17138671875
-70.49560546875
-77.81982421875
-80.56640625
-77.81982421875
-74.15771484375
-72.32666015625
-75.98876953125
-80.56640625
-80.56640625
-80.56640625
-84.228515625
-78.7353515625
-75.98876953125
-90.63720703125
-97.96142578125
-91.552734375
-87.890625
-81.48193359375
-78.7353515625
-78.7353515625
-80.56640625
-96.13037109375
-81.48193359375
-73.2421875
-74.15771484375
-75.0732421875
-65.00244140625
-57.67822265625
-60.4248046875
-48.52294921875
-40.283203125
-29.296875
-20.1416015625
-22.88818359375
-22.88818359375
-21.97265625
-27.4658203125
-36.62109375
-38.4521484375
-29.296875
-18.310546875
-8.23974609375
0
3.662109375
10.07080078125
16.4794921875
21.97265625
14.6484375
19.22607421875
13.73291015625
9.1552734375
2.74658203125
-9.1552734375
-18.310546875
0
-2.74658203125
-15.56396484375
-30.21240234375
-38.4521484375
-53.1005859375
-63.17138671875
-66.83349609375
-62.255859375
-61.34033203125
-63.17138671875
-65.00244140625
-73.2421875
-68.66455078125
-71.4111328125
-71.4111328125
-81.48193359375
-88.80615234375
-89.7216796875
-97.96142578125
-92.46826171875
-82.3974609375
-80.56640625
-83.31298828125
-82.3974609375
-87.890625
-91.552734375
-95.21484375
-97.96142578125
-92.46826171875
-93.3837890625
-90.63720703125
-83.31298828125
-80.56640625
-80.56640625
-79.65087890625
-77.81982421875
-76.904296875
-77.81982421875
-83.31298828125
-83.31298828125
-88.80615234375
-92.46826171875
-86.0595703125
-99.79248046875
-95.21484375
-102.5390625
-108.94775390625
-129.08935546875
-163.87939453125
-196.83837890625
-205.078125
-186.767578125
-149.23095703125
-118.10302734375
-60.4248046875
-1.8310546875
55.84716796875
130.0048828125
201.416015625
283.8134765625
375.3662109375
499.8779296875
611.572265625
726.01318359375
817.56591796875
833.1298828125
747.0703125
598.7548828125
441.2841796875
375.3662109375
314.02587890625
234.375
152.89306640625
86.0595703125
42.1142578125
4.57763671875
-25.634765625
-46.69189453125
-41.19873046875
-28.38134765625
-10.07080078125
10.07080078125
28.38134765625
32.958984375
20.1416015625
11.90185546875
2.74658203125
-7.32421875
-12.8173828125
-14.6484375
-19.22607421875
-19.22607421875
-21.05712890625
-25.634765625
-27.4658203125
-33.87451171875
-32.04345703125
-28.38134765625
-26.55029296875
-40.283203125
-44.86083984375
-43.02978515625
-50.35400390625
-28.38134765625
-25.634765625
-31.1279296875
-29.296875
-34.7900390625
-30.21240234375
-32.04345703125
-25.634765625
-21.97265625
-21.05712890625
-22.88818359375
-23.8037109375
-21.05712890625
-13.73291015625
-13.73291015625
-22.88818359375
-19.22607421875
-21.05712890625
-21.05712890625
-21.97265625
-19.22607421875
-23.8037109375
-18.310546875
-16.4794921875
-10.07080078125
-5.4931640625
-5.4931640625
-8.23974609375
2.74658203125
3.662109375
1.8310546875
-3.662109375
4.57763671875
1.8310546875
8.23974609375
13.73291015625
9.1552734375
6.40869140625
14.6484375
19.22607421875
15.56396484375
13.73291015625
13.73291015625
12.8173828125
16.4794921875
20.1416015625
21.97265625
32.958984375
30.21240234375
30.21240234375
31.1279296875
30.21240234375
31.1279296875
32.958984375
21.97265625
44.86083984375
51.26953125
51.26953125
58.59375
59.50927734375
54.931640625
57.67822265625
57.67822265625
59.50927734375
70.49560546875
77.81982421875
80.56640625
79.65087890625
79.65087890625
82.3974609375
90.63720703125
94.29931640625
97.0458984375
107.11669921875
107.11669921875
108.0322265625
122.6806640625
119.93408203125
124.51171875
131.8359375
136.41357421875
143.73779296875
141.90673828125
145.56884765625
151.06201171875
155.6396484375
159.3017578125
152.89306640625
152.89306640625
156.55517578125
167.54150390625
173.9501953125
170.2880859375
169.37255859375
163.87939453125
159.3017578125
165.71044921875
168.45703125
168.45703125
159.3017578125
164.794921875
165.71044921875
163.87939453125
155.6396484375
140.07568359375
135.498046875
143.73779296875
131.8359375
120.849609375
108.94775390625
89.7216796875
74.15771484375
64.0869140625
54.931640625
45.7763671875
36.62109375
28.38134765625
23.8037109375
14.6484375
7.32421875
-7.32421875
-20.1416015625
-20.1416015625
-29.296875
-37.53662109375
-41.19873046875
-50.35400390625
-62.255859375
-57.67822265625
-54.931640625
-60.4248046875
-54.01611328125
-54.01611328125
-65.00244140625
-66.83349609375
-58.59375
-54.01611328125
-47.607421875
-41.19873046875
-43.02978515625
-51.26953125
-57.67822265625
-66.83349609375
-64.0869140625
-60.4248046875
-53.1005859375
-51.26953125
-50.35400390625
-53.1005859375
-51.26953125
-52.18505859375
-43.9453125
-52.18505859375
-65.00244140625
-69.580078125
-50.35400390625
-59.50927734375
-68.66455078125
-65.91796875
-58.59375
-57.67822265625
-62.255859375
-61.34033203125
-59.50927734375
-54.931640625
-49.4384765625
-40.283203125
-43.02978515625
-45.7763671875
-44.86083984375
-36.62109375
-33.87451171875
-23.8037109375
-31.1279296875
-33.87451171875
-32.04345703125
-31.1279296875
-28.38134765625
-28.38134765625
-31.1279296875
-26.55029296875
-43.9453125
-27.4658203125
-28.38134765625
-27.4658203125
-32.04345703125
-38.4521484375
-34.7900390625
-34.7900390625
-30.21240234375
-32.958984375
-38.4521484375
-32.958984375
-32.958984375
-33.87451171875
-35.70556640625
-52.18505859375
-55.84716796875
-47.607421875
-45.7763671875
-40.283203125
-42.1142578125
-43.9453125
-49.4384765625
-71.4111328125
-52.18505859375
-34.7900390625
-51.26953125
-50.35400390625
-48.52294921875
-50.35400390625
-53.1005859375
-49.4384765625
-38.4521484375
-51.26953125
-75.0732421875
-62.255859375
-56.7626953125
-60.4248046875
-53.1005859375
-45.7763671875
-50.35400390625
-49.4384765625
-47.607421875
-46.69189453125
-45.7763671875
-47.607421875
-69.580078125
-50.35400390625
-48.52294921875
-52.18505859375
-53.1005859375
-59.50927734375
-65.00244140625
-60.4248046875
-60.4248046875
-66.83349609375
-61.34033203125
-53.1005859375
-51.26953125
-60.4248046875
-65.91796875
-65.91796875
-62.255859375
-61.34033203125
-58.59375
-64.0869140625
-63.17138671875
-63.17138671875
-63.17138671875
-59.50927734375
-62.255859375
-63.17138671875
-66.83349609375
-79.65087890625
-71.4111328125
-59.50927734375
-67.7490234375
-67.7490234375
-65.00244140625
-76.904296875
-73.2421875
-66.83349609375
-66.83349609375
-63.17138671875
-66.83349609375
-66.83349609375
-64.0869140625
-62.255859375
-58.59375
-62.255859375
-61.34033203125
-69.580078125
-74.15771484375
-69.580078125
-71.4111328125
-74.15771484375
-71.4111328125
-79.65087890625
-72.32666015625
-65.91796875
-79.65087890625
-82.3974609375
-84.228515625
-75.0732421875
-72.32666015625
-79.65087890625
-75.0732421875
-66.83349609375
-61.34033203125
-65.91796875
-66.83349609375
-65.00244140625
-59.50927734375
-65.91796875
-60.4248046875
-54.931640625
-53.1005859375
-41.19873046875
-29.296875
-25.634765625
-22.88818359375
-18.310546875
-4.57763671875
-1.8310546875
-6.40869140625
-5.4931640625
-11.90185546875
-23.8037109375
-4.57763671875
14.6484375
10.986328125
9.1552734375
9.1552734375
13.73291015625
13.73291015625
15.56396484375
14.6484375
17.39501953125
10.07080078125
10.07080078125
10.07080078125
10.07080078125
10.986328125
8.23974609375
5.4931640625
-1.8310546875
-14.6484375
-21.05712890625
-25.634765625
-41.19873046875
-58.59375
-58.59375
-58.59375
-62.255859375
-62.255859375
-79.65087890625
-73.2421875
-69.580078125
-71.4111328125
-69.580078125
-69.580078125
-73.2421875
-82.3974609375
-86.0595703125
-80.56640625
-79.65087890625
-84.228515625
-80.56640625
-73.2421875
-67.7490234375
-67.7490234375
-69.580078125
-75.98876953125
-76.904296875
-71.4111328125
-73.2421875
-75.98876953125
-69.580078125
-74.15771484375
-79.65087890625
-81.48193359375
-87.890625
-86.97509765625
-90.63720703125
-80.56640625
-67.7490234375
-74.15771484375
-74.15771484375
-79.65087890625
-98.876953125
-120.849609375
-148.3154296875
-198.66943359375
-218.81103515625
-207.82470703125
-168.45703125
-130.92041015625
-85.14404296875
-21.05712890625
34.7900390625
106.201171875
186.767578125
272.8271484375
351.5625
452.2705078125
574.03564453125
671.08154296875
788.26904296875
851.4404296875
823.05908203125
707.70263671875
546.56982421875
412.90283203125
360.7177734375
293.88427734375
215.14892578125
140.07568359375
78.7353515625
36.62109375
5.4931640625
-33.87451171875
-37.53662109375
-32.958984375
-4.57763671875
21.05712890625
20.1416015625
24.71923828125
24.71923828125
9.1552734375
-4.57763671875
-15.56396484375
-23.8037109375
-28.38134765625
-22.88818359375
-17.39501953125
-6.40869140625
-10.07080078125
-14.6484375
-27.4658203125
-40.283203125
-21.97265625
-13.73291015625
-26.55029296875
-29.296875
-28.38134765625
-28.38134765625
-23.8037109375
-20.1416015625
-14.6484375
-33.87451171875
-32.958984375
-32.958984375
-31.1279296875
-25.634765625
-21.05712890625
-12.8173828125
-16.4794921875
-22.88818359375
-23.8037109375
-23.8037109375
-23.8037109375
-25.634765625
-17.39501953125
-9.1552734375
-14.6484375
-27.4658203125
-13.73291015625
-4.57763671875
-10.07080078125
-7.32421875
-5.4931640625
-5.4931640625
-3.662109375
-2.74658203125
-3.662109375
-3.662109375
-2.74658203125
-2.74658203125
-0.91552734375
-1.8310546875
2.74658203125
-0.91552734375
5.4931640625
10.07080078125
7.32421875
9.1552734375
13.73291015625
14.6484375
9.1552734375
4.57763671875
23.8037109375
21.05712890625
10.986328125
16.4794921875
22.88818359375
23.8037109375
25.634765625
35.70556640625
39.36767578125
32.04345703125
40.283203125
47.607421875
49.4384765625
59.50927734375
62.255859375
62.255859375
71.4111328125
74.15771484375
72.32666015625
68.66455078125
74.15771484375
81.48193359375
75.98876953125
72.32666015625
80.56640625
72.32666015625
88.80615234375
92.46826171875
87.890625
92.46826171875
97.0458984375
93.3837890625
99.79248046875
105.28564453125
113.525390625
127.25830078125
132.75146484375
139.16015625
135.498046875
147.39990234375
162.04833984375
163.87939453125
157.470703125
156.55517578125
162.9638671875
165.71044921875
163.87939453125
167.54150390625
173.9501953125
179.443359375
183.10546875
178.52783203125
168.45703125
172.119140625
177.6123046875
170.2880859375
170.2880859375
174.86572265625
167.54150390625
149.23095703125
141.90673828125
141.90673828125
132.75146484375
123.59619140625
113.525390625
97.96142578125
89.7216796875
78.7353515625
60.4248046875
47.607421875
51.26953125
45.7763671875
38.4521484375
23.8037109375
13.73291015625
6.40869140625
4.57763671875
4.57763671875
-2.74658203125
-4.57763671875
-16.4794921875
-42.1142578125
-31.1279296875
-31.1279296875
-42.1142578125
-40.283203125
-45.7763671875
-58.59375
-55.84716796875
-50.35400390625
-48.52294921875
-44.86083984375
-52.18505859375
-54.931640625
-52.18505859375
-44.86083984375
-47.607421875
-56.7626953125
-65.00244140625
-61.34033203125
-52.18505859375
-64.0869140625
-50.35400390625
-39.36767578125
-36.62109375
-35.70556640625
-46.69189453125
-41.19873046875
-46.69189453125
-48.52294921875
-50.35400390625
-49.4384765625
-48.52294921875
-42.1142578125
-45.7763671875
-48.52294921875
-48.52294921875
-45.7763671875
-52.18505859375
-51.26953125
-55.84716796875
-51.26953125
-43.02978515625
-43.02978515625
-41.19873046875
-45.7763671875
-45.7763671875
-50.35400390625
-54.01611328125
-57.67822265625
-61.34033203125
-65.91796875
-58.59375
-54.931640625
-40.283203125
-45.7763671875
-50.35400390625
-47.607421875
-46.69189453125
-46.69189453125
-46.69189453125
-50.35400390625
-55.84716796875
-48.52294921875
-42.1142578125
-34.7900390625
-41.19873046875
-41.19873046875
-40.283203125
-42.1142578125
-37.53662109375
-35.70556640625
-32.958984375
-36.62109375
-42.1142578125
-43.02978515625
-42.1142578125
-37.53662109375
-39.36767578125
-38.4521484375
-37.53662109375
-40.283203125
-42.1142578125
-52.18505859375
-54.931640625
-52.18505859375
-47.607421875
-48.52294921875
-50.35400390625
-53.1005859375
-54.01611328125
-51.26953125
-52.18505859375
-53.1005859375
-57.67822265625
-61.34033203125
-63.17138671875
-65.00244140625
-67.7490234375
-67.7490234375
-67.7490234375
-66.83349609375
-65.91796875
-67.7490234375
-58.59375
-61.34033203125
-65.91796875
-62.255859375
-62.255859375
-73.2421875
-65.91796875
-57.67822265625
-60.4248046875
-75.0732421875
-60.4248046875
-65.91796875
-61.34033203125
-58.59375
-76.904296875
-79.65087890625
-76.904296875
-68.66455078125
-66.83349609375
-62.255859375
-68.66455078125
-69.580078125
-65.00244140625
-65.91796875
-62.255859375
-65.91796875
-65.91796875
-66.83349609375
-63.17138671875
-63.17138671875
-67.7490234375
-65.00244140625
-64.0869140625
-60.4248046875
-64.0869140625
-79.65087890625
-72.32666015625
-62.255859375
-72.32666015625
-64.0869140625
-76.904296875
-82.3974609375
-96.13037109375
-85.14404296875
-73.2421875
-82.3974609375
-72.32666015625
-73.2421875
-74.15771484375
-74.15771484375
-71.4111328125
-64.0869140625
-64.0869140625
-71.4111328125
-86.0595703125
-85.14404296875
-72.32666015625
-67.7490234375
-65.00244140625
-74.15771484375
-81.48193359375
-70.49560546875
-66.83349609375
-65.91796875
-54.931640625
-49.4384765625
-43.9453125
-33.87451171875
-28.38134765625
-28.38134765625
-34.7900390625
-12.8173828125
-21.97265625
-36.62109375
-32.958984375
-24.71923828125
-21.97265625
-10.986328125
-2.74658203125
1.8310546875
11.90185546875
18.310546875
36.62109375
32.958984375
26.55029296875
30.21240234375
15.56396484375
5.4931640625
-1.8310546875
10.986328125
21.05712890625
15.56396484375
3.662109375
-5.4931640625
-17.39501953125
-28.38134765625
-41.19873046875
-54.931640625
-61.34033203125
-61.34033203125
-67.7490234375
-69.580078125
-73.2421875
-71.4111328125
-67.7490234375
-84.228515625
-73.2421875
-73.2421875
-77.81982421875
-69.580078125
-67.7490234375
-71.4111328125
-69.580078125
-70.49560546875
-80.56640625
-82.3974609375
-79.65087890625
-86.97509765625
-88.80615234375
-89.7216796875
-89.7216796875
-87.890625
-80.56640625
-76.904296875
-72.32666015625
-85.14404296875
-94.29931640625
-84.228515625
-73.2421875
-69.580078125
-74.15771484375
-75.98876953125
-85.14404296875
-82.3974609375
-75.98876953125
-82.3974609375
-80.56640625
-89.7216796875
-102.5390625
-130.0048828125
-174.86572265625
-214.2333984375
-221.5576171875
-190.4296875
-165.71044921875
-131.8359375
-67.7490234375
3.662109375
65.91796875
155.6396484375
240.78369140625
319.51904296875
404.6630859375
529.1748046875
638.12255859375
755.31005859375
852.35595703125
869.7509765625
767.2119140625
604.248046875
451.35498046875
399.169921875
359.80224609375
274.658203125
185.85205078125
120.849609375
63.17138671875
30.21240234375
-6.40869140625
-28.38134765625
-38.4521484375
-38.4521484375
-13.73291015625
13.73291015625
16.4794921875
15.56396484375
7.32421875
-6.40869140625
-2.74658203125
-11.90185546875
-15.56396484375
-17.39501953125
-7.32421875
-10.986328125
-17.39501953125
-24.71923828125
-24.71923828125
-15.56396484375
-21.97265625
-25.634765625
-21.05712890625
-26.55029296875
-33.87451171875
-25.634765625
-32.958984375
-38.4521484375
-33.87451171875
-32.04345703125
-24.71923828125
-23.8037109375
-27.4658203125
-24.71923828125
-20.1416015625
-18.310546875
-21.97265625
-21.97265625
-16.4794921875
-18.310546875
-16.4794921875
-18.310546875
-9.1552734375
-7.32421875
-8.23974609375
-12.8173828125
-12.8173828125
-10.986328125
-16.4794921875
-1.8310546875
-12.8173828125
-4.57763671875
5.4931640625
2.74658203125
5.4931640625
8.23974609375
10.07080078125
10.07080078125
11.90185546875
1.8310546875
0
11.90185546875
11.90185546875
19.22607421875
23.8037109375
16.4794921875
17.39501953125
21.97265625
23.8037109375
21.05712890625
18.310546875
14.6484375
19.22607421875
27.4658203125
33.87451171875
28.38134765625
30.21240234375
34.7900390625
46.69189453125
48.52294921875
46.69189453125
47.607421875
46.69189453125
60.4248046875
54.01611328125
52.18505859375
53.1005859375
57.67822265625
42.1142578125
60.4248046875
71.4111328125
85.14404296875
94.29931640625
92.46826171875
98.876953125
95.21484375
97.96142578125
105.28564453125
102.5390625
103.45458984375
107.11669921875
107.11669921875
108.0322265625
111.6943359375
117.1875
113.525390625
119.93408203125
128.173828125
142.822265625
153.80859375
146.484375
155.6396484375
159.3017578125
153.80859375
158.38623046875
155.6396484375
159.3017578125
161.1328125
157.470703125
159.3017578125
163.87939453125
164.794921875
166.6259765625
173.03466796875
179.443359375
168.45703125
164.794921875
176.69677734375
167.54150390625
154.72412109375
149.23095703125
130.0048828125
134.58251953125
125.42724609375
111.6943359375
114.44091796875
92.46826171875
85.14404296875
79.65087890625
68.66455078125
61.34033203125
45.7763671875
38.4521484375
27.4658203125
17.39501953125
17.39501953125
15.56396484375
-3.662109375
-10.07080078125
-16.4794921875
-22.88818359375
-27.4658203125
-23.8037109375
-14.6484375
-12.8173828125
-14.6484375
-33.87451171875
-40.283203125
-47.607421875
-42.1142578125
-45.7763671875
-48.52294921875
-46.69189453125
-42.1142578125
-48.52294921875
-51.26953125
-45.7763671875
-46.69189453125
-49.4384765625
-50.35400390625
-49.4384765625
-53.1005859375
-50.35400390625
-51.26953125
-45.7763671875
-42.1142578125
-43.9453125
-41.19873046875
-54.01611328125
-63.17138671875
-75.0732421875
-58.59375
-56.7626953125
-62.255859375
-60.4248046875
-54.931640625
-44.86083984375
-44.86083984375
-43.9453125
-42.1142578125
-52.18505859375
-49.4384765625
-49.4384765625
-51.26953125
-51.26953125
-49.4384765625
-44.86083984375
-37.53662109375
-33.87451171875
-29.296875
-35.70556640625
-49.4384765625
-46.69189453125
-40.283203125
-33.87451171875
-41.19873046875
-43.9453125
-43.9453125
-53.1005859375
-47.607421875
-54.01611328125
-56.7626953125
-42.1142578125
-39.36767578125
-44.86083984375
-39.36767578125
-34.7900390625
-17.39501953125
-27.4658203125
-34.7900390625
-32.958984375
-36.62109375
-33.87451171875
-41.19873046875
-45.7763671875
-51.26953125
-36.62109375
-42.1142578125
-41.19873046875
-41.19873046875
-41.19873046875
-37.53662109375
-47.607421875
-52.18505859375
-53.1005859375
-58.59375
-61.34033203125
-60.4248046875
-64.0869140625
-65.00244140625
-75.0732421875
-69.580078125
-67.7490234375
-69.580078125
-54.01611328125
-55.84716796875
-49.4384765625
-54.01611328125
-58.59375
-59.50927734375
-62.255859375
-61.34033203125
-57.67822265625
-52.18505859375
-54.931640625
-59.50927734375
-65.91796875
-63.17138671875
-67.7490234375
-58.59375
-66.83349609375
-65.91796875
-58.59375
-56.7626953125
-56.7626953125
-65.00244140625
-69.580078125
-70.49560546875
-69.580078125
-74.15771484375
-70.49560546875
-44.86083984375
-57.67822265625
-63.17138671875
-73.2421875
-63.17138671875
-67.7490234375
-72.32666015625
-75.98876953125
-68.66455078125
-71.4111328125
-75.0732421875
-62.255859375
-60.4248046875
-59.50927734375
-59.50927734375
-59.50927734375
-69.580078125
-72.32666015625
-72.32666015625
-73.2421875
-71.4111328125
-68.66455078125
-67.7490234375
-77.81982421875
-66.83349609375
-65.00244140625
-62.255859375
-71.4111328125
-79.65087890625
-87.890625
-82.3974609375
-78.7353515625
-73.2421875
-63.17138671875
-65.00244140625
-61.34033203125
-63.17138671875
-66.83349609375
-64.0869140625
-72.32666015625
-71.4111328125
-80.56640625
-83.31298828125
-58.59375
-48.52294921875
-34.7900390625
-29.296875
-24.71923828125
-31.1279296875
-24.71923828125
-17.39501953125
-25.634765625
-26.55029296875
-25.634765625
-26.55029296875
-23.8037109375
-1.8310546875
5.4931640625
10.986328125
17.39501953125
20.1416015625
27.4658203125
26.55029296875
15.56396484375
7.32421875
10.07080078125
4.57763671875
9.1552734375
5.4931640625
7.32421875
4.57763671875
8.23974609375
0.91552734375
-13.73291015625
-26.55029296875
-32.958984375
-43.02978515625
-54.01611328125
-62.255859375
-65.00244140625
-65.00244140625
-70.49560546875
-65.91796875
-72.32666015625
-75.98876953125
-70.49560546875
-81.48193359375
-88.80615234375
-73.2421875
-64.0869140625
-62.255859375
-62.255859375
-65.91796875
-73.2421875
-73.2421875
-74.15771484375
-76.904296875
-81.48193359375
-91.552734375
-86.0595703125
-84.228515625
-91.552734375
-86.97509765625
-86.0595703125
-90.63720703125
-90.63720703125
-87.890625
-87.890625
-90.63720703125
-87.890625
-85.14404296875
-79.65087890625
-77.81982421875
-72.32666015625
-68.66455078125
-70.49560546875
-78.7353515625
-104.3701171875
-136.41357421875
-164.794921875
-199.5849609375
-210.5712890625
-195.9228515625
-146.484375
-106.201171875
-46.69189453125
10.986328125
65.91796875
143.73779296875
216.064453125
305.7861328125
396.42333984375
514.5263671875
612.48779296875
723.2666015625
828.55224609375
838.623046875
758.056640625
606.99462890625
433.04443359375
378.11279296875
332.33642578125
247.1923828125
164.794921875
105.28564453125
61.34033203125
32.958984375
-9.1552734375
-24.71923828125
-27.4658203125
-14.6484375
9.1552734375
26.55029296875
21.97265625
19.22607421875
20.1416015625
2.74658203125
-12.8173828125
-21.97265625
-25.634765625
-27.4658203125
-31.1279296875
-19.22607421875
-21.05712890625
-23.8037109375
-25.634765625
-30.21240234375
-32.04345703125
-21.05712890625
-25.634765625
-26.55029296875
-9.1552734375
-3.662109375
-7.32421875
-13.73291015625
-14.6484375
-12.8173828125
-32.958984375
-23.8037109375
-15.56396484375
-14.6484375
-14.6484375
-20.1416015625
-14.6484375
-15.56396484375
-16.4794921875
-10.07080078125
-10.07080078125
-4.57763671875
-10.986328125
-3.662109375
-3.662109375
-10.986328125
-4.57763671875
0
-3.662109375
-7.32421875
-3.662109375
2.74658203125
-1.8310546875
0
-0.91552734375
2.74658203125
0
-5.4931640625
-5.4931640625
0.91552734375
14.6484375
19.22607421875
17.39501953125
21.05712890625
21.05712890625
14.6484375
17.39501953125
16.4794921875
12.8173828125
33.87451171875
29.296875
30.21240234375
40.283203125
49.4384765625
55.84716796875
56.7626953125
50.35400390625
44.86083984375
40.283203125
42.1142578125
50.35400390625
62.255859375
69.580078125
67.7490234375
55.84716796875
64.0869140625
70.49560546875
78.7353515625
75.0732421875
76.904296875
82.3974609375
80.56640625
85.14404296875
90.63720703125
102.5390625
104.3701171875
100.7080078125
94.29931640625
86.0595703125
97.96142578125
124.51171875
127.25830078125
130.92041015625
119.93408203125
124.51171875
141.90673828125
142.822265625
148.3154296875
159.3017578125
162.04833984375
165.71044921875
164.794921875
169.37255859375
162.9638671875
165.71044921875
174.86572265625
170.2880859375
172.119140625
162.04833984375
162.04833984375
168.45703125
169.37255859375
173.9501953125
184.02099609375
175.78125
184.02099609375
181.2744140625
176.69677734375
171.20361328125
165.71044921875
153.80859375
145.56884765625
131.8359375
116.27197265625
118.10302734375
102.5390625
101.62353515625
95.21484375
80.56640625
69.580078125
65.00244140625
51.26953125
43.9453125
32.04345703125
21.97265625
13.73291015625
4.57763671875
4.57763671875
10.986328125
-5.4931640625
-10.07080078125
-8.23974609375
-7.32421875
-15.56396484375
-16.4794921875
-14.6484375
-21.05712890625
-22.88818359375
-30.21240234375
-38.4521484375
-41.19873046875
-49.4384765625
-47.607421875
-40.283203125
-39.36767578125
-51.26953125
-54.01611328125
-57.67822265625
-70.49560546875
-75.0732421875
-46.69189453125
-43.02978515625
-43.9453125
-52.18505859375
-48.52294921875
-54.931640625
-57.67822265625
-52.18505859375
-52.18505859375
-43.02978515625
-53.1005859375
-46.69189453125
-37.53662109375
-41.19873046875
-45.7763671875
-43.02978515625
-47.607421875
-47.607421875
-44.86083984375
-43.02978515625
-41.19873046875
-42.1142578125
-41.19873046875
-32.958984375
-34.7900390625
-37.53662109375
-35.70556640625
-34.7900390625
-43.9453125
-53.1005859375
-35.70556640625
-30.21240234375
-36.62109375
-41.19873046875
-42.1142578125
-45.7763671875
-53.1005859375
-51.26953125
-51.26953125
-51.26953125
-42.1142578125
-37.53662109375
-41.19873046875
-43.02978515625
-32.958984375
-32.04345703125
-37.53662109375
-33.87451171875
-32.04345703125
-32.04345703125
-33.87451171875
-43.9453125
-47.607421875
-36.62109375
-32.958984375
-40.283203125
-46.69189453125
-35.70556640625
-43.02978515625
-47.607421875
-43.9453125
-43.9453125
-39.36767578125
-49.4384765625
-50.35400390625
-30.21240234375
-37.53662109375
-50.35400390625
-44.86083984375
-50.35400390625
-55.84716796875
-48.52294921875
-37.53662109375
-35.70556640625
-38.4521484375
-42.1142578125
-47.607421875
-53.1005859375
-53.1005859375
-50.35400390625
-49.4384765625
-54.931640625
-55.84716796875
-64.0869140625
-59.50927734375
-62.255859375
-57.67822265625
-54.931640625
-56.7626953125
-57.67822265625
-62.255859375
-59.50927734375
-61.34033203125
-46.69189453125
-54.931640625
-54.01611328125
-49.4384765625
-57.67822265625
-67.7490234375
-51.26953125
-59.50927734375
-66.83349609375
-63.17138671875
-65.91796875
-69.580078125
-61.34033203125
-59.50927734375
-54.01611328125
-46.69189453125
-52.18505859375
-64.0869140625
-61.34033203125
-54.01611328125
-53.1005859375
-51.26953125
-54.01611328125
-50.35400390625
-65.91796875
-58.59375
-59.50927734375
-65.00244140625
-61.34033203125
-63.17138671875
-61.34033203125
-55.84716796875
-53.1005859375
-50.35400390625
-58.59375
-59.50927734375
-59.50927734375
-70.49560546875
-73.2421875
-72.32666015625
-77.81982421875
-57.67822265625
-63.17138671875
-68.66455078125
-60.4248046875
-42.1142578125
-45.7763671875
-48.52294921875
-52.18505859375
-53.1005859375
-57.67822265625
-52.18505859375
-56.7626953125
-59.50927734375
-62.255859375
-65.91796875
-68.66455078125
-70.49560546875
-68.66455078125
-62.255859375
-58.59375
-53.1005859375
-51.26953125
-51.26953125
-55.84716796875
-54.931640625
-53.1005859375
-41.19873046875
-21.05712890625
-7.32421875
0
-1.8310546875
-18.310546875
-18.310546875
-11.90185546875
-13.73291015625
-7.32421875
-4.57763671875
-8.23974609375
3.662109375
14.6484375
36.62109375
44.86083984375
40.283203125
38.4521484375
39.36767578125
32.04345703125
25.634765625
12.8173828125
13.73291015625
17.39501953125
13.73291015625
21.05712890625
21.05712890625
6.40869140625
-21.05712890625
-30.21240234375
-27.4658203125
-30.21240234375
-35.70556640625
-32.958984375
-42.1142578125
-34.7900390625
-43.02978515625
-42.1142578125
-39.36767578125
-55.84716796875
-55.84716796875
-57.67822265625
-63.17138671875
-65.00244140625
-69.580078125
-54.931640625
-63.17138671875
-51.26953125
-47.607421875
-59.50927734375
-69.580078125
-66.83349609375
-66.83349609375
-64.0869140625
-67.7490234375
-69.580078125
-68.66455078125
-68.66455078125
-76.904296875
-75.98876953125
-74.15771484375
-74.15771484375
-67.7490234375
-73.2421875
-74.15771484375
-76.904296875
-75.0732421875
-68.66455078125
-63.17138671875
-68.66455078125
-73.2421875
-78.7353515625
-91.552734375
-108.0322265625
-135.498046875
-166.6259765625
-191.34521484375
-180.35888671875
-133.6669921875
-99.79248046875
-44.86083984375
14.6484375
60.4248046875
128.173828125
195.9228515625
267.333984375
372.61962890625
478.82080078125
602.4169921875
718.68896484375
818.4814453125
861.51123046875
823.05908203125
701.2939453125
525.5126953125
418.39599609375
354.30908203125
277.40478515625
206.9091796875
141.90673828125
85.14404296875
44.86083984375
13.73291015625
-0.91552734375
-10.986328125
7.32421875
35.70556640625
34.7900390625
34.7900390625
41.19873046875
40.283203125
28.38134765625
11.90185546875
1.8310546875
1.8310546875
3.662109375
4.57763671875
0.91552734375
3.662109375
-0.91552734375
0
5.4931640625
6.40869140625
2.74658203125
-0.91552734375
1.8310546875
-1.8310546875
-10.986328125
0.91552734375
0
-5.4931640625
-12.8173828125
-10.07080078125
4.57763671875
2.74658203125
-2.74658203125
-6.40869140625
-2.74658203125
0
-4.57763671875
-2.74658203125
0
5.4931640625
5.4931640625
14.6484375
11.90185546875
10.07080078125
13.73291015625
14.6484375
15.56396484375
18.310546875
18.310546875
20.1416015625
21.97265625
26.55029296875
28.38134765625
37.53662109375
30.21240234375
34.7900390625
37.53662109375
33.87451171875
27.4658203125
19.22607421875
36.62109375
39.36767578125
32.958984375
38.4521484375
36.62109375
33.87451171875
32.958984375
38.4521484375
46.69189453125
50.35400390625
51.26953125
39.36767578125
43.9453125
52.18505859375
55.84716796875
59.50927734375
57.67822265625
63.17138671875
54.931640625
63.17138671875
72.32666015625
76.904296875
77.81982421875
76.904296875
77.81982421875
81.48193359375
93.3837890625
96.13037109375
92.46826171875
99.79248046875
110.77880859375
115.3564453125
108.94775390625
113.525390625
111.6943359375
108.0322265625
106.201171875
126.3427734375
124.51171875
130.0048828125
136.41357421875
141.90673828125
150.146484375
153.80859375
152.89306640625
156.55517578125
153.80859375
164.794921875
173.03466796875
176.69677734375
171.20361328125
182.18994140625
179.443359375
184.02099609375
191.34521484375
188.5986328125
189.51416015625
197.75390625
203.2470703125
196.83837890625
196.83837890625
204.16259765625
205.078125
207.82470703125
209.65576171875
201.416015625
195.00732421875
193.17626953125
191.34521484375
188.5986328125
178.52783203125
169.37255859375
165.71044921875
156.55517578125
145.56884765625
128.173828125
110.77880859375
119.93408203125
101.62353515625
80.56640625
61.34033203125
75.0732421875
60.4248046875
46.69189453125
41.19873046875
41.19873046875
37.53662109375
28.38134765625
27.4658203125
21.97265625
12.8173828125
9.1552734375
0.91552734375
0
6.40869140625
-1.8310546875
-12.8173828125
-23.8037109375
-32.04345703125
-40.283203125
-38.4521484375
-31.1279296875
-26.55029296875
-21.05712890625
-28.38134765625
-32.04345703125
-28.38134765625
-30.21240234375
-35.70556640625
-39.36767578125
-34.7900390625
-37.53662109375
-31.1279296875
-34.7900390625
-30.21240234375
-26.55029296875
-30.21240234375
-29.296875
-35.70556640625
-37.53662109375
-33.87451171875
-33.87451171875
-39.36767578125
-37.53662109375
-32.04345703125
-23.8037109375
-24.71923828125
-20.1416015625
-18.310546875
-24.71923828125
-21.05712890625
-23.8037109375
-15.56396484375
-14.6484375
-24.71923828125
-23.8037109375
-12.8173828125
-12.8173828125
-14.6484375
-12.8173828125
-17.39501953125
-20.1416015625
-21.05712890625
-28.38134765625
-19.22607421875
-21.97265625
-25.634765625
-24.71923828125
-30.21240234375
-25.634765625
-27.4658203125
-26.55029296875
-17.39501953125
-16.4794921875
-20.1416015625
-20.1416015625
-13.73291015625
-20.1416015625
-18.310546875
-24.71923828125
-24.71923828125
-22.88818359375
-26.55029296875
-26.55029296875
-23.8037109375
-30.21240234375
-32.04345703125
-30.21240234375
-32.958984375
-37.53662109375
-43.02978515625
-38.4521484375
-29.296875
-27.4658203125
-24.71923828125
-21.05712890625
-23.8037109375
-25.634765625
-40.283203125
-47.607421875
-35.70556640625
-30.21240234375
-34.7900390625
-38.4521484375
-16.4794921875
-28.38134765625
-37.53662109375
-36.62109375
-36.62109375
-31.1279296875
-30.21240234375
-32.958984375
-32.04345703125
-33.87451171875
-39.36767578125
-37.53662109375
-45.7763671875
-45.7763671875
-48.52294921875
-54.01611328125
-45.7763671875
-48.52294921875
-43.9453125
-47.607421875
-52.18505859375
-44.86083984375
-48.52294921875
-40.283203125
-43.9453125
-42.1142578125
-41.19873046875
-32.04345703125
-37.53662109375
-43.9453125
-50.35400390625
-58.59375
-56.7626953125
-55.84716796875
-50.35400390625
-52.18505859375
-45.7763671875
-49.4384765625
-44.86083984375
-40.283203125
-44.86083984375
-43.9453125
-47.607421875
-54.931640625
-55.84716796875
-55.84716796875
-54.931640625
-53.1005859375
-50.35400390625
-52.18505859375
-48.52294921875
-60.4248046875
-43.9453125
-40.283203125
-36.62109375
-36.62109375
-43.9453125
-53.1005859375
-54.01611328125
-54.931640625
-57.67822265625
-57.67822265625
-55.84716796875
-43.9453125
-49.4384765625
-43.02978515625
-43.9453125
-48.52294921875
-46.69189453125
-41.19873046875
-35.70556640625
-35.70556640625
-40.283203125
-35.70556640625
-34.7900390625
-40.283203125
-42.1142578125
-46.69189453125
-53.1005859375
-44.86083984375
-38.4521484375
-33.87451171875
-26.55029296875
-24.71923828125
-1.8310546875
3.662109375
3.662109375
4.57763671875
4.57763671875
-0.91552734375
-1.8310546875
-2.74658203125
-0.91552734375
8.23974609375
13.73291015625
22.88818359375
24.71923828125
38.4521484375
41.19873046875
41.19873046875
34.7900390625
35.70556640625
41.19873046875
33.87451171875
31.1279296875
36.62109375
36.62109375
34.7900390625
36.62109375
32.04345703125
28.38134765625
17.39501953125
5.4931640625
3.662109375
-4.57763671875
-18.310546875
-28.38134765625
-31.1279296875
-31.1279296875
-32.958984375
-31.1279296875
-29.296875
-40.283203125
-49.4384765625
-50.35400390625
-57.67822265625
-63.17138671875
-51.26953125
-42.1142578125
-45.7763671875
-29.296875
-40.283203125
-47.607421875
-43.9453125
-44.86083984375
-48.52294921875
-54.01611328125
-55.84716796875
-51.26953125
-53.1005859375
-43.9453125
-43.9453125
-51.26953125
-51.26953125
-56.7626953125
-56.7626953125
-51.26953125
-50.35400390625
-60.4248046875
-59.50927734375
-56.7626953125
-54.931640625
-45.7763671875
-53.1005859375
-55.84716796875
-69.580078125
-90.63720703125
-100.7080078125
-131.8359375
-170.2880859375
-184.02099609375
-160.21728515625
-118.10302734375
-78.7353515625
-21.97265625
33.87451171875
100.7080078125
173.03466796875
249.93896484375
321.35009765625
413.818359375
536.4990234375
650.0244140625
756.2255859375
852.35595703125
854.18701171875
780.029296875
655.517578125
482.48291015625
405.57861328125
346.0693359375
269.1650390625
202.33154296875
140.07568359375
82.3974609375
40.283203125
22.88818359375
-6.40869140625
-23.8037109375
14.6484375
45.7763671875
33.87451171875
32.04345703125
41.19873046875
49.4384765625
42.1142578125
35.70556640625
30.21240234375
22.88818359375
22.88818359375
21.97265625
19.22607421875
17.39501953125
18.310546875
6.40869140625
0
2.74658203125
3.662109375
10.986328125
10.07080078125
10.986328125
-6.40869140625
-3.662109375
2.74658203125
4.57763671875
7.32421875
10.986328125
9.1552734375
19.22607421875
24.71923828125
16.4794921875
17.39501953125
12.8173828125
16.4794921875
23.8037109375
22.88818359375
22.88818359375
17.39501953125
19.22607421875
13.73291015625
16.4794921875
16.4794921875
15.56396484375
11.90185546875
12.8173828125
20.1416015625
20.1416015625
21.97265625
19.22607421875
8.23974609375
14.6484375
30.21240234375
16.4794921875
25.634765625
46.69189453125
41.19873046875
46.69189453125
46.69189453125
44.86083984375
45.7763671875
43.02978515625
44.86083984375
53.1005859375
46.69189453125
61.34033203125
53.1005859375
52.18505859375
63.17138671875
56.7626953125
66.83349609375
65.91796875
68.66455078125
65.91796875
60.4248046875
63.17138671875
62.255859375
69.580078125
75.0732421875
85.14404296875
82.3974609375
85.14404296875
84.228515625
81.48193359375
89.7216796875
94.29931640625
99.79248046875
106.201171875
113.525390625
121.76513671875
120.849609375
122.6806640625
121.76513671875
116.27197265625
123.59619140625
127.25830078125
134.58251953125
139.16015625
140.9912109375
143.73779296875
146.484375
140.07568359375
134.58251953125
157.470703125
164.794921875
166.6259765625
167.54150390625
172.119140625
175.78125
188.5986328125
190.4296875
182.18994140625
172.119140625
182.18994140625
191.34521484375
200.50048828125
198.66943359375
205.99365234375
217.8955078125
213.31787109375
214.2333984375
209.65576171875
204.16259765625
203.2470703125
194.091796875
190.4296875
178.52783203125
176.69677734375
176.69677734375
162.9638671875
154.72412109375
141.90673828125
135.498046875
134.58251953125
129.08935546875
125.42724609375
113.525390625
103.45458984375
89.7216796875
73.2421875
68.66455078125
54.931640625
50.35400390625
33.87451171875
32.958984375
18.310546875
14.6484375
14.6484375
3.662109375
3.662109375
-3.662109375
0
-4.57763671875
-6.40869140625
5.4931640625
-3.662109375
-7.32421875
-19.22607421875
-24.71923828125
-21.97265625
-26.55029296875
-22.88818359375
-28.38134765625
-35.70556640625
-40.283203125
-38.4521484375
-49.4384765625
-33.87451171875
-15.56396484375
-10.986328125
-7.32421875
-8.23974609375
-17.39501953125
-26.55029296875
-27.4658203125
-28.38134765625
-24.71923828125
-20.1416015625
-28.38134765625
-26.55029296875
-25.634765625
-21.05712890625
-31.1279296875
-26.55029296875
-17.39501953125
-18.310546875
-25.634765625
-17.39501953125
-22.88818359375
-17.39501953125
-10.986328125
-16.4794921875
-15.56396484375
-15.56396484375
-20.1416015625
-21.05712890625
-15.56396484375
-9.1552734375
-11.90185546875
-11.90185546875
-18.310546875
-19.22607421875
-23.8037109375
-29.296875
-22.88818359375
-18.310546875
-7.32421875
-7.32421875
-10.986328125
-8.23974609375
-13.73291015625
-16.4794921875
-21.05712890625
-28.38134765625
-21.97265625
-15.56396484375
-14.6484375
-21.05712890625
-16.4794921875
-19.22607421875
-15.56396484375
-16.4794921875
-21.05712890625
-20.1416015625
-20.1416015625
-25.634765625
-36.62109375
-29.296875
-10.986328125
-21.97265625
-16.4794921875
-10.986328125
-22.88818359375
-34.7900390625
-32.958984375
-27.4658203125
-29.296875
-33.87451171875
-29.296875
-19.22607421875
-25.634765625
-21.97265625
-29.296875
-39.36767578125
-40.283203125
-45.7763671875
-47.607421875
-42.1142578125
-38.4521484375
-42.1142578125
-40.283203125
-40.283203125
-31.1279296875
-31.1279296875
-34.7900390625
-38.4521484375
-34.7900390625
-33.87451171875
-38.4521484375
-33.87451171875
-28.38134765625
-27.4658203125
-31.1279296875
-33.87451171875
-37.53662109375
-37.53662109375
-38.4521484375
-33.87451171875
-31.1279296875
-39.36767578125
-34.7900390625
-40.283203125
-44.86083984375
-49.4384765625
-52.18505859375
-43.9453125
-37.53662109375
-46.69189453125
-34.7900390625
-27.4658203125
-32.958984375
-38.4521484375
-36.62109375
-35.70556640625
-38.4521484375
-32.958984375
-38.4521484375
-33.87451171875
-32.04345703125
-34.7900390625
-41.19873046875
-34.7900390625
-38.4521484375
-46.69189453125
-54.931640625
-51.26953125
-48.52294921875
-55.84716796875
-54.931640625
-54.01611328125
-55.84716796875
-55.84716796875
-53.1005859375
-49.4384765625
-42.1142578125
-46.69189453125
-46.69189453125
-46.69189453125
-64.0869140625
-54.931640625
-39.36767578125
-54.01611328125
-54.01611328125
-50.35400390625
-47.607421875
-45.7763671875
-36.62109375
-24.71923828125
-20.1416015625
-17.39501953125
-9.1552734375
-6.40869140625
-6.40869140625
2.74658203125
2.74658203125
-2.74658203125
-2.74658203125
1.8310546875
6.40869140625
6.40869140625
5.4931640625
20.1416015625
29.296875
29.296875
38.4521484375
43.9453125
44.86083984375
43.9453125
49.4384765625
49.4384765625
50.35400390625
45.7763671875
25.634765625
24.71923828125
32.04345703125
32.958984375
24.71923828125
24.71923828125
32.04345703125
14.6484375
10.986328125
4.57763671875
-13.73291015625
-28.38134765625
-28.38134765625
-39.36767578125
-40.283203125
-42.1142578125
-52.18505859375
-52.18505859375
-41.19873046875
-54.931640625
-57.67822265625
-61.34033203125
-61.34033203125
-50.35400390625
-43.02978515625
-44.86083984375
-40.283203125
-47.607421875
-47.607421875
-43.9453125
-46.69189453125
-56.7626953125
-59.50927734375
-58.59375
-50.35400390625
-52.18505859375
-48.52294921875
-40.283203125
-36.62109375
-41.19873046875
-43.02978515625
-47.607421875
-52.18505859375
-52.18505859375
-56.7626953125
-50.35400390625
-51.26953125
-54.01611328125
-54.01611328125
-64.0869140625
-78.7353515625
-86.0595703125
-112.60986328125
-153.80859375
-180.35888671875
-181.2744140625
-159.3017578125
-113.525390625
-66.83349609375
-14.6484375
29.296875
106.201171875
196.83837890625
262.75634765625
336.9140625
427.55126953125
556.640625
662.841796875
789.1845703125
873.4130859375
874.32861328125
783.69140625
618.896484375
471.49658203125
418.39599609375
369.873046875
277.40478515625
190.4296875
132.75146484375
77.81982421875
54.01611328125
22.88818359375
-4.57763671875
-15.56396484375
-9.1552734375
14.6484375
47.607421875
52.18505859375
51.26953125
57.67822265625
42.1142578125
28.38134765625
23.8037109375
18.310546875
25.634765625
13.73291015625
6.40869140625
10.07080078125
6.40869140625
-1.8310546875
0
-6.40869140625
-7.32421875
-2.74658203125
-4.57763671875
1.8310546875
8.23974609375
13.73291015625
9.1552734375
4.57763671875
0
6.40869140625
10.07080078125
0.91552734375
2.74658203125
3.662109375
5.4931640625
10.07080078125
7.32421875
13.73291015625
11.90185546875
7.32421875
10.07080078125
15.56396484375
13.73291015625
8.23974609375
3.662109375
13.73291015625
12.8173828125
16.4794921875
19.22607421875
18.310546875
26.55029296875
22.88818359375
17.39501953125
24.71923828125
18.310546875
21.05712890625
20.1416015625
17.39501953125
19.22607421875
10.986328125
24.71923828125
35.70556640625
43.9453125
51.26953125
49.4384765625
47.607421875
53.1005859375
41.19873046875
40.283203125
48.52294921875
53.1005859375
58.59375
69.580078125
61.34033203125
57.67822265625
61.34033203125
56.7626953125
66.83349609375
74.15771484375
71.4111328125
71.4111328125
75.0732421875
84.228515625
83.31298828125
92.46826171875
91.552734375
97.96142578125
102.5390625
106.201171875
104.3701171875
105.28564453125
103.45458984375
102.5390625
107.11669921875
109.86328125
109.86328125
119.93408203125
120.849609375
125.42724609375
129.08935546875
134.58251953125
132.75146484375
137.3291015625
144.6533203125
148.3154296875
154.72412109375
167.54150390625
163.87939453125
161.1328125
162.9638671875
166.6259765625
166.6259765625
168.45703125
179.443359375
177.6123046875
170.2880859375
175.78125
194.091796875
185.85205078125
183.10546875
191.34521484375
204.16259765625
201.416015625
196.83837890625
198.66943359375
192.2607421875
186.767578125
173.9501953125
169.37255859375
162.04833984375
154.72412109375
157.470703125
149.23095703125
146.484375
139.16015625
135.498046875
130.92041015625
116.27197265625
105.28564453125
92.46826171875
73.2421875
66.83349609375
55.84716796875
42.1142578125
41.19873046875
39.36767578125
25.634765625
13.73291015625
9.1552734375
21.97265625
10.986328125
3.662109375
-5.4931640625
-9.1552734375
-10.07080078125
-9.1552734375
-5.4931640625
-8.23974609375
-11.90185546875
-14.6484375
-10.986328125
-10.986328125
-21.05712890625
-18.310546875
-16.4794921875
-18.310546875
-20.1416015625
-25.634765625
-32.04345703125
-37.53662109375
-41.19873046875
-36.62109375
-32.958984375
-34.7900390625
-42.1142578125
-39.36767578125
-21.97265625
-21.05712890625
-21.05712890625
-13.73291015625
-22.88818359375
-21.97265625
-22.88818359375
-23.8037109375
-21.97265625
-14.6484375
-23.8037109375
-32.04345703125
-19.22607421875
-17.39501953125
-26.55029296875
-16.4794921875
-15.56396484375
-19.22607421875
-19.22607421875
-12.8173828125
-14.6484375
-18.310546875
-16.4794921875
-12.8173828125
-16.4794921875
-10.986328125
-16.4794921875
-19.22607421875
-14.6484375
-13.73291015625
-7.32421875
-10.986328125
-21.97265625
-26.55029296875
-24.71923828125
-37.53662109375
-33.87451171875
-29.296875
-36.62109375
-22.88818359375
-16.4794921875
-15.56396484375
-22.88818359375
-28.38134765625
-16.4794921875
-11.90185546875
-13.73291015625
-18.310546875
-14.6484375
-18.310546875
-16.4794921875
-19.22607421875
-26.55029296875
-34.7900390625
-30.21240234375
-29.296875
-30.21240234375
-32.958984375
-34.7900390625
-32.958984375
-28.38134765625
-32.04345703125
-35.70556640625
-25.634765625
-27.4658203125
-23.8037109375
-25.634765625
-32.958984375
-23.8037109375
-20.1416015625
-27.4658203125
-30.21240234375
-41.19873046875
-42.1142578125
-26.55029296875
-31.1279296875
-31.1279296875
-29.296875
-34.7900390625
-34.7900390625
-34.7900390625
-38.4521484375
-40.283203125
-45.7763671875
-46.69189453125
-39.36767578125
-39.36767578125
-48.52294921875
-49.4384765625
-43.02978515625
-42.1142578125
-43.9453125
-40.283203125
-39.36767578125
-41.19873046875
-43.9453125
-25.634765625
-26.55029296875
-28.38134765625
-33.87451171875
-46.69189453125
-53.1005859375
-46.69189453125
-41.19873046875
-43.9453125
-46.69189453125
-34.7900390625
-33.87451171875
-44.86083984375
-46.69189453125
-42.1142578125
-41.19873046875
-38.4521484375
-41.19873046875
-45.7763671875
-36.62109375
-43.02978515625
-47.607421875
-48.52294921875
-45.7763671875
-40.283203125
-37.53662109375
-41.19873046875
-37.53662109375
-36.62109375
-43.02978515625
-32.04345703125
-35.70556640625
-32.958984375
-31.1279296875
-36.62109375
-23.8037109375
-6.40869140625
9.1552734375
6.40869140625
-7.32421875
-10.07080078125
-5.4931640625
3.662109375
10.07080078125
8.23974609375
6.40869140625
0
18.310546875
23.8037109375
29.296875
46.69189453125
46.69189453125
42.1142578125
41.19873046875
34.7900390625
37.53662109375
36.62109375
28.38134765625
33.87451171875
38.4521484375
33.87451171875
26.55029296875
24.71923828125
31.1279296875
22.88818359375
5.4931640625
-11.90185546875
-15.56396484375
-33.87451171875
-37.53662109375
-43.02978515625
-44.86083984375
-39.36767578125
-41.19873046875
-43.9453125
-42.1142578125
-44.86083984375
-37.53662109375
-35.70556640625
-39.36767578125
-39.36767578125
-41.19873046875
-47.607421875
-44.86083984375
-47.607421875
-50.35400390625
-54.931640625
-56.7626953125
-66.83349609375
-63.17138671875
-58.59375
-54.931640625
-52.18505859375
-46.69189453125
-51.26953125
-55.84716796875
-58.59375
-56.7626953125
-65.91796875
-64.0869140625
-57.67822265625
-59.50927734375
-58.59375
-56.7626953125
-59.50927734375
-62.255859375
-65.91796875
-67.7490234375
-87.890625
-122.6806640625
-132.75146484375
-172.119140625
-192.2607421875
-182.18994140625
-140.9912109375
-104.3701171875
-54.931640625
15.56396484375
69.580078125
138.24462890625
211.48681640625
294.7998046875
382.6904296875
494.384765625
613.4033203125
720.52001953125
829.4677734375
865.17333984375
815.73486328125
675.6591796875
506.28662109375
412.90283203125
372.61962890625
303.955078125
216.97998046875
149.23095703125
85.14404296875
43.9453125
12.8173828125
-5.4931640625
-4.57763671875
-3.662109375
19.22607421875
41.19873046875
36.62109375
45.7763671875
43.9453125
31.1279296875
29.296875
14.6484375
5.4931640625
11.90185546875
20.1416015625
14.6484375
0
-1.8310546875
2.74658203125
-7.32421875
-7.32421875
-10.986328125
0
1.8310546875
-6.40869140625
-3.662109375
0
-0.91552734375
5.4931640625
-1.8310546875
1.8310546875
6.40869140625
10.986328125
10.986328125
8.23974609375
-2.74658203125
-13.73291015625
-9.1552734375
4.57763671875
3.662109375
0.91552734375
-1.8310546875
-2.74658203125
2.74658203125
7.32421875
6.40869140625
24.71923828125
29.296875
24.71923828125
17.39501953125
17.39501953125
25.634765625
23.8037109375
19.22607421875
27.4658203125
22.88818359375
21.97265625
26.55029296875
31.1279296875
33.87451171875
37.53662109375
36.62109375
38.4521484375
35.70556640625
41.19873046875
39.36767578125
37.53662109375
48.52294921875
54.01611328125
42.1142578125
39.36767578125
49.4384765625
54.01611328125
50.35400390625
45.7763671875
55.84716796875
65.91796875
57.67822265625
54.01611328125
54.931640625
54.931640625
66.83349609375
74.15771484375
77.81982421875
79.65087890625
84.228515625
90.63720703125
90.63720703125
102.5390625
97.96142578125
90.63720703125
77.81982421875
88.80615234375
116.27197265625
116.27197265625
119.93408203125
121.76513671875
125.42724609375
124.51171875
132.75146484375
128.173828125
135.498046875
135.498046875
142.822265625
137.3291015625
139.16015625
147.39990234375
162.04833984375
173.03466796875
174.86572265625
173.03466796875
173.03466796875
174.86572265625
176.69677734375
171.20361328125
176.69677734375
188.5986328125
184.9365234375
189.51416015625
189.51416015625
184.02099609375
189.51416015625
190.4296875
191.34521484375
195.9228515625
198.66943359375
193.17626953125
187.68310546875
185.85205078125
177.6123046875
166.6259765625
151.9775390625
148.3154296875
141.90673828125
130.0048828125
132.75146484375
119.93408203125
117.1875
112.60986328125
93.3837890625
82.3974609375
80.56640625
67.7490234375
50.35400390625
27.4658203125
33.87451171875
43.02978515625
34.7900390625
31.1279296875
22.88818359375
8.23974609375
2.74658203125
-7.32421875
-12.8173828125
-9.1552734375
-6.40869140625
-13.73291015625
-21.05712890625
-26.55029296875
-36.62109375
-39.36767578125
-43.9453125
-32.958984375
-36.62109375
-36.62109375
-39.36767578125
-37.53662109375
-38.4521484375
-40.283203125
-42.1142578125
-31.1279296875
-31.1279296875
-33.87451171875
-38.4521484375
-42.1142578125
-33.87451171875
-24.71923828125
-30.21240234375
-26.55029296875
-27.4658203125
-24.71923828125
-26.55029296875
-24.71923828125
-26.55029296875
-26.55029296875
-24.71923828125
-21.05712890625
-22.88818359375
-28.38134765625
-25.634765625
-32.958984375
-22.88818359375
-12.8173828125
-23.8037109375
-24.71923828125
-26.55029296875
-28.38134765625
-30.21240234375
-32.04345703125
-32.958984375
-30.21240234375
-33.87451171875
-39.36767578125
-26.55029296875
-22.88818359375
-21.97265625
-15.56396484375
-21.05712890625
-24.71923828125
-19.22607421875
-21.05712890625
-25.634765625
-27.4658203125
-33.87451171875
-32.04345703125
-32.04345703125
-27.4658203125
-30.21240234375
-22.88818359375
-23.8037109375
-27.4658203125
-25.634765625
-25.634765625
-21.05712890625
-28.38134765625
-33.87451171875
-32.04345703125
-34.7900390625
-32.04345703125
-33.87451171875
-33.87451171875
-24.71923828125
-17.39501953125
-12.8173828125
-17.39501953125
-24.71923828125
-35.70556640625
-40.283203125
-38.4521484375
-38.4521484375
-42.1142578125
-61.34033203125
-47.607421875
-55.84716796875
-56.7626953125
-53.1005859375
-44.86083984375
-38.4521484375
-45.7763671875
-53.1005859375
-42.1142578125
-38.4521484375
-34.7900390625
-30.21240234375
-35.70556640625
-40.283203125
-37.53662109375
-42.1142578125
-43.02978515625
-38.4521484375
-37.53662109375
-34.7900390625
-36.62109375
-39.36767578125
-46.69189453125
-45.7763671875
-48.52294921875
-47.607421875
-38.4521484375
-42.1142578125
-43.9453125
-56.7626953125
-65.91796875
-54.931640625
-49.4384765625
-54.931640625
-64.0869140625
-63.17138671875
-49.4384765625
-49.4384765625
-52.18505859375
-49.4384765625
-47.607421875
-54.01611328125
-50.35400390625
-48.52294921875
-46.69189453125
-54.01611328125
-57.67822265625
-54.01611328125
-46.69189453125
-48.52294921875
-54.931640625
-60.4248046875
-62.255859375
-57.67822265625
-46.69189453125
-43.9453125
-52.18505859375
-57.67822265625
-59.50927734375
-62.255859375
-60.4248046875
-63.17138671875
-48.52294921875
-38.4521484375
-42.1142578125
-43.02978515625
-44.86083984375
-50.35400390625
-54.01611328125
-58.59375
-54.01611328125
-43.9453125
-31.1279296875
-23.8037109375
-17.39501953125
-9.1552734375
-4.57763671875
-8.23974609375
-13.73291015625
-9.1552734375
-8.23974609375
-13.73291015625
-10.986328125
0
0
-6.40869140625
8.23974609375
40.283203125
41.19873046875
39.36767578125
41.19873046875
38.4521484375
33.87451171875
32.958984375
32.958984375
26.55029296875
24.71923828125
20.1416015625
11.90185546875
11.90185546875
9.1552734375
3.662109375
-6.40869140625
-13.73291015625
-6.40869140625
-15.56396484375
-36.62109375
-46.69189453125
-40.283203125
-50.35400390625
-54.01611328125
-58.59375
-51.26953125
-46.69189453125
-46.69189453125
-45.7763671875
-51.26953125
-57.67822265625
-55.84716796875
-59.50927734375
-65.00244140625
-65.91796875
-61.34033203125
-64.0869140625
-64.0869140625
-57.67822265625
-71.4111328125
-81.48193359375
-64.0869140625
-65.00244140625
-67.7490234375
-67.7490234375
-70.49560546875
-63.17138671875
-54.931640625
-65.91796875
-64.0869140625
-63.17138671875
-67.7490234375
-57.67822265625
-63.17138671875
-61.34033203125
-62.255859375
-57.67822265625
-64.0869140625
-67.7490234375
-87.890625
-113.525390625
-153.80859375
-185.85205078125
-199.5849609375
-196.83837890625
-156.55517578125
-120.849609375
-73.2421875
-15.56396484375
45.7763671875
118.10302734375
199.5849609375
287.4755859375
367.12646484375
475.15869140625
598.7548828125
701.2939453125
806.57958984375
841.36962890625
802.91748046875
692.138671875
520.01953125
399.169921875
357.0556640625
281.982421875
205.99365234375
144.6533203125
80.56640625
33.87451171875
-0.91552734375
-14.6484375
-10.986328125
-7.32421875
15.56396484375
27.4658203125
40.283203125
51.26953125
38.4521484375
21.97265625
12.8173828125
11.90185546875
15.56396484375
16.4794921875
9.1552734375
-0.91552734375
-0.91552734375
-2.74658203125
-4.57763671875
-12.8173828125
-25.634765625
-19.22607421875
-13.73291015625
-10.986328125
-17.39501953125
-20.1416015625
-24.71923828125
-24.71923828125
-19.22607421875
-21.97265625
-17.39501953125
-15.56396484375
-16.4794921875
-15.56396484375
-15.56396484375
-31.1279296875
-10.986328125
-0.91552734375
3.662109375
7.32421875
5.4931640625
1.8310546875
1.8310546875
4.57763671875
10.986328125
3.662109375
10.07080078125
16.4794921875
20.1416015625
10.07080078125
10.07080078125
10.986328125
11.90185546875
14.6484375
20.1416015625
28.38134765625
21.97265625
23.8037109375
21.05712890625
13.73291015625
17.39501953125
14.6484375
21.97265625
32.958984375
37.53662109375
33.87451171875
28.38134765625
40.283203125
43.9453125
40.283203125
41.19873046875
42.1142578125
42.1142578125
49.4384765625
53.1005859375
48.52294921875
43.02978515625
43.9453125
45.7763671875
54.01611328125
54.931640625
53.1005859375
45.7763671875
46.69189453125
46.69189453125
55.84716796875
70.49560546875
76.904296875
86.97509765625
89.7216796875
95.21484375
97.96142578125
104.3701171875
96.13037109375
107.11669921875
116.27197265625
124.51171875
121.76513671875
123.59619140625
117.1875
111.6943359375
121.76513671875
137.3291015625
131.8359375
138.24462890625
130.92041015625
131.8359375
137.3291015625
145.56884765625
153.80859375
166.6259765625
174.86572265625
183.10546875
184.02099609375
177.6123046875
172.119140625
175.78125
179.443359375
186.767578125
185.85205078125
196.83837890625
194.091796875
195.9228515625
202.33154296875
202.33154296875
204.16259765625
201.416015625
199.5849609375
191.34521484375
187.68310546875
182.18994140625
170.2880859375
159.3017578125
143.73779296875
128.173828125
132.75146484375
117.1875
112.60986328125
100.7080078125
86.0595703125
66.83349609375
60.4248046875
54.01611328125
47.607421875
45.7763671875
42.1142578125
38.4521484375
24.71923828125
23.8037109375
21.05712890625
12.8173828125
10.07080078125
0
-16.4794921875
-22.88818359375
-20.1416015625
-30.21240234375
-33.87451171875
-36.62109375
-38.4521484375
-36.62109375
-38.4521484375
-44.86083984375
-36.62109375
-32.958984375
-38.4521484375
-44.86083984375
-53.1005859375
-56.7626953125
-33.87451171875
-25.634765625
-18.310546875
-17.39501953125
-19.22607421875
-21.97265625
-24.71923828125
-32.958984375
-27.4658203125
-32.04345703125
-34.7900390625
-30.21240234375
-37.53662109375
-43.9453125
-46.69189453125
-53.1005859375
-45.7763671875
-47.607421875
-42.1142578125
-33.87451171875
-29.296875
-33.87451171875
-41.19873046875
-41.19873046875
-23.8037109375
-30.21240234375
-31.1279296875
-35.70556640625
-31.1279296875
-26.55029296875
-37.53662109375
-43.9453125
-33.87451171875
-27.4658203125
-38.4521484375
-43.9453125
-38.4521484375
-21.05712890625
-18.310546875
-22.88818359375
-26.55029296875
-35.70556640625
-30.21240234375
-29.296875
-24.71923828125
-26.55029296875
-31.1279296875
-23.8037109375
-24.71923828125
-27.4658203125
-31.1279296875
-37.53662109375
-47.607421875
-47.607421875
-20.1416015625
-20.1416015625
-32.04345703125
-37.53662109375
-32.958984375
-29.296875
-30.21240234375
-31.1279296875
-36.62109375
-49.4384765625
-42.1142578125
-42.1142578125
-45.7763671875
-38.4521484375
-43.9453125
-46.69189453125
-41.19873046875
-42.1142578125
-42.1142578125
-38.4521484375
-41.19873046875
-43.9453125
-45.7763671875
-47.607421875
-56.7626953125
-59.50927734375
-54.01611328125
-63.17138671875
-52.18505859375
-42.1142578125
-44.86083984375
-45.7763671875
-45.7763671875
-43.02978515625
-37.53662109375
-51.26953125
-49.4384765625
-54.01611328125
-53.1005859375
-50.35400390625
-51.26953125
-49.4384765625
-45.7763671875
-42.1142578125
-49.4384765625
-51.26953125
-47.607421875
-55.84716796875
-56.7626953125
-52.18505859375
-54.931640625
-54.01611328125
-56.7626953125
-55.84716796875
-70.49560546875
-65.00244140625
-61.34033203125
-60.4248046875
-62.255859375
-61.34033203125
-54.931640625
-47.607421875
-45.7763671875
-48.52294921875
-50.35400390625
-47.607421875
-53.1005859375
-55.84716796875
-55.84716796875
-54.931640625
-53.1005859375
-58.59375
-64.0869140625
-57.67822265625
-60.4248046875
-56.7626953125
-61.34033203125
-77.81982421875
-66.83349609375
-54.01611328125
-52.18505859375
-54.01611328125
-58.59375
-60.4248046875
-62.255859375
-55.84716796875
-50.35400390625
-44.86083984375
-45.7763671875
-43.02978515625
-39.36767578125
-43.9453125
-24.71923828125
-10.07080078125
-6.40869140625
-10.07080078125
-10.07080078125
-7.32421875
-8.23974609375
-13.73291015625
-6.40869140625
4.57763671875
18.310546875
24.71923828125
26.55029296875
32.958984375
32.958984375
21.97265625
28.38134765625
39.36767578125
31.1279296875
22.88818359375
21.05712890625
20.1416015625
17.39501953125
32.958984375
22.88818359375
20.1416015625
9.1552734375
-7.32421875
-16.4794921875
-17.39501953125
-28.38134765625
-41.19873046875
-37.53662109375
-38.4521484375
-53.1005859375
-59.50927734375
-67.7490234375
-74.15771484375
-71.4111328125
-64.0869140625
-60.4248046875
-53.1005859375
-56.7626953125
-65.91796875
-52.18505859375
-64.0869140625
-65.91796875
-63.17138671875
-59.50927734375
-64.0869140625
-58.59375
-52.18505859375
-56.7626953125
-63.17138671875
-68.66455078125
-72.32666015625
-66.83349609375
-62.255859375
-60.4248046875
-60.4248046875
-68.66455078125
-71.4111328125
-75.98876953125
-83.31298828125
-76.904296875
-70.49560546875
-66.83349609375
-65.91796875
-65.00244140625
-66.83349609375
-77.81982421875
-85.14404296875
-112.60986328125
-156.55517578125
-195.00732421875
-210.5712890625
-197.75390625
-151.9775390625
-95.21484375
-42.1142578125
9.1552734375
81.48193359375
161.1328125
236.2060546875
314.94140625
401.91650390625
509.94873046875
620.7275390625
727.84423828125
823.974609375
851.4404296875
791.93115234375
655.517578125
494.384765625
412.90283203125
352.47802734375
263.671875
182.18994140625
119.93408203125
66.83349609375
32.04345703125
-5.4931640625
-17.39501953125
-15.56396484375
2.74658203125
19.22607421875
23.8037109375
23.8037109375
32.04345703125
32.04345703125
22.88818359375
8.23974609375
21.05712890625
6.40869140625
-5.4931640625
-12.8173828125
-11.90185546875
-12.8173828125
-14.6484375
-1.8310546875
-1.8310546875
-7.32421875
-4.57763671875
-11.90185546875
-12.8173828125
-9.1552734375
-6.40869140625
1.8310546875
0
-2.74658203125
-4.57763671875
-10.07080078125
-4.57763671875
1.8310546875
-11.90185546875
-14.6484375
-10.986328125
-7.32421875
-10.07080078125
-15.56396484375
-7.32421875
0
4.57763671875
4.57763671875
2.74658203125
1.8310546875
-1.8310546875
-7.32421875
-4.57763671875
6.40869140625
6.40869140625
13.73291015625
16.4794921875
15.56396484375
10.986328125
15.56396484375
19.22607421875
18.310546875
20.1416015625
10.07080078125
15.56396484375
28.38134765625
17.39501953125
24.71923828125
31.1279296875
29.296875
24.71923828125
21.97265625
29.296875
36.62109375
35.70556640625
42.1142578125
39.36767578125
36.62109375
31.1279296875
42.1142578125
54.931640625
59.50927734375
56.7626953125
54.931640625
58.59375
71.4111328125
71.4111328125
71.4111328125
70.49560546875
76.904296875
86.0595703125
88.80615234375
82.3974609375
81.48193359375
86.0595703125
86.97509765625
75.98876953125
67.7490234375
95.21484375
103.45458984375
103.45458984375
97.96142578125
96.13037109375
103.45458984375
110.77880859375
128.173828125
127.25830078125
123.59619140625
128.173828125
140.07568359375
143.73779296875
140.9912109375
146.484375
157.470703125
164.794921875
167.54150390625
162.9638671875
153.80859375
162.9638671875
172.119140625
176.69677734375
180.35888671875
192.2607421875
188.5986328125
187.68310546875
195.00732421875
199.5849609375
197.75390625
194.091796875
190.4296875
191.34521484375
195.00732421875
191.34521484375
193.17626953125
176.69677734375
172.119140625
157.470703125
142.822265625
141.90673828125
130.0048828125
134.58251953125
119.93408203125
107.11669921875
106.201171875
95.21484375
88.80615234375
70.49560546875
65.00244140625
51.26953125
48.52294921875
41.19873046875
26.55029296875
21.05712890625
10.986328125
5.4931640625
6.40869140625
0.91552734375
-1.8310546875
-10.07080078125
-2.74658203125
-14.6484375
-22.88818359375
-18.310546875
-20.1416015625
-21.05712890625
-28.38134765625
-28.38134765625
-27.4658203125
-33.87451171875
-36.62109375
-34.7900390625
-31.1279296875
-36.62109375
-35.70556640625
-35.70556640625
-25.634765625
-38.4521484375
-33.87451171875
-31.1279296875
-39.36767578125
-38.4521484375
-30.21240234375
-26.55029296875
-27.4658203125
-25.634765625
-18.310546875
-28.38134765625
-27.4658203125
-32.04345703125
-38.4521484375
-29.296875
-24.71923828125
-29.296875
-34.7900390625
-34.7900390625
-30.21240234375
-29.296875
-29.296875
-21.97265625
-23.8037109375
-26.55029296875
-28.38134765625
-25.634765625
-21.05712890625
-27.4658203125
-22.88818359375
-30.21240234375
-32.04345703125
-26.55029296875
-29.296875
-25.634765625
-35.70556640625
-32.04345703125
-15.56396484375
-30.21240234375
-32.04345703125
-21.97265625
-21.97265625
-28.38134765625
-31.1279296875
-32.04345703125
-32.958984375
-33.87451171875
-30.21240234375
-28.38134765625
-32.04345703125
-26.55029296875
-21.97265625
-23.8037109375
-21.97265625
-22.88818359375
-23.8037109375
-28.38134765625
-37.53662109375
-42.1142578125
-39.36767578125
-37.53662109375
-26.55029296875
-30.21240234375
-32.958984375
-37.53662109375
-32.958984375
-18.310546875
-22.88818359375
-20.1416015625
-26.55029296875
-39.36767578125
-32.958984375
-39.36767578125
-34.7900390625
-28.38134765625
-32.958984375
-40.283203125
-45.7763671875
-41.19873046875
-39.36767578125
-39.36767578125
-46.69189453125
-37.53662109375
-41.19873046875
-40.283203125
-49.4384765625
-47.607421875
-48.52294921875
-40.283203125
-44.86083984375
-45.7763671875
-39.36767578125
-32.04345703125
-33.87451171875
-46.69189453125
-44.86083984375
-35.70556640625
-35.70556640625
-43.9453125
-43.9453125
-49.4384765625
-42.1142578125
-38.4521484375
-43.02978515625
-45.7763671875
-47.607421875
-55.84716796875
-56.7626953125
-50.35400390625
-54.01611328125
-55.84716796875
-49.4384765625
-41.19873046875
-48.52294921875
-43.02978515625
-45.7763671875
-50.35400390625
-48.52294921875
-43.9453125
-47.607421875
-51.26953125
-52.18505859375
-41.19873046875
-43.9453125
-48.52294921875
-43.9453125
-47.607421875
-57.67822265625
-56.7626953125
-48.52294921875
-47.607421875
-37.53662109375
-33.87451171875
-25.634765625
-25.634765625
-1.8310546875
2.74658203125
-0.91552734375
14.6484375
12.8173828125
5.4931640625
-2.74658203125
5.4931640625
13.73291015625
23.8037109375
23.8037109375
29.296875
30.21240234375
39.36767578125
39.36767578125
38.4521484375
41.19873046875
39.36767578125
32.958984375
19.22607421875
22.88818359375
24.71923828125
23.8037109375
28.38134765625
32.958984375
10.986328125
-5.4931640625
-8.23974609375
-17.39501953125
-11.90185546875
-17.39501953125
-21.05712890625
-27.4658203125
-26.55029296875
-35.70556640625
-44.86083984375
-40.283203125
-38.4521484375
-54.931640625
-57.67822265625
-52.18505859375
-35.70556640625
-43.9453125
-45.7763671875
-50.35400390625
-53.1005859375
-52.18505859375
-49.4384765625
-50.35400390625
-51.26953125
-48.52294921875
-63.17138671875
-62.255859375
-55.84716796875
-52.18505859375
-53.1005859375
-55.84716796875
-61.34033203125
-73.2421875
-68.66455078125
-59.50927734375
-56.7626953125
-55.84716796875
-44.86083984375
-42.1142578125
-38.4521484375
-45.7763671875
-43.9453125
-48.52294921875
-75.0732421875
-91.552734375
-119.0185546875
-157.470703125
-183.10546875
-188.5986328125
-171.20361328125
-144.6533203125
-88.80615234375
-25.634765625
28.38134765625
94.29931640625
176.69677734375
256.34765625
316.7724609375
422.9736328125
555.72509765625
674.74365234375
784.60693359375
874.32861328125
876.15966796875
771.78955078125
603.33251953125
453.18603515625
419.3115234375
378.11279296875
290.22216796875
202.33154296875
132.75146484375
98.876953125
56.7626953125
27.4658203125
11.90185546875
3.662109375
10.07080078125
22.88818359375
32.958984375
32.04345703125
45.7763671875
38.4521484375
32.958984375
29.296875
17.39501953125
7.32421875
5.4931640625
11.90185546875
7.32421875
5.4931640625
-8.23974609375
7.32421875
7.32421875
-11.90185546875
-14.6484375
-15.56396484375
-9.1552734375
2.74658203125
13.73291015625
23.8037109375
13.73291015625
5.4931640625
10.986328125
8.23974609375
6.40869140625
2.74658203125
10.07080078125
4.57763671875
6.40869140625
-0.91552734375
0
10.986328125
14.6484375
0.91552734375
-3.662109375
8.23974609375
10.07080078125
19.22607421875
19.22607421875
9.1552734375
11.90185546875
12.8173828125
17.39501953125
23.8037109375
22.88818359375
19.22607421875
19.22607421875
24.71923828125
10.07080078125
11.90185546875
32.958984375
26.55029296875
27.4658203125
35.70556640625
43.02978515625
42.1142578125
39.36767578125
41.19873046875
44.86083984375
43.9453125
47.607421875
44.86083984375
43.9453125
49.4384765625
53.1005859375
54.01611328125
54.01611328125
60.4248046875
62.255859375
65.00244140625
63.17138671875
63.17138671875
72.32666015625
65.91796875
66.83349609375
81.48193359375
81.48193359375
80.56640625
78.7353515625
86.97509765625
83.31298828125
83.31298828125
95.21484375
101.62353515625
102.5390625
98.876953125
101.62353515625
111.6943359375
106.201171875
111.6943359375
118.10302734375
115.3564453125
127.25830078125
137.3291015625
148.3154296875
158.38623046875
157.470703125
143.73779296875
149.23095703125
159.3017578125
162.04833984375
167.54150390625
176.69677734375
173.9501953125
172.119140625
177.6123046875
175.78125
176.69677734375
172.119140625
170.2880859375
175.78125
178.52783203125
191.34521484375
199.5849609375
194.091796875
196.83837890625
200.50048828125
201.416015625
202.33154296875
191.34521484375
180.35888671875
167.54150390625
166.6259765625
162.9638671875
157.470703125
142.822265625
134.58251953125
117.1875
112.60986328125
133.6669921875
127.25830078125
105.28564453125
96.13037109375
86.0595703125
79.65087890625
75.98876953125
54.01611328125
46.69189453125
38.4521484375
43.02978515625
31.1279296875
21.97265625
13.73291015625
4.57763671875
0
2.74658203125
0
4.57763671875
2.74658203125
-4.57763671875
-3.662109375
5.4931640625
-0.91552734375
-6.40869140625
-15.56396484375
-15.56396484375
-17.39501953125
-21.97265625
-20.1416015625
-18.310546875
-29.296875
-24.71923828125
-21.97265625
-19.22607421875
-22.88818359375
-29.296875
-27.4658203125
-16.4794921875
-22.88818359375
-18.310546875
-18.310546875
-20.1416015625
-21.05712890625
-30.21240234375
-30.21240234375
-16.4794921875
-16.4794921875
-26.55029296875
-26.55029296875
-20.1416015625
-19.22607421875
-21.97265625
-23.8037109375
-20.1416015625
-15.56396484375
-0.91552734375
5.4931640625
0
-4.57763671875
-10.986328125
-9.1552734375
-10.07080078125
-20.1416015625
-14.6484375
-17.39501953125
-15.56396484375
-15.56396484375
-11.90185546875
-5.4931640625
-17.39501953125
-24.71923828125
-11.90185546875
-11.90185546875
-13.73291015625
-17.39501953125
-10.986328125
-15.56396484375
-13.73291015625
-18.310546875
-7.32421875
-8.23974609375
-11.90185546875
-13.73291015625
-17.39501953125
-11.90185546875
-25.634765625
-28.38134765625
-21.05712890625
-28.38134765625
-31.1279296875
-34.7900390625
-19.22607421875
-14.6484375
-18.310546875
-21.05712890625
-26.55029296875
-24.71923828125
-20.1416015625
-17.39501953125
-22.88818359375
-28.38134765625
-27.4658203125
-28.38134765625
-23.8037109375
-41.19873046875
-39.36767578125
-32.04345703125
-32.958984375
-25.634765625
-33.87451171875
-29.296875
-31.1279296875
-31.1279296875
-29.296875
-21.05712890625
-14.6484375
-10.07080078125
-21.97265625
-24.71923828125
-32.958984375
-39.36767578125
-43.9453125
-39.36767578125
-35.70556640625
-37.53662109375
-38.4521484375
-35.70556640625
-45.7763671875
-35.70556640625
-21.05712890625
-23.8037109375
-24.71923828125
-21.97265625
-30.21240234375
-42.1142578125
-37.53662109375
-33.87451171875
-43.02978515625
-42.1142578125
-45.7763671875
-47.607421875
-51.26953125
-54.01611328125
-58.59375
-38.4521484375
-21.05712890625
-29.296875
-32.958984375
-40.283203125
-44.86083984375
-49.4384765625
-43.9453125
-39.36767578125
-33.87451171875
-26.55029296875
-29.296875
-25.634765625
-28.38134765625
-22.88818359375
-19.22607421875
-24.71923828125
-21.97265625
-9.1552734375
0.91552734375
2.74658203125
6.40869140625
2.74658203125
4.57763671875
13.73291015625
21.97265625
20.1416015625
17.39501953125
19.22607421875
24.71923828125
32.04345703125
36.62109375
48.52294921875
48.52294921875
43.9453125
43.9453125
43.9453125
51.26953125
30.21240234375
22.88818359375
30.21240234375
30.21240234375
40.283203125
42.1142578125
40.283203125
23.8037109375
10.07080078125
7.32421875
-0.91552734375
-12.8173828125
-31.1279296875
-43.02978515625
-43.02978515625
-37.53662109375
-38.4521484375
-38.4521484375
-35.70556640625
-33.87451171875
-34.7900390625
-37.53662109375
-49.4384765625
-58.59375
-54.931640625
-45.7763671875
-40.283203125
-39.36767578125
-43.02978515625
-40.283203125
-49.4384765625
-47.607421875
-37.53662109375
-51.26953125
-47.607421875
-54.01611328125
-53.1005859375
-54.931640625
-63.17138671875
-66.83349609375
-62.255859375
-64.0869140625
-53.1005859375
-47.607421875
-40.283203125
-33.87451171875
-39.36767578125
-36.62109375
-47.607421875
-46.69189453125
-52.18505859375
-65.00244140625
-96.13037109375
-128.173828125
-151.9775390625
-170.2880859375
-171.20361328125
-135.498046875
-98.876953125
-61.34033203125
0.91552734375
65.91796875
135.498046875
210.5712890625
283.8134765625
371.7041015625
496.2158203125
616.14990234375
705.87158203125
819.39697265625
870.66650390625
824.89013671875
692.138671875
517.27294921875
410.15625
381.77490234375
317.68798828125
227.96630859375
158.38623046875
103.45458984375
63.17138671875
31.1279296875
11.90185546875
-4.57763671875
-11.90185546875
0.91552734375
37.53662109375
45.7763671875
50.35400390625
51.26953125
43.9453125
28.38134765625
17.39501953125
17.39501953125
12.8173828125
10.986328125
12.8173828125
-5.4931640625
3.662109375
17.39501953125
5.4931640625
-2.74658203125
-2.74658203125
2.74658203125
5.4931640625
3.662109375
8.23974609375
3.662109375
10.986328125
13.73291015625
5.4931640625
-3.662109375
5.4931640625
4.57763671875
4.57763671875
10.07080078125
11.90185546875
19.22607421875
13.73291015625
9.1552734375
11.90185546875
7.32421875
13.73291015625
13.73291015625
11.90185546875
28.38134765625
27.4658203125
21.97265625
24.71923828125
21.05712890625
28.38134765625
13.73291015625
7.32421875
23.8037109375
23.8037109375
32.958984375
41.19873046875
36.62109375
28.38134765625
26.55029296875
33.87451171875
36.62109375
43.9453125
34.7900390625
32.04345703125
42.1142578125
50.35400390625
45.7763671875
55.84716796875
54.01611328125
51.26953125
46.69189453125
47.607421875
53.1005859375
62.255859375
60.4248046875
62.255859375
68.66455078125
68.66455078125
62.255859375
69.580078125
71.4111328125
75.98876953125
78.7353515625
81.48193359375
68.66455078125
77.81982421875
89.7216796875
93.3837890625
96.13037109375
98.876953125
99.79248046875
100.7080078125
103.45458984375
111.6943359375
119.93408203125
120.849609375
119.93408203125
130.0048828125
131.8359375
129.08935546875
134.58251953125
135.498046875
140.9912109375
151.9775390625
151.9775390625
163.87939453125
165.71044921875
164.794921875
163.87939453125
165.71044921875
169.37255859375
174.86572265625
171.20361328125
178.52783203125
185.85205078125
182.18994140625
201.416015625
204.16259765625
200.50048828125
205.99365234375
204.16259765625
200.50048828125
208.740234375
199.5849609375
194.091796875
193.17626953125
195.00732421875
202.33154296875
196.83837890625
187.68310546875
176.69677734375
165.71044921875
151.9775390625
140.9912109375
137.3291015625
126.3427734375
126.3427734375
110.77880859375
96.13037109375
91.552734375
82.3974609375
68.66455078125
55.84716796875
54.01611328125
52.18505859375
45.7763671875
34.7900390625
11.90185546875
-3.662109375
8.23974609375
5.4931640625
1.8310546875
1.8310546875
-1.8310546875
-1.8310546875
-4.57763671875
-9.1552734375
-14.6484375
-11.90185546875
-10.986328125
-17.39501953125
-29.296875
-31.1279296875
-20.1416015625
-22.88818359375
-31.1279296875
-30.21240234375
-30.21240234375
-32.04345703125
-22.88818359375
-25.634765625
-29.296875
-23.8037109375
-39.36767578125
-32.04345703125
-20.1416015625
-27.4658203125
-25.634765625
-24.71923828125
-24.71923828125
-29.296875
-30.21240234375
-24.71923828125
-18.310546875
-18.310546875
-10.986328125
-7.32421875
-11.90185546875
-15.56396484375
-15.56396484375
-15.56396484375
-18.310546875
-20.1416015625
-22.88818359375
-29.296875
-23.8037109375
-18.310546875
-21.05712890625
-18.310546875
-15.56396484375
-14.6484375
-14.6484375
-10.986328125
-1.8310546875
-10.07080078125
-11.90185546875
-17.39501953125
-16.4794921875
-19.22607421875
-17.39501953125
-16.4794921875
-21.97265625
-35.70556640625
-23.8037109375
-10.07080078125
-20.1416015625
-17.39501953125
-10.07080078125
-18.310546875
-23.8037109375
-25.634765625
-16.4794921875
-19.22607421875
-15.56396484375
-15.56396484375
-18.310546875
-22.88818359375
-27.4658203125
-25.634765625
-21.05712890625
-22.88818359375
-24.71923828125
-24.71923828125
-30.21240234375
-32.04345703125
-28.38134765625
-27.4658203125
-18.310546875
-18.310546875
-24.71923828125
-27.4658203125
-30.21240234375
-31.1279296875
-19.22607421875
-21.05712890625
-28.38134765625
-24.71923828125
-21.97265625
-32.958984375
-30.21240234375
-40.283203125
-23.8037109375
-18.310546875
-32.958984375
-38.4521484375
-36.62109375
-42.1142578125
-43.02978515625
-41.19873046875
-38.4521484375
-31.1279296875
-31.1279296875
-30.21240234375
-19.22607421875
-18.310546875
-26.55029296875
-32.958984375
-32.958984375
-32.04345703125
-41.19873046875
-43.02978515625
-44.86083984375
-41.19873046875
-42.1142578125
-47.607421875
-56.7626953125
-40.283203125
-41.19873046875
-37.53662109375
-45.7763671875
-57.67822265625
-42.1142578125
-43.9453125
-39.36767578125
-39.36767578125
-41.19873046875
-43.02978515625
-51.26953125
-49.4384765625
-45.7763671875
-46.69189453125
-51.26953125
-60.4248046875
-47.607421875
-37.53662109375
-40.283203125
-45.7763671875
-49.4384765625
-53.1005859375
-50.35400390625
-40.283203125
-28.38134765625
-26.55029296875
-21.05712890625
-11.90185546875
0.91552734375
14.6484375
10.986328125
15.56396484375
14.6484375
10.986328125
4.57763671875
2.74658203125
1.8310546875
11.90185546875
21.97265625
29.296875
35.70556640625
49.4384765625
50.35400390625
45.7763671875
54.931640625
54.01611328125
43.02978515625
36.62109375
24.71923828125
22.88818359375
29.296875
22.88818359375
16.4794921875
18.310546875
27.4658203125
10.986328125
-7.32421875
-2.74658203125
-5.4931640625
-13.73291015625
-16.4794921875
-28.38134765625
-28.38134765625
-36.62109375
-38.4521484375
-42.1142578125
-44.86083984375
-46.69189453125
-46.69189453125
-47.607421875
-47.607421875
-48.52294921875
-49.4384765625
-43.02978515625
-47.607421875
-54.931640625
-54.931640625
-55.84716796875
-56.7626953125
-47.607421875
-48.52294921875
-54.01611328125
-61.34033203125
-64.0869140625
-69.580078125
-75.0732421875
-81.48193359375
-71.4111328125
-68.66455078125
-73.2421875
-62.255859375
-59.50927734375
-60.4248046875
-61.34033203125
-61.34033203125
-65.00244140625
-62.255859375
-58.59375
-60.4248046875
-81.48193359375
-106.201171875
-131.8359375
-172.119140625
-181.2744140625
-168.45703125
-130.92041015625
-91.552734375
-47.607421875
11.90185546875
67.7490234375
145.56884765625
226.13525390625
312.19482421875
390.93017578125
496.2158203125
606.0791015625
711.36474609375
811.1572265625
845.947265625
798.33984375
672.91259765625
497.13134765625
398.25439453125
350.64697265625
255.43212890625
175.78125
135.498046875
86.0595703125
46.69189453125
17.39501953125
3.662109375
-5.4931640625
-4.57763671875
12.8173828125
29.296875
31.1279296875
32.958984375
43.02978515625
34.7900390625
27.4658203125
10.986328125
4.57763671875
2.74658203125
-1.8310546875
-12.8173828125
-12.8173828125
-15.56396484375
-13.73291015625
-8.23974609375
-1.8310546875
12.8173828125
10.07080078125
0.91552734375
3.662109375
0.91552734375
-0.91552734375
-1.8310546875
-7.32421875
-13.73291015625
-19.22607421875
-13.73291015625
-17.39501953125
-16.4794921875
-3.662109375
-8.23974609375
-2.74658203125
-9.1552734375
10.986328125
10.07080078125
4.57763671875
5.4931640625
-3.662109375
-2.74658203125
-9.1552734375
-10.986328125
-3.662109375
3.662109375
13.73291015625
12.8173828125
14.6484375
19.22607421875
22.88818359375
25.634765625
23.8037109375
22.88818359375
22.88818359375
39.36767578125
35.70556640625
30.21240234375
36.62109375
25.634765625
14.6484375
20.1416015625
38.4521484375
32.04345703125
30.21240234375
32.04345703125
36.62109375
36.62109375
34.7900390625
32.958984375
35.70556640625
47.607421875
53.1005859375
50.35400390625
60.4248046875
64.0869140625
66.83349609375
59.50927734375
61.34033203125
65.91796875
66.83349609375
66.83349609375
63.17138671875
65.91796875
74.15771484375
82.3974609375
86.0595703125
88.80615234375
94.29931640625
97.96142578125
109.86328125
111.6943359375
106.201171875
109.86328125
114.44091796875
102.5390625
104.3701171875
108.94775390625
115.3564453125
140.07568359375
137.3291015625
134.58251953125
140.9912109375
146.484375
154.72412109375
152.89306640625
154.72412109375
160.21728515625
161.1328125
161.1328125
159.3017578125
162.04833984375
176.69677734375
184.9365234375
187.68310546875
194.091796875
204.16259765625
205.99365234375
204.16259765625
200.50048828125
197.75390625
200.50048828125
201.416015625
197.75390625
186.767578125
178.52783203125
176.69677734375
177.6123046875
167.54150390625
162.9638671875
157.470703125
147.39990234375
137.3291015625
128.173828125
108.0322265625
103.45458984375
103.45458984375
92.46826171875
82.3974609375
72.32666015625
55.84716796875
46.69189453125
48.52294921875
35.70556640625
27.4658203125
25.634765625
13.73291015625
0
-10.986328125
-14.6484375
-32.04345703125
-27.4658203125
-17.39501953125
-21.97265625
-24.71923828125
-32.04345703125
-33.87451171875
-36.62109375
-37.53662109375
-30.21240234375
-28.38134765625
-41.19873046875
-42.1142578125
-30.21240234375
-28.38134765625
-21.05712890625
-21.97265625
-27.4658203125
-27.4658203125
-36.62109375
-35.70556640625
-33.87451171875
-38.4521484375
-38.4521484375
-30.21240234375
-28.38134765625
-32.958984375
-41.19873046875
-35.70556640625
-33.87451171875
-33.87451171875
-29.296875
-31.1279296875
-32.958984375
-33.87451171875
-38.4521484375
-33.87451171875
-35.70556640625
-37.53662109375
-29.296875
-19.22607421875
-21.97265625
-22.88818359375
-27.4658203125
-25.634765625
-20.1416015625
-31.1279296875
-32.04345703125
-33.87451171875
-34.7900390625
-24.71923828125
-33.87451171875
-36.62109375
-32.958984375
-35.70556640625
-37.53662109375
-25.634765625
-10.986328125
-20.1416015625
-20.1416015625
-20.1416015625
-16.4794921875
-23.8037109375
-26.55029296875
-21.97265625
-21.05712890625
-25.634765625
-29.296875
-33.87451171875
-38.4521484375
-39.36767578125
-30.21240234375
-32.958984375
-35.70556640625
-40.283203125
-32.04345703125
-41.19873046875
-53.1005859375
-51.26953125
-44.86083984375
-37.53662109375
-30.21240234375
-27.4658203125
-24.71923828125
-29.296875
-31.1279296875
-32.958984375
-29.296875
-39.36767578125
-45.7763671875
-41.19873046875
-42.1142578125
-49.4384765625
-54.01611328125
-52.18505859375
-43.02978515625
-39.36767578125
-42.1142578125
-55.84716796875
-50.35400390625
-44.86083984375
-42.1142578125
-45.7763671875
-43.9453125
-43.9453125
-43.02978515625
-47.607421875
-52.18505859375
-44.86083984375
-45.7763671875
-53.1005859375
-48.52294921875
-39.36767578125
-40.283203125
-41.19873046875
-39.36767578125
-46.69189453125
-48.52294921875
-51.26953125
-51.26953125
-49.4384765625
-48.52294921875
-54.931640625
-45.7763671875
-56.7626953125
-62.255859375
-45.7763671875
-46.69189453125
-49.4384765625
-52.18505859375
-53.1005859375
-59.50927734375
-62.255859375
-56.7626953125
-55.84716796875
-56.7626953125
-50.35400390625
-54.01611328125
-59.50927734375
-54.931640625
-60.4248046875
-65.00244140625
-66.83349609375
-66.83349609375
-65.00244140625
-65.00244140625
-64.0869140625
-62.255859375
-51.26953125
-52.18505859375
-56.7626953125
-54.931640625
-54.01611328125
-46.69189453125
-43.02978515625
-37.53662109375
-32.04345703125
-29.296875
-20.1416015625
-15.56396484375
-17.39501953125
-12.8173828125
-11.90185546875
-7.32421875
-1.8310546875
4.57763671875
5.4931640625
8.23974609375
11.90185546875
15.56396484375
21.05712890625
25.634765625
21.97265625
14.6484375
39.36767578125
32.04345703125
24.71923828125
26.55029296875
29.296875
31.1279296875
24.71923828125
24.71923828125
23.8037109375
16.4794921875
10.986328125
6.40869140625
4.57763671875
-5.4931640625
-16.4794921875
-35.70556640625
-48.52294921875
-46.69189453125
-57.67822265625
-52.18505859375
-50.35400390625
-54.01611328125
-49.4384765625
-56.7626953125
-62.255859375
-65.91796875
-65.00244140625
-67.7490234375
-65.91796875
-66.83349609375
-60.4248046875
-65.91796875
-69.580078125
-61.34033203125
-65.91796875
-63.17138671875
-62.255859375
-50.35400390625
-58.59375
-65.91796875
-67.7490234375
-73.2421875
-69.580078125
-66.83349609375
-62.255859375
-67.7490234375
-74.15771484375
-77.81982421875
-79.65087890625
-77.81982421875
-77.81982421875
-77.81982421875
-76.904296875
-69.580078125
-94.29931640625
-99.79248046875
-103.45458984375
-140.9912109375
-183.10546875
-201.416015625
-190.4296875
-146.484375
-111.6943359375
-44.86083984375
33.87451171875
86.97509765625
155.6396484375
224.30419921875
303.955078125
388.18359375
508.11767578125
622.55859375
728.759765625
834.04541015625
865.17333984375
792.8466796875
655.517578125
487.060546875
406.494140625
345.15380859375
261.8408203125
181.2744140625
125.42724609375
83.31298828125
38.4521484375
10.986328125
-10.986328125
-13.73291015625
0
15.56396484375
18.310546875
15.56396484375
33.87451171875
29.296875
5.4931640625
-11.90185546875
-9.1552734375
-10.986328125
-11.90185546875
-7.32421875
3.662109375
6.40869140625
10.07080078125
11.90185546875
10.07080078125
6.40869140625
5.4931640625
5.4931640625
1.8310546875
-0.91552734375
0.91552734375
-4.57763671875
-10.07080078125
-5.4931640625
-10.986328125
-11.90185546875
-9.1552734375
-15.56396484375
-17.39501953125
-15.56396484375
-14.6484375
-17.39501953125
-15.56396484375
-5.4931640625
2.74658203125
-1.8310546875
-5.4931640625
-1.8310546875
0.91552734375
-1.8310546875
2.74658203125
7.32421875
15.56396484375
17.39501953125
11.90185546875
5.4931640625
-8.23974609375
14.6484375
21.97265625
10.986328125
21.05712890625
14.6484375
17.39501953125
31.1279296875
33.87451171875
31.1279296875
25.634765625
23.8037109375
21.97265625
26.55029296875
32.04345703125
36.62109375
32.04345703125
32.958984375
35.70556640625
40.283203125
42.1142578125
42.1142578125
44.86083984375
47.607421875
52.18505859375
52.18505859375
63.17138671875
50.35400390625
57.67822265625
61.34033203125
64.0869140625
66.83349609375
70.49560546875
67.7490234375
69.580078125
76.904296875
79.65087890625
71.4111328125
75.98876953125
84.228515625
90.63720703125
91.552734375
92.46826171875
102.5390625
106.201171875
115.3564453125
117.1875
107.11669921875
114.44091796875
137.3291015625
134.58251953125
123.59619140625
128.173828125
142.822265625
145.56884765625
153.80859375
155.6396484375
153.80859375
157.470703125
162.04833984375
162.9638671875
162.04833984375
157.470703125
162.9638671875
176.69677734375
183.10546875
184.02099609375
188.5986328125
197.75390625
201.416015625
200.50048828125
205.99365234375
206.9091796875
210.5712890625
197.75390625
188.5986328125
189.51416015625
186.767578125
173.9501953125
172.119140625
170.2880859375
151.9775390625
137.3291015625
137.3291015625
148.3154296875
123.59619140625
108.0322265625
97.0458984375
82.3974609375
79.65087890625
80.56640625
71.4111328125
47.607421875
41.19873046875
36.62109375
21.05712890625
16.4794921875
10.986328125
-1.8310546875
-1.8310546875
-1.8310546875
-7.32421875
-12.8173828125
-16.4794921875
-12.8173828125
-16.4794921875
-23.8037109375
-25.634765625
-30.21240234375
-34.7900390625
-32.958984375
-38.4521484375
-27.4658203125
-25.634765625
-31.1279296875
-34.7900390625
-32.04345703125
-32.958984375
-33.87451171875
-35.70556640625
-35.70556640625
-38.4521484375
-50.35400390625
-45.7763671875
-28.38134765625
-32.04345703125
-44.86083984375
-47.607421875
-25.634765625
-24.71923828125
-22.88818359375
-20.1416015625
-22.88818359375
-21.05712890625
-18.310546875
-32.04345703125
-34.7900390625
-27.4658203125
-26.55029296875
-35.70556640625
-35.70556640625
-32.958984375
-29.296875
-29.296875
-27.4658203125
-22.88818359375
-13.73291015625
-21.97265625
-29.296875
-29.296875
-29.296875
-31.1279296875
-32.958984375
-30.21240234375
-31.1279296875
-25.634765625
-20.1416015625
-19.22607421875
-20.1416015625
-23.8037109375
-21.97265625
-16.4794921875
-18.310546875
-19.22607421875
-25.634765625
-28.38134765625
-32.958984375
-28.38134765625
-25.634765625
-32.958984375
-40.283203125
-35.70556640625
-28.38134765625
-17.39501953125
-32.04345703125
-33.87451171875
-12.8173828125
-18.310546875
-20.1416015625
-19.22607421875
-13.73291015625
-21.05712890625
-27.4658203125
-26.55029296875
-35.70556640625
-34.7900390625
-27.4658203125
-21.97265625
-26.55029296875
-25.634765625
-29.296875
-30.21240234375
-28.38134765625
-34.7900390625
-32.04345703125
-34.7900390625
-36.62109375
-32.04345703125
-38.4521484375
-49.4384765625
-49.4384765625
-52.18505859375
-50.35400390625
-38.4521484375
-33.87451171875
-34.7900390625
-35.70556640625
-35.70556640625
-34.7900390625
-41.19873046875
-43.02978515625
-46.69189453125
-45.7763671875
-47.607421875
-47.607421875
-47.607421875
-44.86083984375
-41.19873046875
-40.283203125
-35.70556640625
-34.7900390625
-44.86083984375
-48.52294921875
-46.69189453125
-52.18505859375
-43.9453125
-43.9453125
-45.7763671875
-48.52294921875
-54.01611328125
-54.931640625
-53.1005859375
-48.52294921875
-42.1142578125
-47.607421875
-58.59375
-42.1142578125
-41.19873046875
-53.1005859375
-49.4384765625
-50.35400390625
-50.35400390625
-54.931640625
-61.34033203125
-57.67822265625
-51.26953125
-38.4521484375
-35.70556640625
-37.53662109375
-47.607421875
-43.02978515625
-39.36767578125
-40.283203125
-42.1142578125
-43.02978515625
-22.88818359375
-15.56396484375
-15.56396484375
-15.56396484375
-12.8173828125
-13.73291015625
-4.57763671875
-13.73291015625
-12.8173828125
0.91552734375
15.56396484375
23.8037109375
26.55029296875
30.21240234375
37.53662109375
32.958984375
31.1279296875
23.8037109375
31.1279296875
27.4658203125
12.8173828125
21.05712890625
21.97265625
22.88818359375
22.88818359375
25.634765625
22.88818359375
12.8173828125
1.8310546875
0
-8.23974609375
-21.97265625
-29.296875
-40.283203125
-49.4384765625
-55.84716796875
-60.4248046875
-47.607421875
-46.69189453125
-55.84716796875
-49.4384765625
-46.69189453125
-55.84716796875
-59.50927734375
-68.66455078125
-73.2421875
-69.580078125
-60.4248046875
-63.17138671875
-69.580078125
-60.4248046875
-48.52294921875
-60.4248046875
-69.580078125
-60.4248046875
-62.255859375
-64.0869140625
-54.931640625
-59.50927734375
-68.66455078125
-60.4248046875
-59.50927734375
-59.50927734375
-66.83349609375
-72.32666015625
-71.4111328125
-59.50927734375
-56.7626953125
-62.255859375
-75.0732421875
-76.904296875
-83.31298828125
-97.96142578125
-137.3291015625
-173.9501953125
-190.4296875
-171.20361328125
-137.3291015625
-102.5390625
-47.607421875
11.90185546875
70.49560546875
149.23095703125
220.64208984375
280.1513671875
371.7041015625
507.2021484375
607.91015625
716.85791015625
833.1298828125
881.65283203125
816.650390625
674.74365234375
506.28662109375
422.9736328125
390.93017578125
314.02587890625
212.40234375
137.3291015625
81.48193359375
48.52294921875
26.55029296875
11.90185546875
4.57763671875
-2.74658203125
17.39501953125
29.296875
31.1279296875
31.1279296875
37.53662109375
31.1279296875
15.56396484375
6.40869140625
1.8310546875
-4.57763671875
-0.91552734375
0.91552734375
-1.8310546875
1.8310546875
9.1552734375
11.90185546875
7.32421875
3.662109375
4.57763671875
-2.74658203125
-1.8310546875
-7.32421875
-4.57763671875
3.662109375
8.23974609375
11.90185546875
3.662109375
-1.8310546875
-9.1552734375
-10.986328125
-6.40869140625
-7.32421875
-1.8310546875
8.23974609375
0
-6.40869140625
-5.4931640625
-4.57763671875
-2.74658203125
-3.662109375
0.91552734375
10.986328125
6.40869140625
-5.4931640625
-3.662109375
17.39501953125
19.22607421875
13.73291015625
19.22607421875
22.88818359375
20.1416015625
8.23974609375
8.23974609375
18.310546875
27.4658203125
23.8037109375
16.4794921875
23.8037109375
33.87451171875
47.607421875
46.69189453125
43.9453125
45.7763671875
50.35400390625
45.7763671875
47.607421875
44.86083984375
43.9453125
45.7763671875
42.1142578125
37.53662109375
54.01611328125
59.50927734375
60.4248046875
58.59375
65.00244140625
65.00244140625
79.65087890625
76.904296875
74.15771484375
70.49560546875
73.2421875
86.97509765625
98.876953125
96.13037109375
91.552734375
95.21484375
95.21484375
96.13037109375
94.29931640625
97.0458984375
99.79248046875
99.79248046875
107.11669921875
116.27197265625
126.3427734375
121.76513671875
123.59619140625
127.25830078125
126.3427734375
125.42724609375
127.25830078125
140.07568359375
139.16015625
147.39990234375
144.6533203125
151.9775390625
161.1328125
167.54150390625
172.119140625
176.69677734375
175.78125
185.85205078125
181.2744140625
176.69677734375
188.5986328125
191.34521484375
183.10546875
184.9365234375
184.02099609375
183.10546875
179.443359375
188.5986328125
184.9365234375
180.35888671875
164.794921875
161.1328125
150.146484375
138.24462890625
126.3427734375
117.1875
116.27197265625
106.201171875
99.79248046875
92.46826171875
88.80615234375
75.98876953125
64.0869140625
65.91796875
56.7626953125
47.607421875
41.19873046875
41.19873046875
34.7900390625
30.21240234375
22.88818359375
14.6484375
6.40869140625
6.40869140625
6.40869140625
-3.662109375
-6.40869140625
-12.8173828125
-15.56396484375
-15.56396484375
-23.8037109375
-29.296875
-31.1279296875
-29.296875
-27.4658203125
-24.71923828125
-32.04345703125
-31.1279296875
-30.21240234375
-23.8037109375
-23.8037109375
-29.296875
-21.97265625
-21.97265625
-27.4658203125
-32.04345703125
-35.70556640625
-43.02978515625
-34.7900390625
-28.38134765625
-20.1416015625
-38.4521484375
-43.02978515625
-20.1416015625
-15.56396484375
-22.88818359375
-34.7900390625
-34.7900390625
-31.1279296875
-25.634765625
-36.62109375
-33.87451171875
-25.634765625
-21.05712890625
-27.4658203125
-25.634765625
-18.310546875
-17.39501953125
-18.310546875
-20.1416015625
-25.634765625
-19.22607421875
-31.1279296875
-24.71923828125
-21.05712890625
-22.88818359375
-20.1416015625
-15.56396484375
-17.39501953125
-13.73291015625
-21.05712890625
-20.1416015625
-22.88818359375
-22.88818359375
-22.88818359375
-15.56396484375
-28.38134765625
-29.296875
-25.634765625
-25.634765625
-32.04345703125
-35.70556640625
-29.296875
-22.88818359375
-29.296875
-31.1279296875
-24.71923828125
-24.71923828125
-21.05712890625
-22.88818359375
-22.88818359375
-25.634765625
-28.38134765625
-30.21240234375
-39.36767578125
-37.53662109375
-40.283203125
-36.62109375
-32.958984375
-37.53662109375
-40.283203125
-43.9453125
-44.86083984375
-44.86083984375
-36.62109375
-39.36767578125
-43.9453125
-46.69189453125
-28.38134765625
-29.296875
-47.607421875
-35.70556640625
-25.634765625
-24.71923828125
-33.87451171875
-30.21240234375
-36.62109375
-54.931640625
-56.7626953125
-48.52294921875
-39.36767578125
-41.19873046875
-43.9453125
-47.607421875
-40.283203125
-37.53662109375
-41.19873046875
-45.7763671875
-32.958984375
-28.38134765625
-37.53662109375
-41.19873046875
-42.1142578125
-54.01611328125
-55.84716796875
-58.59375
-56.7626953125
-53.1005859375
-48.52294921875
-44.86083984375
-46.69189453125
-50.35400390625
-49.4384765625
-42.1142578125
-43.9453125
-42.1142578125
-41.19873046875
-37.53662109375
-40.283203125
-43.02978515625
-48.52294921875
-45.7763671875
-50.35400390625
-47.607421875
-45.7763671875
-49.4384765625
-53.1005859375
-47.607421875
-26.55029296875
-16.4794921875
-10.07080078125
-9.1552734375
-10.07080078125
-7.32421875
-17.39501953125
-8.23974609375
-3.662109375
-5.4931640625
-14.6484375
-6.40869140625
13.73291015625
28.38134765625
24.71923828125
31.1279296875
29.296875
40.283203125
48.52294921875
35.70556640625
22.88818359375
31.1279296875
21.05712890625
24.71923828125
28.38134765625
30.21240234375
34.7900390625
35.70556640625
28.38134765625
12.8173828125
2.74658203125
3.662109375
-1.8310546875
-14.6484375
-23.8037109375
-31.1279296875
-39.36767578125
-44.86083984375
-52.18505859375
-64.0869140625
-56.7626953125
-50.35400390625
-49.4384765625
-49.4384765625
-45.7763671875
-53.1005859375
-54.931640625
-54.931640625
-51.26953125
-57.67822265625
-58.59375
-65.91796875
-64.0869140625
-66.83349609375
-65.00244140625
-63.17138671875
-75.98876953125
-75.0732421875
-66.83349609375
-71.4111328125
-71.4111328125
-68.66455078125
-65.00244140625
-66.83349609375
-74.15771484375
-66.83349609375
-73.2421875
-89.7216796875
-86.97509765625
-80.56640625
-78.7353515625
-70.49560546875
-71.4111328125
-76.904296875
-97.0458984375
-133.6669921875
-173.03466796875
-188.5986328125
-177.6123046875
-142.822265625
-102.5390625
-60.4248046875
-4.57763671875
56.7626953125
120.849609375
201.416015625
279.23583984375
359.80224609375
476.07421875
593.26171875
693.9697265625
804.74853515625
856.93359375
826.72119140625
705.87158203125
533.75244140625
427.55126953125
383.60595703125
312.19482421875
222.47314453125
151.06201171875
87.890625
46.69189453125
18.310546875
-1.8310546875
-1.8310546875
-3.662109375
14.6484375
31.1279296875
30.21240234375
32.958984375
30.21240234375
22.88818359375
24.71923828125
17.39501953125
1.8310546875
-5.4931640625
-10.986328125
-10.986328125
-3.662109375
0.91552734375
-9.1552734375
-8.23974609375
-6.40869140625
-10.07080078125
1.8310546875
4.57763671875
-1.8310546875
-10.07080078125
-14.6484375
-7.32421875
-15.56396484375
-19.22607421875
-22.88818359375
-21.97265625
-21.97265625
-21.05712890625
-14.6484375
-8.23974609375
-4.57763671875
4.57763671875
3.662109375
0.91552734375
10.07080078125
6.40869140625
0
-3.662109375
0
0
1.8310546875
2.74658203125
6.40869140625
9.1552734375
10.07080078125
7.32421875
13.73291015625
13.73291015625
14.6484375
10.07080078125
15.56396484375
14.6484375
13.73291015625
23.8037109375
28.38134765625
26.55029296875
27.4658203125
20.1416015625
37.53662109375
35.70556640625
24.71923828125
32.04345703125
37.53662109375
38.4521484375
40.283203125
47.607421875
51.26953125
55.84716796875
55.84716796875
48.52294921875
56.7626953125
50.35400390625
49.4384765625
57.67822265625
55.84716796875
55.84716796875
61.34033203125
65.00244140625
62.255859375
69.580078125
73.2421875
79.65087890625
86.97509765625
91.552734375
97.0458984375
103.45458984375
102.5390625
94.29931640625
87.890625
99.79248046875
106.201171875
108.0322265625
112.60986328125
113.525390625
106.201171875
106.201171875
119.0185546875
130.0048828125
144.6533203125
147.39990234375
155.6396484375
155.6396484375
159.3017578125
162.04833984375
164.794921875
166.6259765625
167.54150390625
169.37255859375
171.20361328125
171.20361328125
166.6259765625
167.54150390625
163.87939453125
166.6259765625
180.35888671875
190.4296875
181.2744140625
182.18994140625
173.9501953125
167.54150390625
166.6259765625
169.37255859375
162.9638671875
161.1328125
164.794921875
156.55517578125
151.06201171875
146.484375
122.6806640625
109.86328125
109.86328125
104.3701171875
94.29931640625
83.31298828125
72.32666015625
67.7490234375
63.17138671875
48.52294921875
38.4521484375
23.8037109375
10.07080078125
0
-3.662109375
-3.662109375
0
-2.74658203125
-8.23974609375
-14.6484375
-28.38134765625
-31.1279296875
-27.4658203125
-30.21240234375
-36.62109375
-41.19873046875
-40.283203125
-36.62109375
-43.9453125
-46.69189453125
-40.283203125
-37.53662109375
-36.62109375
-31.1279296875
-28.38134765625
-25.634765625
-36.62109375
-34.7900390625
-33.87451171875
-35.70556640625
-39.36767578125
-37.53662109375
-41.19873046875
-40.283203125
-37.53662109375
-32.958984375
-24.71923828125
-38.4521484375
-44.86083984375
-46.69189453125
-35.70556640625
-29.296875
-30.21240234375
-27.4658203125
-21.97265625
-31.1279296875
-31.1279296875
-33.87451171875
-37.53662109375
-36.62109375
-30.21240234375
-33.87451171875
-37.53662109375
-38.4521484375
-36.62109375
-32.958984375
-29.296875
-35.70556640625
-37.53662109375
-46.69189453125
-34.7900390625
-24.71923828125
-28.38134765625
-26.55029296875
-23.8037109375
-28.38134765625
-32.958984375
-33.87451171875
-32.04345703125
-26.55029296875
-23.8037109375
-21.05712890625
-25.634765625
-30.21240234375
-30.21240234375
-38.4521484375
-37.53662109375
-22.88818359375
-25.634765625
-36.62109375
-37.53662109375
-41.19873046875
-40.283203125
-49.4384765625
-52.18505859375
-38.4521484375
-37.53662109375
-31.1279296875
-23.8037109375
-29.296875
-38.4521484375
-43.9453125
-43.02978515625
-40.283203125
-35.70556640625
-35.70556640625
-34.7900390625
-36.62109375
-42.1142578125
-45.7763671875
-44.86083984375
-51.26953125
-41.19873046875
-37.53662109375
-39.36767578125
-42.1142578125
-51.26953125
-45.7763671875
-52.18505859375
-61.34033203125
-52.18505859375
-47.607421875
-39.36767578125
-44.86083984375
-58.59375
-57.67822265625
-50.35400390625
-54.931640625
-59.50927734375
-57.67822265625
-56.7626953125
-54.01611328125
-54.01611328125
-54.01611328125
-58.59375
-56.7626953125
-54.931640625
-51.26953125
-44.86083984375
-40.283203125
-44.86083984375
-43.9453125
-41.19873046875
-37.53662109375
-49.4384765625
-52.18505859375
-51.26953125
-54.01611328125
-48.52294921875
-52.18505859375
-56.7626953125
-60.4248046875
-65.91796875
-59.50927734375
-39.36767578125
-56.7626953125
-60.4248046875
-59.50927734375
-54.931640625
-60.4248046875
-60.4248046875
-56.7626953125
-58.59375
-58.59375
-59.50927734375
-55.84716796875
-53.1005859375
-51.26953125
-46.69189453125
-52.18505859375
-55.84716796875
-45.7763671875
-32.04345703125
-28.38134765625
-21.97265625
-21.05712890625
-15.56396484375
-10.986328125
-10.986328125
-9.1552734375
-15.56396484375
-22.88818359375
-21.97265625
-30.21240234375
-10.986328125
15.56396484375
21.97265625
27.4658203125
31.1279296875
32.04345703125
27.4658203125
27.4658203125
29.296875
25.634765625
22.88818359375
18.310546875
20.1416015625
21.05712890625
23.8037109375
21.97265625
18.310546875
1.8310546875
-11.90185546875
-10.986328125
-12.8173828125
-23.8037109375
-32.04345703125
-44.86083984375
-48.52294921875
-46.69189453125
-54.931640625
-61.34033203125
-62.255859375
-64.0869140625
-61.34033203125
-58.59375
-56.7626953125
-57.67822265625
-59.50927734375
-69.580078125
-76.904296875
-63.17138671875
-52.18505859375
-56.7626953125
-63.17138671875
-59.50927734375
-55.84716796875
-64.0869140625
-65.00244140625
-76.904296875
-75.0732421875
-73.2421875
-69.580078125
-67.7490234375
-63.17138671875
-63.17138671875
-67.7490234375
-65.00244140625
-63.17138671875
-68.66455078125
-67.7490234375
-67.7490234375
-67.7490234375
-66.83349609375
-63.17138671875
-76.904296875
-101.62353515625
-120.849609375
-156.55517578125
-184.02099609375
-192.2607421875
-175.78125
-130.92041015625
-90.63720703125
-32.04345703125
25.634765625
79.65087890625
149.23095703125
236.2060546875
310.36376953125
399.169921875
504.45556640625
617.0654296875
736.99951171875
824.89013671875
834.9609375
770.8740234375
628.96728515625
456.84814453125
389.09912109375
334.16748046875
240.78369140625
171.20361328125
115.3564453125
62.255859375
30.21240234375
0.91552734375
-16.4794921875
-15.56396484375
1.8310546875
16.4794921875
22.88818359375
21.97265625
18.310546875
14.6484375
18.310546875
12.8173828125
8.23974609375
6.40869140625
2.74658203125
6.40869140625
7.32421875
3.662109375
-7.32421875
-10.986328125
-8.23974609375
1.8310546875
4.57763671875
-4.57763671875
-11.90185546875
-12.8173828125
-11.90185546875
-11.90185546875
-25.634765625
-21.05712890625
-4.57763671875
-4.57763671875
-8.23974609375
-9.1552734375
-3.662109375
-7.32421875
-11.90185546875
-1.8310546875
-10.07080078125
-10.07080078125
-3.662109375
-14.6484375
-13.73291015625
-2.74658203125
-0.91552734375
0.91552734375
2.74658203125
9.1552734375
14.6484375
14.6484375
11.90185546875
16.4794921875
18.310546875
13.73291015625
9.1552734375
10.986328125
18.310546875
15.56396484375
11.90185546875
11.90185546875
11.90185546875
21.05712890625
33.87451171875
36.62109375
37.53662109375
33.87451171875
40.283203125
34.7900390625
23.8037109375
36.62109375
36.62109375
42.1142578125
47.607421875
44.86083984375
49.4384765625
45.7763671875
45.7763671875
54.931640625
65.91796875
72.32666015625
68.66455078125
58.59375
58.59375
59.50927734375
68.66455078125
80.56640625
84.228515625
84.228515625
90.63720703125
87.890625
89.7216796875
95.21484375
94.29931640625
97.96142578125
103.45458984375
97.96142578125
101.62353515625
107.11669921875
110.77880859375
117.1875
124.51171875
123.59619140625
128.173828125
126.3427734375
128.173828125
138.24462890625
138.24462890625
145.56884765625
151.06201171875
156.55517578125
159.3017578125
154.72412109375
152.89306640625
166.6259765625
169.37255859375
175.78125
170.2880859375
178.52783203125
180.35888671875
181.2744140625
185.85205078125
186.767578125
183.10546875
192.2607421875
197.75390625
191.34521484375
189.51416015625
184.02099609375
183.10546875
182.18994140625
173.9501953125
165.71044921875
165.71044921875
155.6396484375
143.73779296875
127.25830078125
119.93408203125
115.3564453125
103.45458984375
87.890625
86.97509765625
77.81982421875
75.98876953125
60.4248046875
52.18505859375
44.86083984375
29.296875
22.88818359375
17.39501953125
15.56396484375
10.986328125
2.74658203125
-3.662109375
-0.91552734375
-16.4794921875
-31.1279296875
-41.19873046875
-38.4521484375
-34.7900390625
-25.634765625
-19.22607421875
-20.1416015625
-26.55029296875
-24.71923828125
-29.296875
-27.4658203125
-29.296875
-37.53662109375
-38.4521484375
-36.62109375
-31.1279296875
-34.7900390625
-38.4521484375
-43.02978515625
-38.4521484375
-34.7900390625
-37.53662109375
-42.1142578125
-37.53662109375
-38.4521484375
-39.36767578125
-35.70556640625
-42.1142578125
-38.4521484375
-32.958984375
-38.4521484375
-29.296875
-30.21240234375
-34.7900390625
-36.62109375
-35.70556640625
-34.7900390625
-34.7900390625
-31.1279296875
-35.70556640625
-35.70556640625
-24.71923828125
-26.55029296875
-28.38134765625
-26.55029296875
-21.97265625
-24.71923828125
-25.634765625
-28.38134765625
-36.62109375
-39.36767578125
-39.36767578125
-32.958984375
-20.1416015625
-19.22607421875
-25.634765625
-25.634765625
-21.97265625
-21.97265625
-24.71923828125
-26.55029296875
-27.4658203125
-21.97265625
-23.8037109375
-23.8037109375
-30.21240234375
-35.70556640625
-27.4658203125
-21.97265625
-21.05712890625
-25.634765625
-22.88818359375
-28.38134765625
-36.62109375
-43.02978515625
-45.7763671875
-46.69189453125
-44.86083984375
-39.36767578125
-23.8037109375
-27.4658203125
-31.1279296875
-44.86083984375
-47.607421875
-39.36767578125
-29.296875
-28.38134765625
-28.38134765625
-29.296875
-31.1279296875
-33.87451171875
-38.4521484375
-43.9453125
-43.02978515625
-48.52294921875
-48.52294921875
-47.607421875
-50.35400390625
-53.1005859375
-48.52294921875
-52.18505859375
-52.18505859375
-58.59375
-57.67822265625
-52.18505859375
-50.35400390625
-45.7763671875
-43.02978515625
-40.283203125
-52.18505859375
-46.69189453125
-50.35400390625
-45.7763671875
-53.1005859375
-55.84716796875
-55.84716796875
-52.18505859375
-51.26953125
-52.18505859375
-40.283203125
-50.35400390625
-54.01611328125
-60.4248046875
-57.67822265625
-51.26953125
-47.607421875
-41.19873046875
-40.283203125
-40.283203125
-48.52294921875
-48.52294921875
-39.36767578125
-48.52294921875
-51.26953125
-53.1005859375
-59.50927734375
-54.01611328125
-56.7626953125
-59.50927734375
-57.67822265625
-63.17138671875
-61.34033203125
-65.91796875
-58.59375
-52.18505859375
-54.01611328125
-51.26953125
-52.18505859375
-56.7626953125
-62.255859375
-58.59375
-59.50927734375
-55.84716796875
-49.4384765625
-45.7763671875
-41.19873046875
-34.7900390625
-26.55029296875
-20.1416015625
-5.4931640625
-4.57763671875
-11.90185546875
-10.986328125
-13.73291015625
-14.6484375
-9.1552734375
-1.8310546875
-5.4931640625
2.74658203125
7.32421875
13.73291015625
21.97265625
21.97265625
31.1279296875
41.19873046875
42.1142578125
35.70556640625
28.38134765625
17.39501953125
12.8173828125
20.1416015625
22.88818359375
16.4794921875
14.6484375
8.23974609375
-3.662109375
0
-7.32421875
-10.986328125
-16.4794921875
-31.1279296875
-42.1142578125
-53.1005859375
-62.255859375
-57.67822265625
-58.59375
-62.255859375
-59.50927734375
-60.4248046875
-59.50927734375
-62.255859375
-65.00244140625
-53.1005859375
-55.84716796875
-57.67822265625
-56.7626953125
-57.67822265625
-61.34033203125
-65.91796875
-69.580078125
-69.580078125
-75.98876953125
-69.580078125
-74.15771484375
-66.83349609375
-65.91796875
-71.4111328125
-65.91796875
-72.32666015625
-72.32666015625
-80.56640625
-76.904296875
-73.2421875
-66.83349609375
-62.255859375
-65.91796875
-62.255859375
-65.00244140625
-61.34033203125
-71.4111328125
-96.13037109375
-139.16015625
-173.9501953125
-190.4296875
-181.2744140625
-135.498046875
-106.201171875
-54.931640625
10.07080078125
71.4111328125
146.484375
222.47314453125
292.96875
379.94384765625
488.8916015625
606.99462890625
697.6318359375
805.6640625
860.595703125
816.650390625
695.80078125
529.1748046875
423.88916015625
362.548828125
276.4892578125
200.50048828125
132.75146484375
76.904296875
35.70556640625
5.4931640625
-9.1552734375
-19.22607421875
-5.4931640625
34.7900390625
42.1142578125
37.53662109375
41.19873046875
36.62109375
31.1279296875
21.05712890625
14.6484375
5.4931640625
-4.57763671875
-5.4931640625
-2.74658203125
-3.662109375
-9.1552734375
-15.56396484375
-23.8037109375
-18.310546875
-4.57763671875
0
-4.57763671875
-0.91552734375
-7.32421875
-10.07080078125
-3.662109375
-1.8310546875
-7.32421875
-9.1552734375
-8.23974609375
-1.8310546875
-11.90185546875
-22.88818359375
-19.22607421875
-14.6484375
-10.986328125
-9.1552734375
-0.91552734375
0
-2.74658203125
-1.8310546875
6.40869140625
12.8173828125
8.23974609375
4.57763671875
7.32421875
6.40869140625
3.662109375
5.4931640625
7.32421875
3.662109375
10.986328125
15.56396484375
21.97265625
25.634765625
23.8037109375
27.4658203125
21.97265625
26.55029296875
26.55029296875
31.1279296875
37.53662109375
37.53662109375
38.4521484375
35.70556640625
36.62109375
37.53662109375
40.283203125
38.4521484375
41.19873046875
46.69189453125
34.7900390625
48.52294921875
56.7626953125
52.18505859375
39.36767578125
54.01611328125
60.4248046875
59.50927734375
65.00244140625
69.580078125
71.4111328125
77.81982421875
82.3974609375
91.552734375
96.13037109375
94.29931640625
92.46826171875
93.3837890625
92.46826171875
89.7216796875
92.46826171875
96.13037109375
102.5390625
111.6943359375
116.27197265625
121.76513671875
130.92041015625
134.58251953125
130.0048828125
127.25830078125
130.0048828125
126.3427734375
133.6669921875
141.90673828125
146.484375
143.73779296875
150.146484375
147.39990234375
158.38623046875
171.20361328125
170.2880859375
172.119140625
182.18994140625
188.5986328125
197.75390625
203.2470703125
200.50048828125
201.416015625
199.5849609375
206.9091796875
206.9091796875
209.65576171875
202.33154296875
197.75390625
185.85205078125
179.443359375
174.86572265625
171.20361328125
164.794921875
157.470703125
151.9775390625
159.3017578125
144.6533203125
138.24462890625
110.77880859375
101.62353515625
93.3837890625
77.81982421875
64.0869140625
57.67822265625
49.4384765625
49.4384765625
40.283203125
32.04345703125
19.22607421875
15.56396484375
15.56396484375
6.40869140625
4.57763671875
1.8310546875
-9.1552734375
-11.90185546875
-3.662109375
-8.23974609375
-15.56396484375
-22.88818359375
-31.1279296875
-35.70556640625
-37.53662109375
-38.4521484375
-40.283203125
-32.958984375
-34.7900390625
-28.38134765625
-25.634765625
-32.958984375
-32.958984375
-30.21240234375
-27.4658203125
-30.21240234375
-40.283203125
-36.62109375
-33.87451171875
-39.36767578125
-34.7900390625
-26.55029296875
-20.1416015625
-20.1416015625
-16.4794921875
-16.4794921875
-22.88818359375
-23.8037109375
-24.71923828125
-22.88818359375
-21.97265625
-22.88818359375
-22.88818359375
-19.22607421875
-26.55029296875
-30.21240234375
-28.38134765625
-21.97265625
-19.22607421875
-22.88818359375
-17.39501953125
-16.4794921875
-18.310546875
-21.97265625
-21.05712890625
-24.71923828125
-13.73291015625
-14.6484375
-20.1416015625
