ECG
-159.3017578125
-158.38623046875
-136.41357421875
-105.28564453125
-65.91796875
-10.07080078125
48.52294921875
111.6943359375
189.51416015625
270.99609375
341.49169921875
440.36865234375
566.71142578125
673.828125
784.60693359375
860.595703125
862.4267578125
756.2255859375
606.0791015625
467.83447265625
419.3115234375
358.88671875
260.92529296875
184.9365234375
137.3291015625
97.96142578125
65.00244140625
37.53662109375
31.1279296875
27.4658203125
48.52294921875
75.0732421875
65.91796875
67.7490234375
68.66455078125
59.50927734375
55.84716796875
34.7900390625
30.21240234375
42.1142578125
32.04345703125
41.19873046875
31.1279296875
30.21240234375
23.8037109375
15.56396484375
18.310546875
21.97265625
15.56396484375
6.40869140625
14.6484375
20.1416015625
12.8173828125
26.55029296875
26.55029296875
28.38134765625
32.958984375
28.38134765625
17.39501953125
16.4794921875
23.8037109375
16.4794921875
16.4794921875
20.1416015625
41.19873046875
44.86083984375
37.53662109375
35.70556640625
37.53662109375
45.7763671875
45.7763671875
49.4384765625
50.35400390625
41.19873046875
48.52294921875
45.7763671875
35.70556640625
24.71923828125
21.05712890625
26.55029296875
32.04345703125
64.0869140625
75.98876953125
77.81982421875
79.65087890625
78.7353515625
77.81982421875
81.48193359375
79.65087890625
78.7353515625
68.66455078125
71.4111328125
71.4111328125
75.98876953125
74.15771484375
77.81982421875
81.48193359375
84.228515625
85.14404296875
87.890625
94.29931640625
84.228515625
76.904296875
82.3974609375
83.31298828125
90.63720703125
93.3837890625
93.3837890625
104.3701171875
113.525390625
101.62353515625
121.76513671875
127.25830078125
132.75146484375
138.24462890625
135.498046875
139.16015625
140.9912109375
139.16015625
156.55517578125
160.21728515625
155.6396484375
154.72412109375
162.9638671875
167.54150390625
169.37255859375
168.45703125
168.45703125
173.03466796875
182.18994140625
197.75390625
189.51416015625
190.4296875
196.83837890625
195.00732421875
201.416015625
213.31787109375
213.31787109375
219.7265625
228.8818359375
233.45947265625
235.29052734375
230.712890625
238.95263671875
244.44580078125
249.0234375
252.685546875
249.93896484375
257.26318359375
250.8544921875
226.13525390625
227.96630859375
240.78369140625
224.30419921875
230.712890625
237.12158203125
239.8681640625
232.5439453125
210.5712890625
188.5986328125
177.6123046875
163.87939453125
162.04833984375
147.39990234375
133.6669921875
116.27197265625
114.44091796875
119.0185546875
110.77880859375
101.62353515625
92.46826171875
90.63720703125
82.3974609375
66.83349609375
63.17138671875
71.4111328125
54.931640625
55.84716796875
54.01611328125
36.62109375
26.55029296875
24.71923828125
20.1416015625
12.8173828125
16.4794921875
13.73291015625
11.90185546875
27.4658203125
28.38134765625
10.986328125
13.73291015625
8.23974609375
10.986328125
2.74658203125
-7.32421875
-6.40869140625
0
5.4931640625
2.74658203125
-5.4931640625
22.88818359375
19.22607421875
15.56396484375
11.90185546875
23.8037109375
29.296875
13.73291015625
14.6484375
21.05712890625
21.97265625
20.1416015625
16.4794921875
8.23974609375
24.71923828125
23.8037109375
27.4658203125
32.04345703125
31.1279296875
30.21240234375
23.8037109375
36.62109375
39.36767578125
31.1279296875
25.634765625
19.22607421875
23.8037109375
22.88818359375
21.05712890625
21.05712890625
13.73291015625
22.88818359375
20.1416015625
15.56396484375
23.8037109375
18.310546875
21.05712890625
20.1416015625
19.22607421875
19.22607421875
24.71923828125
36.62109375
35.70556640625
40.283203125
21.05712890625
20.1416015625
36.62109375
27.4658203125
27.4658203125
21.97265625
28.38134765625
38.4521484375
32.04345703125
29.296875
27.4658203125
32.958984375
27.4658203125
31.1279296875
25.634765625
27.4658203125
21.97265625
20.1416015625
21.97265625
15.56396484375
16.4794921875
9.1552734375
9.1552734375
0.91552734375
-2.74658203125
9.1552734375
4.57763671875
8.23974609375
5.4931640625
-0.91552734375
-3.662109375
-11.90185546875
7.32421875
16.4794921875
6.40869140625
14.6484375
12.8173828125
11.90185546875
12.8173828125
14.6484375
17.39501953125
12.8173828125
17.39501953125
29.296875
25.634765625
25.634765625
16.4794921875
10.986328125
6.40869140625
0
0
5.4931640625
-10.07080078125
-8.23974609375
1.8310546875
-6.40869140625
-10.986328125
-1.8310546875
-5.4931640625
7.32421875
9.1552734375
9.1552734375
7.32421875
3.662109375
3.662109375
-3.662109375
3.662109375
-6.40869140625
-10.07080078125
-10.07080078125
-14.6484375
-6.40869140625
2.74658203125
6.40869140625
0
-8.23974609375
10.07080078125
9.1552734375
9.1552734375
-8.23974609375
-10.07080078125
2.74658203125
19.22607421875
10.986328125
11.90185546875
14.6484375
21.05712890625
21.97265625
10.986328125
10.07080078125
21.05712890625
42.1142578125
64.0869140625
59.50927734375
48.52294921875
38.4521484375
32.04345703125
45.7763671875
68.66455078125
75.98876953125
80.56640625
81.48193359375
84.228515625
93.3837890625
104.3701171875
97.96142578125
95.21484375
82.3974609375
69.580078125
60.4248046875
70.49560546875
66.83349609375
75.0732421875
90.63720703125
83.31298828125
69.580078125
44.86083984375
47.607421875
49.4384765625
25.634765625
17.39501953125
6.40869140625
10.07080078125
-1.8310546875
-6.40869140625
5.4931640625
9.1552734375
3.662109375
7.32421875
0
-13.73291015625
-7.32421875
-7.32421875
0
5.4931640625
-2.74658203125
-9.1552734375
-4.57763671875
1.8310546875
0.91552734375
-5.4931640625
-5.4931640625
-15.56396484375
-19.22607421875
-27.4658203125
-14.6484375
-1.8310546875
-6.40869140625
-21.97265625
-20.1416015625
-17.39501953125
-21.05712890625
-16.4794921875
-16.4794921875
-10.07080078125
-20.1416015625
-31.1279296875
-39.36767578125
-63.17138671875
-113.525390625
-137.3291015625
-131.8359375
-111.6943359375
-77.81982421875
-38.4521484375
10.07080078125
79.65087890625
151.9775390625
227.05078125
286.56005859375
371.7041015625
473.32763671875
584.1064453125
724.18212890625
845.03173828125
916.44287109375
884.3994140625
775.45166015625
614.31884765625
492.5537109375
457.763671875
415.6494140625
327.7587890625
243.5302734375
170.2880859375
126.3427734375
100.7080078125
67.7490234375
41.19873046875
54.931640625
43.9453125
70.49560546875
91.552734375
88.80615234375
92.46826171875
87.890625
83.31298828125
65.91796875
67.7490234375
55.84716796875
41.19873046875
26.55029296875
36.62109375
44.86083984375
43.02978515625
42.1142578125
43.9453125
44.86083984375
47.607421875
51.26953125
20.1416015625
32.04345703125
44.86083984375
35.70556640625
38.4521484375
43.02978515625
46.69189453125
44.86083984375
42.1142578125
32.958984375
52.18505859375
41.19873046875
47.607421875
48.52294921875
40.283203125
43.02978515625
49.4384765625
51.26953125
65.91796875
70.49560546875
58.59375
54.931640625
55.84716796875
49.4384765625
44.86083984375
48.52294921875
59.50927734375
65.91796875
56.7626953125
54.931640625
53.1005859375
60.4248046875
66.83349609375
83.31298828125
82.3974609375
68.66455078125
70.49560546875
76.904296875
75.0732421875
76.904296875
67.7490234375
48.52294921875
79.65087890625
86.97509765625
89.7216796875
103.45458984375
109.86328125
106.201171875
89.7216796875
86.97509765625
109.86328125
101.62353515625
98.876953125
108.0322265625
109.86328125
99.79248046875
106.201171875
111.6943359375
114.44091796875
128.173828125
124.51171875
129.08935546875
125.42724609375
127.25830078125
118.10302734375
130.92041015625
142.822265625
139.16015625
142.822265625
146.484375
155.6396484375
162.9638671875
155.6396484375
152.89306640625
156.55517578125
157.470703125
157.470703125
165.71044921875
183.10546875
186.767578125
203.2470703125
199.5849609375
209.65576171875
198.66943359375
199.5849609375
223.388671875
227.96630859375
234.375
214.2333984375
218.81103515625
216.97998046875
229.79736328125
233.45947265625
230.712890625
241.69921875
250.8544921875
245.361328125
238.95263671875
245.361328125
233.45947265625
234.375
232.5439453125
227.96630859375
228.8818359375
226.13525390625
220.64208984375
212.40234375
184.9365234375
179.443359375
179.443359375
160.21728515625
153.80859375
152.89306640625
137.3291015625
130.0048828125
117.1875
108.0322265625
101.62353515625
93.3837890625
78.7353515625
65.00244140625
57.67822265625
46.69189453125
39.36767578125
43.9453125
35.70556640625
34.7900390625
32.04345703125
29.296875
34.7900390625
19.22607421875
24.71923828125
31.1279296875
28.38134765625
32.04345703125
33.87451171875
21.05712890625
10.07080078125
19.22607421875
14.6484375
17.39501953125
20.1416015625
19.22607421875
22.88818359375
11.90185546875
2.74658203125
1.8310546875
3.662109375
2.74658203125
6.40869140625
13.73291015625
15.56396484375
15.56396484375
18.310546875
16.4794921875
17.39501953125
8.23974609375
10.07080078125
13.73291015625
11.90185546875
2.74658203125
0.91552734375
19.22607421875
7.32421875
5.4931640625
8.23974609375
2.74658203125
7.32421875
6.40869140625
2.74658203125
0.91552734375
4.57763671875
18.310546875
13.73291015625
-2.74658203125
6.40869140625
10.986328125
20.1416015625
19.22607421875
10.07080078125
13.73291015625
17.39501953125
11.90185546875
7.32421875
21.05712890625
18.310546875
19.22607421875
19.22607421875
18.310546875
10.986328125
5.4931640625
33.87451171875
31.1279296875
18.310546875
26.55029296875
25.634765625
26.55029296875
18.310546875
12.8173828125
15.56396484375
10.986328125
4.57763671875
-6.40869140625
-9.1552734375
-9.1552734375
-3.662109375
-2.74658203125
6.40869140625
22.88818359375
28.38134765625
28.38134765625
26.55029296875
7.32421875
-5.4931640625
17.39501953125
6.40869140625
0
1.8310546875
9.1552734375
0.91552734375
-2.74658203125
7.32421875
9.1552734375
15.56396484375
0.91552734375
8.23974609375
13.73291015625
7.32421875
11.90185546875
-1.8310546875
0
-8.23974609375
-4.57763671875
-10.986328125
-15.56396484375
-16.4794921875
-17.39501953125
-8.23974609375
-8.23974609375
-16.4794921875
-27.4658203125
-54.01611328125
-35.70556640625
-33.87451171875
-35.70556640625
-21.97265625
-8.23974609375
0.91552734375
0.91552734375
2.74658203125
0.91552734375
-10.07080078125
-16.4794921875
-2.74658203125
-4.57763671875
-14.6484375
-6.40869140625
-9.1552734375
-19.22607421875
-27.4658203125
-28.38134765625
-27.4658203125
-20.1416015625
-24.71923828125
-24.71923828125
-14.6484375
-7.32421875
5.4931640625
6.40869140625
2.74658203125
3.662109375
19.22607421875
28.38134765625
26.55029296875
16.4794921875
34.7900390625
33.87451171875
32.958984375
30.21240234375
25.634765625
27.4658203125
37.53662109375
43.02978515625
49.4384765625
63.17138671875
61.34033203125
59.50927734375
63.17138671875
62.255859375
57.67822265625
55.84716796875
56.7626953125
60.4248046875
61.34033203125
54.931640625
62.255859375
54.931640625
56.7626953125
37.53662109375
24.71923828125
25.634765625
16.4794921875
5.4931640625
-4.57763671875
-10.07080078125
-9.1552734375
-14.6484375
-22.88818359375
-23.8037109375
-25.634765625
-23.8037109375
-29.296875
-31.1279296875
-32.04345703125
-25.634765625
-33.87451171875
-43.02978515625
-44.86083984375
-41.19873046875
-32.958984375
-29.296875
-38.4521484375
-14.6484375
-32.04345703125
-21.97265625
-21.97265625
-28.38134765625
-32.04345703125
-35.70556640625
-40.283203125
-42.1142578125
-38.4521484375
-41.19873046875
-38.4521484375
-36.62109375
-35.70556640625
-38.4521484375
-42.1142578125
-40.283203125
-53.1005859375
-63.17138671875
-89.7216796875
-136.41357421875
-157.470703125
-152.89306640625
-133.6669921875
-99.79248046875
-61.34033203125
-9.1552734375
54.01611328125
114.44091796875
187.68310546875
269.1650390625
341.49169921875
428.466796875
546.56982421875
653.6865234375
768.12744140625
866.0888671875
874.32861328125
789.1845703125
618.896484375
466.9189453125
411.07177734375
361.63330078125
293.88427734375
193.17626953125
125.42724609375
71.4111328125
48.52294921875
31.1279296875
14.6484375
11.90185546875
24.71923828125
30.21240234375
43.9453125
63.17138671875
70.49560546875
60.4248046875
56.7626953125
44.86083984375
29.296875
24.71923828125
29.296875
24.71923828125
23.8037109375
28.38134765625
24.71923828125
25.634765625
23.8037109375
31.1279296875
33.87451171875
33.87451171875
28.38134765625
26.55029296875
27.4658203125
19.22607421875
25.634765625
21.05712890625
17.39501953125
14.6484375
2.74658203125
12.8173828125
19.22607421875
18.310546875
31.1279296875
23.8037109375
36.62109375
43.9453125
47.607421875
51.26953125
39.36767578125
30.21240234375
33.87451171875
33.87451171875
43.02978515625
40.283203125
35.70556640625
33.87451171875
32.04345703125
28.38134765625
26.55029296875
28.38134765625
34.7900390625
43.02978515625
33.87451171875
40.283203125
71.4111328125
65.91796875
64.0869140625
61.34033203125
56.7626953125
54.931640625
56.7626953125
59.50927734375
62.255859375
77.81982421875
66.83349609375
54.931640625
69.580078125
70.49560546875
69.580078125
69.580078125
65.91796875
65.00244140625
81.48193359375
72.32666015625
60.4248046875
87.890625
86.97509765625
87.890625
88.80615234375
95.21484375
104.3701171875
106.201171875
117.1875
117.1875
97.96142578125
109.86328125
115.3564453125
123.59619140625
127.25830078125
126.3427734375
134.58251953125
146.484375
154.72412109375
158.38623046875
162.04833984375
159.3017578125
180.35888671875
182.18994140625
181.2744140625
186.767578125
178.52783203125
178.52783203125
182.18994140625
186.767578125
178.52783203125
182.18994140625
203.2470703125
195.00732421875
191.34521484375
194.091796875
205.078125
213.31787109375
227.96630859375
232.5439453125
224.30419921875
228.8818359375
233.45947265625
226.13525390625
230.712890625
221.5576171875
205.99365234375
202.33154296875
210.5712890625
206.9091796875
205.078125
182.18994140625
182.18994140625
172.119140625
160.21728515625
153.80859375
142.822265625
130.0048828125
121.76513671875
119.0185546875
104.3701171875
80.56640625
87.890625
78.7353515625
65.00244140625
51.26953125
43.02978515625
36.62109375
29.296875
21.97265625
18.310546875
9.1552734375
5.4931640625
0
2.74658203125
2.74658203125
-6.40869140625
-11.90185546875
-13.73291015625
-14.6484375
-17.39501953125
-20.1416015625
-16.4794921875
-8.23974609375
-7.32421875
-9.1552734375
-17.39501953125
-29.296875
-9.1552734375
-7.32421875
-8.23974609375
-11.90185546875
-27.4658203125
-33.87451171875
-17.39501953125
-19.22607421875
-19.22607421875
-21.05712890625
-27.4658203125
-26.55029296875
-28.38134765625
-26.55029296875
-26.55029296875
-22.88818359375
-22.88818359375
-23.8037109375
-29.296875
-16.4794921875
-19.22607421875
-11.90185546875
-9.1552734375
-21.05712890625
-18.310546875
-11.90185546875
-14.6484375
-26.55029296875
-20.1416015625
-10.986328125
-6.40869140625
-10.986328125
-13.73291015625
-8.23974609375
-8.23974609375
-14.6484375
-13.73291015625
-15.56396484375
-21.97265625
-24.71923828125
-23.8037109375
-10.07080078125
-0.91552734375
-0.91552734375
0.91552734375
0.91552734375
-6.40869140625
1.8310546875
15.56396484375
5.4931640625
-6.40869140625
-24.71923828125
-4.57763671875
4.57763671875
-5.4931640625
-6.40869140625
-10.986328125
-10.986328125
-15.56396484375
-13.73291015625
-13.73291015625
-14.6484375
-20.1416015625
-31.1279296875
-36.62109375
-33.87451171875
-25.634765625
-22.88818359375
-11.90185546875
-15.56396484375
-8.23974609375
-1.8310546875
-8.23974609375
-4.57763671875
-15.56396484375
-20.1416015625
-19.22607421875
-22.88818359375
-20.1416015625
-2.74658203125
-15.56396484375
-19.22607421875
-17.39501953125
-21.05712890625
-25.634765625
-32.958984375
-29.296875
-29.296875
-34.7900390625
-27.4658203125
-22.88818359375
-15.56396484375
-15.56396484375
-29.296875
-31.1279296875
-27.4658203125
-18.310546875
-24.71923828125
-27.4658203125
-28.38134765625
-32.04345703125
-23.8037109375
-28.38134765625
-38.4521484375
-35.70556640625
-29.296875
-25.634765625
-33.87451171875
-29.296875
-25.634765625
-27.4658203125
-25.634765625
-30.21240234375
-31.1279296875
-21.05712890625
-26.55029296875
-31.1279296875
-39.36767578125
-37.53662109375
-31.1279296875
-32.958984375
-39.36767578125
-28.38134765625
-36.62109375
-45.7763671875
-34.7900390625
-34.7900390625
-29.296875
-33.87451171875
-33.87451171875
-32.958984375
-28.38134765625
-23.8037109375
-24.71923828125
-30.21240234375
-32.958984375
-28.38134765625
-29.296875
-33.87451171875
-28.38134765625
-22.88818359375
-21.97265625
-6.40869140625
5.4931640625
10.07080078125
11.90185546875
15.56396484375
21.05712890625
17.39501953125
10.07080078125
6.40869140625
25.634765625
25.634765625
32.04345703125
40.283203125
53.1005859375
49.4384765625
43.9453125
56.7626953125
50.35400390625
45.7763671875
37.53662109375
26.55029296875
30.21240234375
40.283203125
47.607421875
46.69189453125
33.87451171875
33.87451171875
18.310546875
0
-3.662109375
5.4931640625
-7.32421875
-29.296875
-34.7900390625
-44.86083984375
-20.1416015625
-24.71923828125
-30.21240234375
-28.38134765625
-32.958984375
-43.9453125
-43.02978515625
-36.62109375
-48.52294921875
-54.931640625
-51.26953125
-49.4384765625
-52.18505859375
-49.4384765625
-42.1142578125
-31.1279296875
-54.01611328125
-52.18505859375
-56.7626953125
-66.83349609375
-67.7490234375
-55.84716796875
-45.7763671875
-42.1142578125
-41.19873046875
-37.53662109375
-21.05712890625
-32.958984375
-29.296875
-33.87451171875
-36.62109375
-34.7900390625
-36.62109375
-44.86083984375
-58.59375
-82.3974609375
-125.42724609375
-167.54150390625
-172.119140625
-168.45703125
-138.24462890625
-97.0458984375
-45.7763671875
21.97265625
86.97509765625
165.71044921875
233.45947265625
315.85693359375
403.74755859375
511.77978515625
624.3896484375
747.0703125
835.87646484375
856.93359375
799.25537109375
666.50390625
501.708984375
420.22705078125
356.14013671875
268.24951171875
195.9228515625
123.59619140625
78.7353515625
52.18505859375
31.1279296875
2.74658203125
-4.57763671875
16.4794921875
45.7763671875
44.86083984375
43.02978515625
45.7763671875
52.18505859375
50.35400390625
43.9453125
30.21240234375
29.296875
26.55029296875
19.22607421875
10.986328125
27.4658203125
21.97265625
21.97265625
19.22607421875
11.90185546875
9.1552734375
6.40869140625
12.8173828125
16.4794921875
16.4794921875
11.90185546875
12.8173828125
12.8173828125
11.90185546875
11.90185546875
6.40869140625
8.23974609375
6.40869140625
15.56396484375
15.56396484375
2.74658203125
7.32421875
26.55029296875
25.634765625
31.1279296875
32.958984375
30.21240234375
22.88818359375
49.4384765625
39.36767578125
38.4521484375
39.36767578125
32.04345703125
34.7900390625
31.1279296875
28.38134765625
37.53662109375
41.19873046875
54.01611328125
43.02978515625
49.4384765625
47.607421875
40.283203125
46.69189453125
48.52294921875
53.1005859375
56.7626953125
54.931640625
54.931640625
65.00244140625
60.4248046875
44.86083984375
69.580078125
76.904296875
65.00244140625
78.7353515625
75.98876953125
64.0869140625
67.7490234375
65.91796875
71.4111328125
75.0732421875
67.7490234375
76.904296875
83.31298828125
95.21484375
93.3837890625
98.876953125
108.0322265625
103.45458984375
113.525390625
115.3564453125
109.86328125
120.849609375
126.3427734375
119.93408203125
118.10302734375
126.3427734375
131.8359375
130.0048828125
121.76513671875
137.3291015625
153.80859375
165.71044921875
168.45703125
173.03466796875
173.03466796875
173.9501953125
186.767578125
197.75390625
202.33154296875
205.99365234375
210.5712890625
205.99365234375
207.82470703125
213.31787109375
209.65576171875
212.40234375
217.8955078125
221.5576171875
216.97998046875
231.62841796875
260.92529296875
255.43212890625
246.27685546875
249.93896484375
244.44580078125
239.8681640625
243.5302734375
235.29052734375
227.05078125
221.5576171875
209.65576171875
198.66943359375
193.17626953125
188.5986328125
179.443359375
168.45703125
145.56884765625
124.51171875
122.6806640625
103.45458984375
97.0458984375
86.0595703125
77.81982421875
66.83349609375
68.66455078125
56.7626953125
41.19873046875
48.52294921875
60.4248046875
40.283203125
33.87451171875
30.21240234375
26.55029296875
14.6484375
7.32421875
3.662109375
0.91552734375
-1.8310546875
-5.4931640625
-9.1552734375
-6.40869140625
-5.4931640625
-12.8173828125
-18.310546875
-13.73291015625
-17.39501953125
-22.88818359375
-21.05712890625
-29.296875
-32.04345703125
-34.7900390625
-25.634765625
-36.62109375
-24.71923828125
-17.39501953125
-19.22607421875
-15.56396484375
-17.39501953125
-12.8173828125
-8.23974609375
-11.90185546875
-17.39501953125
-11.90185546875
-15.56396484375
-24.71923828125
-27.4658203125
-25.634765625
-19.22607421875
-12.8173828125
-8.23974609375
-4.57763671875
-3.662109375
-10.07080078125
-10.07080078125
-2.74658203125
-2.74658203125
-10.986328125
-11.90185546875
-2.74658203125
-1.8310546875
-3.662109375
-6.40869140625
-3.662109375
-2.74658203125
-9.1552734375
-9.1552734375
-0.91552734375
-6.40869140625
-9.1552734375
-10.986328125
-14.6484375
-15.56396484375
-15.56396484375
-8.23974609375
-2.74658203125
-16.4794921875
4.57763671875
11.90185546875
4.57763671875
14.6484375
9.1552734375
-0.91552734375
2.74658203125
-9.1552734375
-8.23974609375
-5.4931640625
4.57763671875
3.662109375
9.1552734375
0.91552734375
-3.662109375
-2.74658203125
-4.57763671875
-8.23974609375
-14.6484375
-10.986328125
-16.4794921875
-17.39501953125
-23.8037109375
-25.634765625
-23.8037109375
-23.8037109375
-19.22607421875
-18.310546875
-32.958984375
-24.71923828125
-22.88818359375
-21.05712890625
-23.8037109375
-19.22607421875
-10.07080078125
-10.07080078125
-17.39501953125
-13.73291015625
-17.39501953125
-29.296875
-32.958984375
-37.53662109375
-32.04345703125
-43.9453125
-42.1142578125
-30.21240234375
-34.7900390625
-19.22607421875
-20.1416015625
-29.296875
-31.1279296875
-34.7900390625
-29.296875
-17.39501953125
-22.88818359375
-28.38134765625
-26.55029296875
-26.55029296875
-19.22607421875
-20.1416015625
-25.634765625
-26.55029296875
-32.04345703125
-44.86083984375
-42.1142578125
-39.36767578125
-31.1279296875
-32.04345703125
-31.1279296875
-6.40869140625
-17.39501953125
-15.56396484375
-23.8037109375
-25.634765625
-28.38134765625
-34.7900390625
-39.36767578125
-39.36767578125
-38.4521484375
-32.958984375
-32.04345703125
-25.634765625
-40.283203125
-42.1142578125
-36.62109375
-31.1279296875
-34.7900390625
-25.634765625
-32.04345703125
-26.55029296875
-27.4658203125
-28.38134765625
-32.04345703125
-28.38134765625
-10.986328125
-20.1416015625
-24.71923828125
-21.05712890625
-22.88818359375
-29.296875
-32.04345703125
-35.70556640625
-38.4521484375
-30.21240234375
-18.310546875
-21.97265625
-27.4658203125
-27.4658203125
-15.56396484375
-12.8173828125
-9.1552734375
6.40869140625
-4.57763671875
1.8310546875
24.71923828125
34.7900390625
24.71923828125
22.88818359375
33.87451171875
35.70556640625
29.296875
45.7763671875
53.1005859375
55.84716796875
53.1005859375
67.7490234375
66.83349609375
63.17138671875
62.255859375
48.52294921875
39.36767578125
32.04345703125
37.53662109375
53.1005859375
49.4384765625
46.69189453125
41.19873046875
28.38134765625
22.88818359375
11.90185546875
5.4931640625
-10.986328125
-24.71923828125
-28.38134765625
-22.88818359375
-29.296875
-24.71923828125
-26.55029296875
-31.1279296875
-29.296875
-35.70556640625
-32.958984375
-32.958984375
-32.04345703125
-16.4794921875
-25.634765625
-12.8173828125
-9.1552734375
-17.39501953125
-17.39501953125
-19.22607421875
-22.88818359375
-28.38134765625
-30.21240234375
-30.21240234375
-35.70556640625
-44.86083984375
-32.958984375
-27.4658203125
-32.958984375
-27.4658203125
-36.62109375
-45.7763671875
-39.36767578125
-39.36767578125
-34.7900390625
-36.62109375
-27.4658203125
-32.04345703125
-55.84716796875
-85.14404296875
-132.75146484375
-164.794921875
-173.03466796875
-159.3017578125
-118.10302734375
-83.31298828125
-25.634765625
32.958984375
98.876953125
163.87939453125
262.75634765625
356.14013671875
433.04443359375
542.90771484375
651.85546875
754.39453125
843.20068359375
854.18701171875
788.26904296875
660.09521484375
499.8779296875
435.791015625
367.12646484375
280.1513671875
210.5712890625
150.146484375
86.97509765625
55.84716796875
30.21240234375
22.88818359375
1.8310546875
35.70556640625
67.7490234375
61.34033203125
65.00244140625
67.7490234375
65.00244140625
57.67822265625
48.52294921875
43.02978515625
42.1142578125
43.02978515625
40.283203125
45.7763671875
35.70556640625
28.38134765625
18.310546875
10.986328125
21.97265625
19.22607421875
13.73291015625
25.634765625
26.55029296875
16.4794921875
15.56396484375
21.97265625
18.310546875
22.88818359375
22.88818359375
21.05712890625
22.88818359375
38.4521484375
38.4521484375
32.958984375
43.02978515625
42.1142578125
35.70556640625
39.36767578125
48.52294921875
43.02978515625
48.52294921875
48.52294921875
43.9453125
50.35400390625
51.26953125
43.9453125
25.634765625
50.35400390625
56.7626953125
51.26953125
47.607421875
38.4521484375
35.70556640625
40.283203125
45.7763671875
56.7626953125
62.255859375
67.7490234375
81.48193359375
74.15771484375
70.49560546875
77.81982421875
72.32666015625
77.81982421875
78.7353515625
80.56640625
75.98876953125
57.67822265625
76.904296875
83.31298828125
83.31298828125
88.80615234375
91.552734375
97.0458984375
100.7080078125
96.13037109375
95.21484375
99.79248046875
98.876953125
107.11669921875
115.3564453125
114.44091796875
117.1875
124.51171875
130.92041015625
124.51171875
127.25830078125
145.56884765625
150.146484375
154.72412109375
150.146484375
148.3154296875
163.87939453125
166.6259765625
155.6396484375
170.2880859375
176.69677734375
179.443359375
180.35888671875
177.6123046875
193.17626953125
198.66943359375
189.51416015625
182.18994140625
194.091796875
215.14892578125
209.65576171875
203.2470703125
207.82470703125
218.81103515625
238.037109375
244.44580078125
243.5302734375
259.09423828125
251.77001953125
244.44580078125
246.27685546875
263.671875
261.8408203125
255.43212890625
266.41845703125
258.1787109375
260.009765625
248.10791015625
246.27685546875
243.5302734375
238.037109375
233.45947265625
225.2197265625
209.65576171875
198.66943359375
194.091796875
174.86572265625
170.2880859375
164.794921875
151.9775390625
147.39990234375
142.822265625
123.59619140625
107.11669921875
99.79248046875
86.0595703125
72.32666015625
60.4248046875
43.02978515625
59.50927734375
46.69189453125
37.53662109375
46.69189453125
39.36767578125
39.36767578125
33.87451171875
31.1279296875
31.1279296875
20.1416015625
19.22607421875
29.296875
29.296875
27.4658203125
24.71923828125
17.39501953125
12.8173828125
8.23974609375
7.32421875
8.23974609375
10.07080078125
6.40869140625
0
-8.23974609375
10.986328125
8.23974609375
5.4931640625
7.32421875
6.40869140625
1.8310546875
-1.8310546875
5.4931640625
4.57763671875
2.74658203125
0.91552734375
7.32421875
10.07080078125
8.23974609375
5.4931640625
4.57763671875
15.56396484375
30.21240234375
32.04345703125
23.8037109375
28.38134765625
19.22607421875
-3.662109375
8.23974609375
10.07080078125
13.73291015625
17.39501953125
21.05712890625
22.88818359375
31.1279296875
21.97265625
22.88818359375
27.4658203125
33.87451171875
31.1279296875
26.55029296875
26.55029296875
20.1416015625
21.05712890625
16.4794921875
23.8037109375
21.05712890625
15.56396484375
15.56396484375
19.22607421875
23.8037109375
22.88818359375
20.1416015625
25.634765625
21.05712890625
15.56396484375
32.958984375
26.55029296875
27.4658203125
22.88818359375
18.310546875
21.97265625
26.55029296875
18.310546875
10.986328125
10.07080078125
9.1552734375
16.4794921875
20.1416015625
2.74658203125
0.91552734375
-2.74658203125
10.07080078125
13.73291015625
6.40869140625
7.32421875
5.4931640625
-1.8310546875
3.662109375
6.40869140625
4.57763671875
9.1552734375
6.40869140625
2.74658203125
10.986328125
5.4931640625
-1.8310546875
-2.74658203125
-5.4931640625
-2.74658203125
-6.40869140625
0
-2.74658203125
-3.662109375
-2.74658203125
-11.90185546875
-14.6484375
-3.662109375
3.662109375
0.91552734375
-8.23974609375
-13.73291015625
0.91552734375
17.39501953125
18.310546875
21.05712890625
11.90185546875
6.40869140625
1.8310546875
2.74658203125
-0.91552734375
-0.91552734375
1.8310546875
0
2.74658203125
1.8310546875
-2.74658203125
-4.57763671875
-3.662109375
0
-1.8310546875
2.74658203125
-9.1552734375
-7.32421875
4.57763671875
-8.23974609375
-7.32421875
-10.07080078125
2.74658203125
-1.8310546875
-7.32421875
-4.57763671875
-4.57763671875
-2.74658203125
-6.40869140625
-8.23974609375
-10.07080078125
-7.32421875
-10.07080078125
-1.8310546875
5.4931640625
0.91552734375
-0.91552734375
-0.91552734375
-3.662109375
-11.90185546875
-18.310546875
-14.6484375
7.32421875
-1.8310546875
3.662109375
1.8310546875
9.1552734375
5.4931640625
-2.74658203125
-3.662109375
0.91552734375
-5.4931640625
-9.1552734375
-4.57763671875
-11.90185546875
-9.1552734375
-17.39501953125
-14.6484375
0.91552734375
5.4931640625
21.05712890625
51.26953125
38.4521484375
41.19873046875
50.35400390625
38.4521484375
32.04345703125
32.958984375
32.958984375
33.87451171875
47.607421875
57.67822265625
72.32666015625
81.48193359375
86.97509765625
91.552734375
98.876953125
100.7080078125
91.552734375
80.56640625
72.32666015625
77.81982421875
64.0869140625
83.31298828125
84.228515625
85.14404296875
69.580078125
46.69189453125
48.52294921875
43.02978515625
30.21240234375
10.986328125
4.57763671875
7.32421875
-8.23974609375
-15.56396484375
-12.8173828125
-14.6484375
-16.4794921875
-9.1552734375
-11.90185546875
6.40869140625
12.8173828125
4.57763671875
-10.986328125
-4.57763671875
-0.91552734375
0.91552734375
-0.91552734375
-7.32421875
-7.32421875
-9.1552734375
-16.4794921875
-19.22607421875
-20.1416015625
-20.1416015625
-14.6484375
-13.73291015625
-17.39501953125
-23.8037109375
-28.38134765625
-25.634765625
-37.53662109375
-41.19873046875
-23.8037109375
-30.21240234375
-16.4794921875
-9.1552734375
-10.07080078125
-7.32421875
-22.88818359375
-51.26953125
-88.80615234375
-127.25830078125
-145.56884765625
-132.75146484375
-75.0732421875
-48.52294921875
-2.74658203125
61.34033203125
119.0185546875
204.16259765625
282.89794921875
347.900390625
435.791015625
555.72509765625
680.23681640625
795.59326171875
889.892578125
911.865234375
839.53857421875
690.3076171875
528.25927734375
465.087890625
419.3115234375
343.32275390625
249.0234375
183.10546875
130.92041015625
105.28564453125
71.4111328125
52.18505859375
20.1416015625
25.634765625
67.7490234375
90.63720703125
89.7216796875
99.79248046875
106.201171875
93.3837890625
72.32666015625
65.91796875
61.34033203125
61.34033203125
53.1005859375
51.26953125
50.35400390625
46.69189453125
41.19873046875
43.02978515625
50.35400390625
35.70556640625
34.7900390625
33.87451171875
16.4794921875
39.36767578125
52.18505859375
48.52294921875
51.26953125
54.01611328125
54.931640625
54.01611328125
52.18505859375
50.35400390625
62.255859375
54.931640625
59.50927734375
51.26953125
46.69189453125
46.69189453125
56.7626953125
50.35400390625
54.931640625
53.1005859375
52.18505859375
54.01611328125
53.1005859375
55.84716796875
54.01611328125
70.49560546875
56.7626953125
73.2421875
70.49560546875
68.66455078125
58.59375
65.00244140625
66.83349609375
66.83349609375
74.15771484375
78.7353515625
80.56640625
80.56640625
84.228515625
85.14404296875
74.15771484375
80.56640625
103.45458984375
91.552734375
89.7216796875
96.13037109375
97.96142578125
98.876953125
104.3701171875
97.0458984375
100.7080078125
109.86328125
115.3564453125
112.60986328125
108.94775390625
109.86328125
108.0322265625
109.86328125
114.44091796875
113.525390625
120.849609375
122.6806640625
129.08935546875
142.822265625
151.06201171875
140.9912109375
149.23095703125
150.146484375
151.9775390625
144.6533203125
151.06201171875
153.80859375
159.3017578125
170.2880859375
172.119140625
174.86572265625
178.52783203125
182.18994140625
192.2607421875
195.9228515625
202.33154296875
201.416015625
210.5712890625
218.81103515625
216.064453125
221.5576171875
226.13525390625
227.05078125
219.7265625
239.8681640625
238.95263671875
235.29052734375
236.2060546875
244.44580078125
254.5166015625
259.09423828125
251.77001953125
256.34765625
254.5166015625
254.5166015625
255.43212890625
249.93896484375
239.8681640625
235.29052734375
231.62841796875
230.712890625
221.5576171875
206.9091796875
187.68310546875
181.2744140625
192.2607421875
173.9501953125
157.470703125
153.80859375
140.9912109375
128.173828125
127.25830078125
118.10302734375
106.201171875
96.13037109375
84.228515625
78.7353515625
86.0595703125
83.31298828125
73.2421875
54.01611328125
46.69189453125
42.1142578125
50.35400390625
35.70556640625
30.21240234375
29.296875
34.7900390625
33.87451171875
29.296875
31.1279296875
32.04345703125
24.71923828125
19.22607421875
20.1416015625
20.1416015625
28.38134765625
29.296875
24.71923828125
24.71923828125
33.87451171875
18.310546875
8.23974609375
15.56396484375
18.310546875
20.1416015625
19.22607421875
18.310546875
22.88818359375
10.986328125
10.07080078125
15.56396484375
4.57763671875
13.73291015625
18.310546875
19.22607421875
2.74658203125
6.40869140625
13.73291015625
12.8173828125
14.6484375
12.8173828125
10.07080078125
3.662109375
19.22607421875
24.71923828125
26.55029296875
27.4658203125
19.22607421875
15.56396484375
12.8173828125
12.8173828125
16.4794921875
10.07080078125
8.23974609375
13.73291015625
22.88818359375
21.97265625
23.8037109375
29.296875
22.88818359375
31.1279296875
27.4658203125
26.55029296875
24.71923828125
29.296875
27.4658203125
17.39501953125
15.56396484375
7.32421875
36.62109375
26.55029296875
25.634765625
13.73291015625
15.56396484375
9.1552734375
0.91552734375
4.57763671875
9.1552734375
13.73291015625
12.8173828125
26.55029296875
15.56396484375
9.1552734375
8.23974609375
17.39501953125
11.90185546875
3.662109375
13.73291015625
5.4931640625
-4.57763671875
9.1552734375
11.90185546875
0.91552734375
-6.40869140625
19.22607421875
18.310546875
10.07080078125
6.40869140625
2.74658203125
9.1552734375
-0.91552734375
-1.8310546875
-6.40869140625
-5.4931640625
-11.90185546875
-9.1552734375
4.57763671875
12.8173828125
-7.32421875
-8.23974609375
-15.56396484375
-10.07080078125
-7.32421875
-13.73291015625
-14.6484375
-8.23974609375
-12.8173828125
-16.4794921875
-22.88818359375
-19.22607421875
2.74658203125
0.91552734375
-3.662109375
-2.74658203125
1.8310546875
5.4931640625
1.8310546875
0
-3.662109375
1.8310546875
8.23974609375
3.662109375
4.57763671875
-3.662109375
-2.74658203125
-12.8173828125
-18.310546875
-18.310546875
-17.39501953125
-23.8037109375
-44.86083984375
-33.87451171875
-14.6484375
-12.8173828125
5.4931640625
0
-1.8310546875
-14.6484375
-23.8037109375
-19.22607421875
-23.8037109375
-4.57763671875
-6.40869140625
-17.39501953125
-7.32421875
-8.23974609375
-6.40869140625
2.74658203125
-8.23974609375
-9.1552734375
-5.4931640625
-4.57763671875
-7.32421875
-9.1552734375
-4.57763671875
-0.91552734375
-17.39501953125
-22.88818359375
-26.55029296875
-16.4794921875
-16.4794921875
-19.22607421875
-12.8173828125
-4.57763671875
-8.23974609375
6.40869140625
10.986328125
12.8173828125
22.88818359375
23.8037109375
16.4794921875
16.4794921875
10.986328125
10.986328125
11.90185546875
20.1416015625
23.8037109375
34.7900390625
32.04345703125
29.296875
54.01611328125
66.83349609375
62.255859375
72.32666015625
84.228515625
70.49560546875
68.66455078125
75.0732421875
68.66455078125
72.32666015625
68.66455078125
65.91796875
73.2421875
73.2421875
66.83349609375
49.4384765625
37.53662109375
41.19873046875
31.1279296875
16.4794921875
2.74658203125
-3.662109375
-14.6484375
-11.90185546875
-5.4931640625
-18.310546875
-16.4794921875
-19.22607421875
-23.8037109375
-45.7763671875
-29.296875
-13.73291015625
-11.90185546875
-10.986328125
-15.56396484375
-21.97265625
-17.39501953125
-20.1416015625
-32.04345703125
-37.53662109375
-23.8037109375
-18.310546875
-14.6484375
-22.88818359375
-22.88818359375
-18.310546875
-24.71923828125
-21.05712890625
-25.634765625
-31.1279296875
-28.38134765625
-37.53662109375
-28.38134765625
-21.97265625
-21.97265625
-18.310546875
-23.8037109375
-37.53662109375
-52.18505859375
-74.15771484375
-111.6943359375
-134.58251953125
-135.498046875
-124.51171875
-80.56640625
-43.02978515625
14.6484375
71.4111328125
135.498046875
207.82470703125
277.40478515625
352.47802734375
444.9462890625
567.626953125
667.41943359375
786.43798828125
874.32861328125
869.7509765625
796.5087890625
639.0380859375
492.5537109375
448.6083984375
379.0283203125
295.71533203125
216.064453125
158.38623046875
99.79248046875
76.904296875
51.26953125
22.88818359375
23.8037109375
31.1279296875
58.59375
70.49560546875
72.32666015625
74.15771484375
71.4111328125
67.7490234375
53.1005859375
33.87451171875
36.62109375
35.70556640625
40.283203125
32.04345703125
37.53662109375
40.283203125
44.86083984375
50.35400390625
42.1142578125
37.53662109375
43.9453125
52.18505859375
42.1142578125
35.70556640625
35.70556640625
32.04345703125
32.958984375
33.87451171875
32.958984375
29.296875
40.283203125
43.9453125
40.283203125
37.53662109375
33.87451171875
37.53662109375
34.7900390625
36.62109375
60.4248046875
53.1005859375
60.4248046875
57.67822265625
48.52294921875
46.69189453125
44.86083984375
46.69189453125
49.4384765625
45.7763671875
39.36767578125
40.283203125
46.69189453125
49.4384765625
49.4384765625
73.2421875
66.83349609375
63.17138671875
71.4111328125
79.65087890625
82.3974609375
75.0732421875
64.0869140625
78.7353515625
68.66455078125
78.7353515625
81.48193359375
85.14404296875
84.228515625
75.0732421875
80.56640625
78.7353515625
75.98876953125
77.81982421875
78.7353515625
74.15771484375
79.65087890625
84.228515625
104.3701171875
108.94775390625
112.60986328125
101.62353515625
97.96142578125
119.0185546875
122.6806640625
123.59619140625
134.58251953125
138.24462890625
127.25830078125
130.0048828125
136.41357421875
149.23095703125
144.6533203125
150.146484375
161.1328125
152.89306640625
162.9638671875
165.71044921875
176.69677734375
175.78125
168.45703125
170.2880859375
165.71044921875
175.78125
191.34521484375
195.9228515625
187.68310546875
218.81103515625
215.14892578125
215.14892578125
217.8955078125
208.740234375
219.7265625
236.2060546875
225.2197265625
224.30419921875
224.30419921875
223.388671875
229.79736328125
242.61474609375
238.95263671875
242.61474609375
241.69921875
236.2060546875
233.45947265625
230.712890625
238.037109375
241.69921875
224.30419921875
196.83837890625
200.50048828125
209.65576171875
191.34521484375
181.2744140625
173.03466796875
162.9638671875
150.146484375
137.3291015625
118.10302734375
113.525390625
110.77880859375
103.45458984375
88.80615234375
86.97509765625
82.3974609375
66.83349609375
61.34033203125
52.18505859375
31.1279296875
27.4658203125
37.53662109375
10.986328125
8.23974609375
9.1552734375
14.6484375
-0.91552734375
0
-6.40869140625
0.91552734375
0.91552734375
-6.40869140625
-7.32421875
2.74658203125
13.73291015625
21.97265625
14.6484375
14.6484375
3.662109375
0.91552734375
0
6.40869140625
3.662109375
0
-0.91552734375
-8.23974609375
0
7.32421875
-2.74658203125
-5.4931640625
-1.8310546875
-6.40869140625
-14.6484375
-9.1552734375
-6.40869140625
-5.4931640625
-1.8310546875
6.40869140625
16.4794921875
15.56396484375
6.40869140625
4.57763671875
2.74658203125
-7.32421875
-4.57763671875
0
-8.23974609375
-3.662109375
11.90185546875
5.4931640625
6.40869140625
0.91552734375
9.1552734375
14.6484375
16.4794921875
14.6484375
4.57763671875
-11.90185546875
-10.986328125
-7.32421875
-13.73291015625
-17.39501953125
-14.6484375
-15.56396484375
-7.32421875
-10.07080078125
-0.91552734375
-0.91552734375
11.90185546875
9.1552734375
8.23974609375
15.56396484375
10.986328125
4.57763671875
4.57763671875
6.40869140625
7.32421875
9.1552734375
4.57763671875
-4.57763671875
-2.74658203125
-0.91552734375
-1.8310546875
0
-0.91552734375
-2.74658203125
-0.91552734375
-10.07080078125
-19.22607421875
-12.8173828125
-10.07080078125
-10.07080078125
-17.39501953125
-9.1552734375
-6.40869140625
-4.57763671875
-14.6484375
-13.73291015625
9.1552734375
-2.74658203125
-2.74658203125
-2.74658203125
-5.4931640625
-11.90185546875
-11.90185546875
-16.4794921875
-13.73291015625
-21.05712890625
-21.97265625
-29.296875
-32.04345703125
-25.634765625
-20.1416015625
-25.634765625
-23.8037109375
-24.71923828125
-18.310546875
-17.39501953125
-23.8037109375
-40.283203125
-49.4384765625
-41.19873046875
-33.87451171875
-30.21240234375
-32.04345703125
-25.634765625
-41.19873046875
-27.4658203125
-15.56396484375
-10.07080078125
-3.662109375
-6.40869140625
-14.6484375
-13.73291015625
-10.07080078125
-21.05712890625
-26.55029296875
-28.38134765625
-27.4658203125
-28.38134765625
-28.38134765625
-21.97265625
-20.1416015625
-21.97265625
-25.634765625
-18.310546875
-14.6484375
-17.39501953125
-21.05712890625
-23.8037109375
-36.62109375
-43.02978515625
-42.1142578125
-40.283203125
-32.04345703125
-29.296875
-37.53662109375
-30.21240234375
-22.88818359375
-24.71923828125
-27.4658203125
-38.4521484375
-30.21240234375
-36.62109375
-37.53662109375
-47.607421875
-35.70556640625
-17.39501953125
-30.21240234375
-25.634765625
-25.634765625
-23.8037109375
-26.55029296875
-35.70556640625
-31.1279296875
-32.04345703125
-40.283203125
-32.958984375
-35.70556640625
-33.87451171875
-32.04345703125
-32.958984375
-46.69189453125
-44.86083984375
-32.04345703125
-27.4658203125
-32.04345703125
-32.04345703125
-40.283203125
-33.87451171875
-36.62109375
-29.296875
-17.39501953125
1.8310546875
10.07080078125
12.8173828125
19.22607421875
9.1552734375
10.07080078125
25.634765625
17.39501953125
16.4794921875
25.634765625
33.87451171875
31.1279296875
45.7763671875
46.69189453125
52.18505859375
50.35400390625
50.35400390625
46.69189453125
43.9453125
44.86083984375
43.9453125
44.86083984375
44.86083984375
38.4521484375
21.97265625
31.1279296875
22.88818359375
17.39501953125
12.8173828125
12.8173828125
-3.662109375
-12.8173828125
-15.56396484375
-23.8037109375
-27.4658203125
-35.70556640625
-47.607421875
-32.958984375
-38.4521484375
-46.69189453125
-46.69189453125
-46.69189453125
-43.02978515625
-53.1005859375
-49.4384765625
-42.1142578125
-44.86083984375
-52.18505859375
-61.34033203125
-44.86083984375
-43.02978515625
-42.1142578125
-45.7763671875
-47.607421875
-45.7763671875
-34.7900390625
-43.02978515625
-46.69189453125
-35.70556640625
-44.86083984375
-43.9453125
-42.1142578125
-43.02978515625
-45.7763671875
-49.4384765625
-57.67822265625
-61.34033203125
-45.7763671875
-58.59375
-71.4111328125
-96.13037109375
-125.42724609375
-160.21728515625
-169.37255859375
-154.72412109375
-107.11669921875
-76.904296875
-32.04345703125
23.8037109375
79.65087890625
150.146484375
229.79736328125
304.87060546875
383.60595703125
502.62451171875
619.81201171875
718.68896484375
829.4677734375
860.595703125
814.8193359375
689.39208984375
514.5263671875
422.9736328125
366.2109375
287.4755859375
193.17626953125
136.41357421875
95.21484375
62.255859375
28.38134765625
14.6484375
9.1552734375
21.05712890625
43.9453125
51.26953125
50.35400390625
59.50927734375
52.18505859375
49.4384765625
43.02978515625
28.38134765625
16.4794921875
16.4794921875
10.986328125
0
10.986328125
19.22607421875
15.56396484375
20.1416015625
9.1552734375
9.1552734375
6.40869140625
3.662109375
4.57763671875
-3.662109375
0
-4.57763671875
3.662109375
14.6484375
-0.91552734375
6.40869140625
6.40869140625
7.32421875
15.56396484375
14.6484375
9.1552734375
6.40869140625
14.6484375
14.6484375
8.23974609375
11.90185546875
9.1552734375
21.97265625
27.4658203125
24.71923828125
29.296875
25.634765625
21.97265625
25.634765625
16.4794921875
37.53662109375
36.62109375
33.87451171875
41.19873046875
32.958984375
26.55029296875
28.38134765625
25.634765625
26.55029296875
32.958984375
28.38134765625
37.53662109375
43.02978515625
51.26953125
59.50927734375
59.50927734375
61.34033203125
60.4248046875
62.255859375
55.84716796875
63.17138671875
64.0869140625
63.17138671875
64.0869140625
70.49560546875
62.255859375
56.7626953125
61.34033203125
67.7490234375
75.0732421875
73.2421875
71.4111328125
65.91796875
68.66455078125
83.31298828125
101.62353515625
86.0595703125
97.0458984375
117.1875
116.27197265625
111.6943359375
113.525390625
117.1875
127.25830078125
136.41357421875
136.41357421875
140.9912109375
139.16015625
141.90673828125
140.9912109375
144.6533203125
148.3154296875
155.6396484375
170.2880859375
168.45703125
168.45703125
170.2880859375
169.37255859375
172.119140625
175.78125
180.35888671875
188.5986328125
189.51416015625
201.416015625
210.5712890625
216.97998046875
216.064453125
215.14892578125
220.64208984375
213.31787109375
218.81103515625
215.14892578125
210.5712890625
216.97998046875
228.8818359375
229.79736328125
230.712890625
216.97998046875
209.65576171875
185.85205078125
186.767578125
195.00732421875
171.20361328125
167.54150390625
156.55517578125
151.06201171875
134.58251953125
121.76513671875
107.11669921875
92.46826171875
84.228515625
77.81982421875
72.32666015625
57.67822265625
43.02978515625
35.70556640625
26.55029296875
16.4794921875
6.40869140625
-4.57763671875
-4.57763671875
-16.4794921875
-25.634765625
-14.6484375
-15.56396484375
-5.4931640625
-12.8173828125
-20.1416015625
-27.4658203125
-32.958984375
-28.38134765625
-26.55029296875
-22.88818359375
-11.90185546875
-23.8037109375
-30.21240234375
-26.55029296875
-27.4658203125
-31.1279296875
-29.296875
-33.87451171875
-31.1279296875
-31.1279296875
-32.04345703125
-28.38134765625
-33.87451171875
-36.62109375
-36.62109375
-43.02978515625
-34.7900390625
-26.55029296875
-20.1416015625
-16.4794921875
-18.310546875
-21.97265625
-22.88818359375
-32.958984375
-32.958984375
-36.62109375
-54.931640625
-44.86083984375
-32.04345703125
-40.283203125
-32.04345703125
-14.6484375
-10.986328125
-10.07080078125
-3.662109375
-16.4794921875
-21.05712890625
-24.71923828125
-24.71923828125
-29.296875
-24.71923828125
-18.310546875
-21.05712890625
-14.6484375
-23.8037109375
-41.19873046875
-16.4794921875
-10.986328125
-20.1416015625
-17.39501953125
-16.4794921875
-17.39501953125
-25.634765625
-32.04345703125
-35.70556640625
-36.62109375
-32.04345703125
-34.7900390625
-39.36767578125
-30.21240234375
-11.90185546875
-19.22607421875
-23.8037109375
-16.4794921875
-17.39501953125
-10.07080078125
-10.986328125
-16.4794921875
-24.71923828125
-24.71923828125
-25.634765625
-28.38134765625
-29.296875
-32.04345703125
-33.87451171875
-33.87451171875
-42.1142578125
-35.70556640625
-32.958984375
-32.958984375
-40.283203125
-33.87451171875
-34.7900390625
-32.958984375
-48.52294921875
-39.36767578125
-21.05712890625
-33.87451171875
-30.21240234375
-40.283203125
-33.87451171875
-33.87451171875
-39.36767578125
-40.283203125
-32.958984375
-30.21240234375
-38.4521484375
-45.7763671875
-44.86083984375
-53.1005859375
-54.931640625
-43.9453125
-43.02978515625
-40.283203125
-38.4521484375
-41.19873046875
-47.607421875
-48.52294921875
-56.7626953125
-49.4384765625
-48.52294921875
-52.18505859375
-58.59375
-58.59375
-56.7626953125
-52.18505859375
-52.18505859375
-50.35400390625
-50.35400390625
-47.607421875
-46.69189453125
-40.283203125
-48.52294921875
-50.35400390625
-40.283203125
-44.86083984375
-48.52294921875
-47.607421875
-50.35400390625
-54.01611328125
-62.255859375
-53.1005859375
-55.84716796875
-61.34033203125
-54.01611328125
-54.931640625
-45.7763671875
-41.19873046875
-44.86083984375
-42.1142578125
-43.9453125
-50.35400390625
-42.1142578125
-37.53662109375
-46.69189453125
-60.4248046875
-65.91796875
-68.66455078125
-63.17138671875
-49.4384765625
-41.19873046875
-40.283203125
-46.69189453125
-50.35400390625
-51.26953125
-56.7626953125
-58.59375
-67.7490234375
-61.34033203125
-57.67822265625
-56.7626953125
-50.35400390625
-53.1005859375
-48.52294921875
-43.9453125
-43.9453125
-46.69189453125
-38.4521484375
-42.1142578125
-58.59375
-53.1005859375
-54.01611328125
-55.84716796875
-47.607421875
-43.9453125
-50.35400390625
-47.607421875
-45.7763671875
-49.4384765625
-56.7626953125
-57.67822265625
-48.52294921875
-45.7763671875
-34.7900390625
-26.55029296875
-19.22607421875
-16.4794921875
-5.4931640625
-6.40869140625
-10.07080078125
4.57763671875
1.8310546875
-12.8173828125
-17.39501953125
-22.88818359375
-9.1552734375
8.23974609375
11.90185546875
20.1416015625
30.21240234375
36.62109375
37.53662109375
44.86083984375
46.69189453125
31.1279296875
36.62109375
31.1279296875
25.634765625
32.958984375
28.38134765625
17.39501953125
15.56396484375
18.310546875
3.662109375
-8.23974609375
-10.07080078125
-21.05712890625
-32.04345703125
-35.70556640625
-36.62109375
-35.70556640625
-37.53662109375
-39.36767578125
-47.607421875
-51.26953125
-55.84716796875
-52.18505859375
-56.7626953125
-51.26953125
-55.84716796875
-54.01611328125
-65.91796875
-68.66455078125
-58.59375
-61.34033203125
-56.7626953125
-57.67822265625
-55.84716796875
-54.931640625
-53.1005859375
-54.931640625
-60.4248046875
-55.84716796875
-54.931640625
-53.1005859375
-45.7763671875
-45.7763671875
-49.4384765625
-51.26953125
-50.35400390625
-51.26953125
-59.50927734375
-63.17138671875
-64.0869140625
-63.17138671875
-63.17138671875
-72.32666015625
-84.228515625
-110.77880859375
-152.89306640625
-186.767578125
-191.34521484375
-172.119140625
-130.0048828125
-92.46826171875
-37.53662109375
15.56396484375
83.31298828125
157.470703125
232.5439453125
314.94140625
405.57861328125
521.8505859375
634.46044921875
743.408203125
833.1298828125
838.623046875
766.29638671875
636.29150390625
490.72265625
407.40966796875
332.33642578125
248.10791015625
177.6123046875
112.60986328125
54.931640625
15.56396484375
6.40869140625
-3.662109375
2.74658203125
25.634765625
52.18505859375
52.18505859375
60.4248046875
71.4111328125
52.18505859375
34.7900390625
18.310546875
0.91552734375
-7.32421875
0.91552734375
7.32421875
2.74658203125
0
-2.74658203125
-2.74658203125
-20.1416015625
-22.88818359375
-13.73291015625
-19.22607421875
-29.296875
-23.8037109375
-10.07080078125
0.91552734375
9.1552734375
16.4794921875
10.07080078125
0
-7.32421875
-6.40869140625
2.74658203125
1.8310546875
2.74658203125
-10.986328125
-10.07080078125
2.74658203125
2.74658203125
0
0
14.6484375
16.4794921875
15.56396484375
4.57763671875
8.23974609375
21.97265625
29.296875
29.296875
29.296875
26.55029296875
32.958984375
26.55029296875
31.1279296875
34.7900390625
34.7900390625
35.70556640625
33.87451171875
33.87451171875
29.296875
24.71923828125
24.71923828125
30.21240234375
29.296875
39.36767578125
32.04345703125
34.7900390625
34.7900390625
36.62109375
44.86083984375
34.7900390625
38.4521484375
45.7763671875
45.7763671875
51.26953125
56.7626953125
55.84716796875
69.580078125
80.56640625
81.48193359375
80.56640625
72.32666015625
68.66455078125
72.32666015625
75.0732421875
70.49560546875
63.17138671875
85.14404296875
100.7080078125
99.79248046875
115.3564453125
116.27197265625
115.3564453125
126.3427734375
127.25830078125
133.6669921875
132.75146484375
132.75146484375
134.58251953125
130.0048828125
132.75146484375
135.498046875
130.0048828125
132.75146484375
150.146484375
165.71044921875
172.119140625
174.86572265625
178.52783203125
169.37255859375
173.9501953125
184.02099609375
193.17626953125
193.17626953125
200.50048828125
204.16259765625
200.50048828125
202.33154296875
209.65576171875
216.97998046875
208.740234375
205.99365234375
195.9228515625
209.65576171875
205.99365234375
189.51416015625
200.50048828125
210.5712890625
203.2470703125
195.00732421875
184.9365234375
177.6123046875
163.87939453125
162.9638671875
154.72412109375
144.6533203125
125.42724609375
111.6943359375
98.876953125
83.31298828125
68.66455078125
63.17138671875
64.0869140625
57.67822265625
43.02978515625
29.296875
20.1416015625
12.8173828125
12.8173828125
-2.74658203125
-14.6484375
-26.55029296875
-11.90185546875
-3.662109375
-10.986328125
-9.1552734375
-18.310546875
-25.634765625
-27.4658203125
-31.1279296875
-30.21240234375
-32.04345703125
-42.1142578125
-55.84716796875
-56.7626953125
-36.62109375
-47.607421875
-49.4384765625
-41.19873046875
-48.52294921875
-49.4384765625
-41.19873046875
-37.53662109375
-36.62109375
-35.70556640625
-38.4521484375
-37.53662109375
-27.4658203125
-16.4794921875
-30.21240234375
-38.4521484375
-36.62109375
-43.9453125
-35.70556640625
-33.87451171875
-30.21240234375
-31.1279296875
-29.296875
-32.958984375
-34.7900390625
-33.87451171875
-40.283203125
-33.87451171875
-25.634765625
-40.283203125
-42.1142578125
-21.05712890625
-21.05712890625
-27.4658203125
-24.71923828125
-21.05712890625
-23.8037109375
-24.71923828125
-22.88818359375
-33.87451171875
-36.62109375
-23.8037109375
-23.8037109375
-37.53662109375
-42.1142578125
-39.36767578125
-31.1279296875
-30.21240234375
-21.97265625
-25.634765625
-30.21240234375
-29.296875
-32.958984375
-37.53662109375
-43.02978515625
-41.19873046875
-32.958984375
-31.1279296875
-41.19873046875
-50.35400390625
-38.4521484375
-38.4521484375
-38.4521484375
-28.38134765625
-24.71923828125
-27.4658203125
-26.55029296875
-26.55029296875
-30.21240234375
-33.87451171875
-24.71923828125
-24.71923828125
-37.53662109375
-39.36767578125
-46.69189453125
-46.69189453125
-50.35400390625
-41.19873046875
-36.62109375
-33.87451171875
-31.1279296875
-33.87451171875
-31.1279296875
-39.36767578125
-40.283203125
-62.255859375
-59.50927734375
-53.1005859375
-61.34033203125
-55.84716796875
-47.607421875
-51.26953125
-56.7626953125
-48.52294921875
-47.607421875
-40.283203125
-45.7763671875
-52.18505859375
-52.18505859375
-51.26953125
-52.18505859375
-57.67822265625
-56.7626953125
-65.91796875
-67.7490234375
-65.91796875
-73.2421875
-74.15771484375
-83.31298828125
-83.31298828125
-73.2421875
-58.59375
-53.1005859375
-41.19873046875
-47.607421875
-54.01611328125
-50.35400390625
-54.931640625
-47.607421875
-61.34033203125
-52.18505859375
-43.02978515625
-44.86083984375
-43.9453125
-43.02978515625
-49.4384765625
-58.59375
-57.67822265625
-59.50927734375
-67.7490234375
-60.4248046875
-56.7626953125
-65.91796875
-60.4248046875
-55.84716796875
-60.4248046875
-61.34033203125
-60.4248046875
-54.931640625
-50.35400390625
-50.35400390625
-55.84716796875
-67.7490234375
-55.84716796875
-47.607421875
-58.59375
-54.01611328125
-59.50927734375
-65.00244140625
-65.00244140625
-61.34033203125
-63.17138671875
-71.4111328125
-64.0869140625
-58.59375
-44.86083984375
-54.01611328125
-55.84716796875
-64.0869140625
-64.0869140625
-64.0869140625
-75.98876953125
-71.4111328125
-72.32666015625
-78.7353515625
-88.80615234375
-68.66455078125
-61.34033203125
-67.7490234375
-64.0869140625
-54.931640625
-57.67822265625
-51.26953125
-52.18505859375
-59.50927734375
-64.0869140625
-64.0869140625
-60.4248046875
-57.67822265625
-49.4384765625
-45.7763671875
-48.52294921875
-43.9453125
-47.607421875
-46.69189453125
-42.1142578125
-45.7763671875
-33.87451171875
-14.6484375
-17.39501953125
-32.958984375
-22.88818359375
-24.71923828125
-25.634765625
-25.634765625
-22.88818359375
-17.39501953125
-9.1552734375
0
10.986328125
30.21240234375
30.21240234375
32.04345703125
37.53662109375
31.1279296875
21.05712890625
18.310546875
25.634765625
27.4658203125
23.8037109375
20.1416015625
14.6484375
4.57763671875
21.97265625
19.22607421875
7.32421875
-4.57763671875
-18.310546875
-13.73291015625
-21.97265625
-29.296875
-27.4658203125
-26.55029296875
-36.62109375
-43.9453125
-51.26953125
-56.7626953125
-60.4248046875
-51.26953125
-53.1005859375
-58.59375
-75.98876953125
-59.50927734375
-53.1005859375
-47.607421875
-54.01611328125
-70.49560546875
-68.66455078125
-49.4384765625
-56.7626953125
-65.00244140625
-65.91796875
-65.00244140625
-62.255859375
-70.49560546875
-65.91796875
-62.255859375
-70.49560546875
-69.580078125
-67.7490234375
-68.66455078125
-56.7626953125
-57.67822265625
-68.66455078125
-70.49560546875
-82.3974609375
-75.0732421875
-75.0732421875
-73.2421875
-87.890625
-108.0322265625
-135.498046875
-162.04833984375
-166.6259765625
-154.72412109375
-118.10302734375
-91.552734375
-20.1416015625
35.70556640625
86.0595703125
154.72412109375
241.69921875
314.94140625
394.59228515625
496.2158203125
606.99462890625
715.9423828125
830.38330078125
854.18701171875
803.8330078125
682.9833984375
514.5263671875
431.21337890625
373.53515625
290.22216796875
220.64208984375
140.07568359375
85.14404296875
50.35400390625
6.40869140625
-18.310546875
-13.73291015625
8.23974609375
35.70556640625
33.87451171875
32.04345703125
36.62109375
42.1142578125
50.35400390625
31.1279296875
18.310546875
15.56396484375
17.39501953125
14.6484375
5.4931640625
1.8310546875
5.4931640625
10.07080078125
-0.91552734375
-8.23974609375
13.73291015625
10.986328125
10.986328125
9.1552734375
2.74658203125
-8.23974609375
-8.23974609375
-10.986328125
-18.310546875
-12.8173828125
-11.90185546875
-13.73291015625
2.74658203125
0
3.662109375
3.662109375
10.07080078125
6.40869140625
9.1552734375
10.986328125
13.73291015625
3.662109375
-5.4931640625
4.57763671875
3.662109375
9.1552734375
14.6484375
21.05712890625
25.634765625
22.88818359375
26.55029296875
26.55029296875
26.55029296875
28.38134765625
24.71923828125
13.73291015625
27.4658203125
36.62109375
34.7900390625
30.21240234375
17.39501953125
23.8037109375
42.1142578125
39.36767578125
35.70556640625
36.62109375
40.283203125
47.607421875
43.02978515625
34.7900390625
27.4658203125
40.283203125
49.4384765625
55.84716796875
64.0869140625
77.81982421875
81.48193359375
75.98876953125
80.56640625
80.56640625
85.14404296875
71.4111328125
82.3974609375
86.97509765625
86.97509765625
93.3837890625
99.79248046875
103.45458984375
97.96142578125
97.0458984375
105.28564453125
114.44091796875
119.93408203125
119.0185546875
118.10302734375
129.08935546875
133.6669921875
130.92041015625
139.16015625
141.90673828125
141.90673828125
150.146484375
147.39990234375
144.6533203125
151.06201171875
158.38623046875
146.484375
162.9638671875
166.6259765625
178.52783203125
182.18994140625
191.34521484375
202.33154296875
211.48681640625
214.2333984375
209.65576171875
216.97998046875
216.97998046875
214.2333984375
208.740234375
211.48681640625
205.078125
206.9091796875
205.078125
204.16259765625
203.2470703125
197.75390625
184.02099609375
201.416015625
190.4296875
183.10546875
185.85205078125
180.35888671875
175.78125
172.119140625
156.55517578125
146.484375
133.6669921875
120.849609375
112.60986328125
107.11669921875
96.13037109375
91.552734375
78.7353515625
70.49560546875
63.17138671875
54.931640625
47.607421875
43.02978515625
35.70556640625
26.55029296875
19.22607421875
16.4794921875
3.662109375
-4.57763671875
-16.4794921875
1.8310546875
0
0
-1.8310546875
-3.662109375
0
5.4931640625
-5.4931640625
-5.4931640625
-16.4794921875
-16.4794921875
-7.32421875
-13.73291015625
-17.39501953125
-20.1416015625
-13.73291015625
-12.8173828125
-12.8173828125
-18.310546875
-15.56396484375
-21.97265625
-23.8037109375
-45.7763671875
-33.87451171875
-7.32421875
-20.1416015625
-23.8037109375
-10.986328125
-16.4794921875
-11.90185546875
0.91552734375
0.91552734375
-8.23974609375
-12.8173828125
7.32421875
-3.662109375
-10.986328125
-6.40869140625
3.662109375
-1.8310546875
-7.32421875
-18.310546875
-12.8173828125
-7.32421875
-3.662109375
-7.32421875
-16.4794921875
-21.97265625
-21.97265625
-7.32421875
-2.74658203125
4.57763671875
-1.8310546875
0
2.74658203125
-0.91552734375
-10.986328125
-13.73291015625
5.4931640625
0.91552734375
-8.23974609375
-9.1552734375
-14.6484375
-2.74658203125
3.662109375
7.32421875
3.662109375
7.32421875
-3.662109375
-12.8173828125
-7.32421875
1.8310546875
-13.73291015625
-10.07080078125
-2.74658203125
-11.90185546875
-8.23974609375
-10.07080078125
-10.07080078125
-10.07080078125
-6.40869140625
-4.57763671875
-18.310546875
-11.90185546875
-17.39501953125
-14.6484375
-20.1416015625
-21.05712890625
-33.87451171875
-28.38134765625
-23.8037109375
-21.97265625
-20.1416015625
-10.07080078125
-4.57763671875
-13.73291015625
-22.88818359375
-32.04345703125
-33.87451171875
-35.70556640625
-21.97265625
-20.1416015625
-22.88818359375
-31.1279296875
-10.986328125
-8.23974609375
-22.88818359375
-0.91552734375
-1.8310546875
-15.56396484375
-17.39501953125
-25.634765625
-17.39501953125
-22.88818359375
-20.1416015625
-26.55029296875
-26.55029296875
-20.1416015625
-21.97265625
-24.71923828125
-27.4658203125
-27.4658203125
-28.38134765625
-24.71923828125
-23.8037109375
-15.56396484375
-20.1416015625
-28.38134765625
-33.87451171875
-39.36767578125
-23.8037109375
-19.22607421875
-17.39501953125
-23.8037109375
-32.958984375
-29.296875
-27.4658203125
-20.1416015625
-20.1416015625
-12.8173828125
-25.634765625
-43.9453125
-41.19873046875
-22.88818359375
-21.05712890625
-23.8037109375
-30.21240234375
-34.7900390625
-32.958984375
-29.296875
-23.8037109375
-23.8037109375
-32.04345703125
-38.4521484375
-22.88818359375
-10.986328125
-21.97265625
-20.1416015625
-30.21240234375
-28.38134765625
-15.56396484375
-20.1416015625
-30.21240234375
-41.19873046875
-34.7900390625
-28.38134765625
-43.9453125
-44.86083984375
-33.87451171875
-21.97265625
-19.22607421875
-20.1416015625
-13.73291015625
-7.32421875
-11.90185546875
-19.22607421875
-17.39501953125
-16.4794921875
-9.1552734375
-5.4931640625
-3.662109375
10.07080078125
21.97265625
27.4658203125
11.90185546875
22.88818359375
43.9453125
41.19873046875
28.38134765625
20.1416015625
23.8037109375
35.70556640625
32.04345703125
34.7900390625
40.283203125
47.607421875
46.69189453125
51.26953125
54.01611328125
49.4384765625
55.84716796875
56.7626953125
54.931640625
45.7763671875
57.67822265625
54.931640625
37.53662109375
49.4384765625
42.1142578125
32.04345703125
40.283203125
33.87451171875
16.4794921875
10.986328125
6.40869140625
-9.1552734375
-16.4794921875
-17.39501953125
-23.8037109375
-20.1416015625
-21.05712890625
-24.71923828125
-23.8037109375
-27.4658203125
-29.296875
-30.21240234375
-27.4658203125
-32.958984375
-33.87451171875
-33.87451171875
-30.21240234375
-6.40869140625
-6.40869140625
-18.310546875
-10.986328125
-15.56396484375
-26.55029296875
-21.97265625
-21.97265625
-24.71923828125
-29.296875
-29.296875
-30.21240234375
-30.21240234375
-38.4521484375
-40.283203125
-51.26953125
-34.7900390625
-36.62109375
-43.9453125
-34.7900390625
-42.1142578125
-48.52294921875
-64.0869140625
-89.7216796875
-130.92041015625
-150.146484375
-150.146484375
-114.44091796875
-78.7353515625
-42.1142578125
4.57763671875
61.34033203125
124.51171875
199.5849609375
281.06689453125
379.0283203125
489.80712890625
622.55859375
736.99951171875
842.28515625
902.7099609375
870.66650390625
751.64794921875
582.275390625
469.66552734375
443.115234375
384.521484375
288.39111328125
197.75390625
140.07568359375
105.28564453125
65.91796875
48.52294921875
35.70556640625
21.97265625
43.02978515625
52.18505859375
70.49560546875
62.255859375
79.65087890625
75.98876953125
65.00244140625
42.1142578125
47.607421875
47.607421875
43.9453125
34.7900390625
27.4658203125
20.1416015625
28.38134765625
30.21240234375
27.4658203125
22.88818359375
27.4658203125
20.1416015625
19.22607421875
14.6484375
17.39501953125
22.88818359375
24.71923828125
24.71923828125
21.05712890625
29.296875
23.8037109375
23.8037109375
48.52294921875
41.19873046875
32.04345703125
20.1416015625
22.88818359375
18.310546875
11.90185546875
15.56396484375
30.21240234375
38.4521484375
40.283203125
66.83349609375
55.84716796875
47.607421875
53.1005859375
48.52294921875
49.4384765625
44.86083984375
50.35400390625
47.607421875
37.53662109375
41.19873046875
58.59375
50.35400390625
54.01611328125
60.4248046875
54.01611328125
61.34033203125
55.84716796875
65.00244140625
68.66455078125
58.59375
55.84716796875
55.84716796875
68.66455078125
72.32666015625
78.7353515625
81.48193359375
80.56640625
84.228515625
78.7353515625
77.81982421875
83.31298828125
70.49560546875
75.98876953125
69.580078125
71.4111328125
87.890625
93.3837890625
102.5390625
118.10302734375
119.0185546875
122.6806640625
115.3564453125
119.0185546875
113.525390625
117.1875
131.8359375
130.92041015625
132.75146484375
136.41357421875
135.498046875
127.25830078125
142.822265625
128.173828125
134.58251953125
155.6396484375
153.80859375
160.21728515625
162.04833984375
176.69677734375
180.35888671875
188.5986328125
179.443359375
185.85205078125
190.4296875
188.5986328125
192.2607421875
186.767578125
192.2607421875
201.416015625
204.16259765625
209.65576171875
216.064453125
216.97998046875
217.8955078125
218.81103515625
226.13525390625
232.5439453125
227.96630859375
224.30419921875
219.7265625
214.2333984375
198.66943359375
199.5849609375
202.33154296875
193.17626953125
192.2607421875
191.34521484375
178.52783203125
174.86572265625
165.71044921875
155.6396484375
147.39990234375
153.80859375
141.90673828125
131.8359375
119.93408203125
106.201171875
95.21484375
73.2421875
66.83349609375
60.4248046875
50.35400390625
29.296875
29.296875
27.4658203125
27.4658203125
26.55029296875
26.55029296875
36.62109375
24.71923828125
33.87451171875
30.21240234375
8.23974609375
6.40869140625
0
-3.662109375
-0.91552734375
-12.8173828125
-8.23974609375
-0.91552734375
-2.74658203125
-9.1552734375
-16.4794921875
-22.88818359375
-8.23974609375
-11.90185546875
-10.986328125
-4.57763671875
-10.07080078125
0
0.91552734375
-6.40869140625
-10.07080078125
-18.310546875
-9.1552734375
5.4931640625
-7.32421875
-12.8173828125
-14.6484375
-10.986328125
-21.05712890625
-14.6484375
-10.07080078125
-4.57763671875
-7.32421875
2.74658203125
3.662109375
2.74658203125
-6.40869140625
-5.4931640625
-13.73291015625
-32.958984375
-18.310546875
-4.57763671875
1.8310546875
10.07080078125
0.91552734375
2.74658203125
0.91552734375
3.662109375
6.40869140625
6.40869140625
3.662109375
2.74658203125
-3.662109375
-13.73291015625
-14.6484375
-13.73291015625
-1.8310546875
12.8173828125
20.1416015625
18.310546875
11.90185546875
11.90185546875
8.23974609375
2.74658203125
-5.4931640625
-4.57763671875
0.91552734375
-9.1552734375
-27.4658203125
-7.32421875
5.4931640625
-6.40869140625
-6.40869140625
-6.40869140625
-13.73291015625
-15.56396484375
-17.39501953125
-14.6484375
-12.8173828125
-12.8173828125
-19.22607421875
-21.05712890625
-24.71923828125
-23.8037109375
-22.88818359375
-33.87451171875
-33.87451171875
-40.283203125
-36.62109375
-11.90185546875
-11.90185546875
-17.39501953125
-6.40869140625
-9.1552734375
-19.22607421875
-21.05712890625
-21.05712890625
-31.1279296875
-28.38134765625
-31.1279296875
-25.634765625
-21.05712890625
-22.88818359375
-21.05712890625
-24.71923828125
-35.70556640625
-14.6484375
-10.986328125
-18.310546875
-13.73291015625
-30.21240234375
-43.02978515625
-32.958984375
-21.97265625
-15.56396484375
-18.310546875
-21.97265625
-22.88818359375
-21.05712890625
-21.05712890625
-20.1416015625
-32.958984375
-31.1279296875
-36.62109375
-46.69189453125
-48.52294921875
-53.1005859375
-46.69189453125
-34.7900390625
-21.97265625
-32.958984375
-27.4658203125
-31.1279296875
-32.04345703125
-32.04345703125
-40.283203125
-24.71923828125
-23.8037109375
-26.55029296875
-38.4521484375
-34.7900390625
-21.05712890625
-26.55029296875
-43.02978515625
-43.9453125
-27.4658203125
-26.55029296875
-33.87451171875
-50.35400390625
-43.02978515625
-39.36767578125
-37.53662109375
-44.86083984375
-48.52294921875
-33.87451171875
-38.4521484375
-41.19873046875
-44.86083984375
-41.19873046875
-35.70556640625
-41.19873046875
-52.18505859375
-49.4384765625
-42.1142578125
-38.4521484375
-31.1279296875
-25.634765625
-19.22607421875
-21.05712890625
-23.8037109375
-31.1279296875
-33.87451171875
-43.02978515625
-48.52294921875
-32.958984375
-43.02978515625
-48.52294921875
-50.35400390625
-45.7763671875
-31.1279296875
-37.53662109375
-30.21240234375
-17.39501953125
-19.22607421875
-2.74658203125
10.07080078125
9.1552734375
12.8173828125
15.56396484375
17.39501953125
16.4794921875
11.90185546875
16.4794921875
12.8173828125
14.6484375
43.02978515625
41.19873046875
38.4521484375
39.36767578125
44.86083984375
32.958984375
32.958984375
42.1142578125
44.86083984375
41.19873046875
46.69189453125
50.35400390625
57.67822265625
43.02978515625
34.7900390625
21.97265625
16.4794921875
14.6484375
-14.6484375
-29.296875
-27.4658203125
-15.56396484375
-28.38134765625
-34.7900390625
-36.62109375
-32.958984375
-32.04345703125
-43.02978515625
-46.69189453125
-54.931640625
-56.7626953125
-42.1142578125
-39.36767578125
-42.1142578125
-50.35400390625
-48.52294921875
-43.02978515625
-44.86083984375
-43.9453125
-46.69189453125
-63.17138671875
-39.36767578125
-45.7763671875
-54.931640625
-47.607421875
-42.1142578125
-46.69189453125
-62.255859375
-68.66455078125
-64.0869140625
-49.4384765625
-54.931640625
-68.66455078125
-58.59375
-46.69189453125
-62.255859375
-57.67822265625
-43.02978515625
-59.50927734375
-68.66455078125
-93.3837890625
-127.25830078125
-155.6396484375
-171.20361328125
-165.71044921875
-133.6669921875
-100.7080078125
-36.62109375
21.97265625
86.0595703125
165.71044921875
240.78369140625
315.85693359375
402.83203125
517.27294921875
635.3759765625
734.2529296875
840.4541015625
855.1025390625
806.57958984375
681.15234375
515.44189453125
425.72021484375
367.12646484375
292.05322265625
198.66943359375
142.822265625
81.48193359375
41.19873046875
15.56396484375
-3.662109375
2.74658203125
13.73291015625
27.4658203125
37.53662109375
34.7900390625
32.958984375
37.53662109375
32.04345703125
32.04345703125
22.88818359375
21.97265625
4.57763671875
-10.07080078125
5.4931640625
-3.662109375
-9.1552734375
-4.57763671875
4.57763671875
2.74658203125
4.57763671875
6.40869140625
-2.74658203125
-8.23974609375
3.662109375
0.91552734375
0
5.4931640625
11.90185546875
1.8310546875
8.23974609375
14.6484375
3.662109375
0
0.91552734375
9.1552734375
9.1552734375
1.8310546875
-11.90185546875
3.662109375
13.73291015625
11.90185546875
18.310546875
10.986328125
9.1552734375
12.8173828125
6.40869140625
4.57763671875
4.57763671875
6.40869140625
14.6484375
28.38134765625
36.62109375
32.958984375
22.88818359375
40.283203125
44.86083984375
39.36767578125
37.53662109375
40.283203125
44.86083984375
37.53662109375
33.87451171875
19.22607421875
39.36767578125
45.7763671875
41.19873046875
43.9453125
42.1142578125
47.607421875
52.18505859375
56.7626953125
53.1005859375
55.84716796875
60.4248046875
58.59375
60.4248046875
66.83349609375
69.580078125
72.32666015625
65.91796875
75.0732421875
84.228515625
75.98876953125
62.255859375
68.66455078125
66.83349609375
82.3974609375
87.890625
88.80615234375
97.0458984375
99.79248046875
117.1875
121.76513671875
114.44091796875
111.6943359375
115.3564453125
114.44091796875
122.6806640625
132.75146484375
142.822265625
162.9638671875
156.55517578125
164.794921875
170.2880859375
164.794921875
161.1328125
163.87939453125
168.45703125
175.78125
177.6123046875
186.767578125
193.17626953125
190.4296875
190.4296875
194.091796875
195.00732421875
205.99365234375
202.33154296875
200.50048828125
209.65576171875
209.65576171875
209.65576171875
207.82470703125
212.40234375
200.50048828125
203.2470703125
189.51416015625
181.2744140625
184.9365234375
182.18994140625
180.35888671875
173.9501953125
158.38623046875
153.80859375
136.41357421875
123.59619140625
117.1875
110.77880859375
101.62353515625
90.63720703125
75.98876953125
55.84716796875
42.1142578125
33.87451171875
27.4658203125
21.97265625
10.986328125
13.73291015625
4.57763671875
-10.07080078125
3.662109375
16.4794921875
2.74658203125
4.57763671875
-1.8310546875
-14.6484375
-5.4931640625
-23.8037109375
-24.71923828125
-27.4658203125
-30.21240234375
-17.39501953125
-22.88818359375
-27.4658203125
-36.62109375
-39.36767578125
-27.4658203125
-25.634765625
-32.958984375
-38.4521484375
-36.62109375
-36.62109375
-41.19873046875
-42.1142578125
-43.9453125
-33.87451171875
-52.18505859375
-44.86083984375
-38.4521484375
-48.52294921875
-42.1142578125
-37.53662109375
-39.36767578125
-34.7900390625
-33.87451171875
-38.4521484375
-32.958984375
-33.87451171875
-23.8037109375
-24.71923828125
-25.634765625
-26.55029296875
-22.88818359375
-14.6484375
-18.310546875
-21.05712890625
-21.97265625
-21.05712890625
-26.55029296875
-32.04345703125
-43.9453125
-21.05712890625
-24.71923828125
-31.1279296875
-26.55029296875
-24.71923828125
-25.634765625
-25.634765625
-24.71923828125
-22.88818359375
-21.05712890625
-19.22607421875
-30.21240234375
-49.4384765625
-47.607421875
-35.70556640625
-40.283203125
-31.1279296875
-33.87451171875
-26.55029296875
-34.7900390625
-49.4384765625
-48.52294921875
-40.283203125
-39.36767578125
-56.7626953125
-65.91796875
-71.4111328125
-61.34033203125
-27.4658203125
-30.21240234375
-26.55029296875
-26.55029296875
-34.7900390625
-35.70556640625
-38.4521484375
-34.7900390625
-38.4521484375
-35.70556640625
-32.958984375
-35.70556640625
-31.1279296875
-37.53662109375
-53.1005859375
-44.86083984375
-46.69189453125
-52.18505859375
-52.18505859375
-55.84716796875
-58.59375
-57.67822265625
-57.67822265625
-45.7763671875
-40.283203125
-37.53662109375
-47.607421875
-38.4521484375
-40.283203125
-36.62109375
-36.62109375
-54.01611328125
-56.7626953125
-51.26953125
-61.34033203125
-60.4248046875
-67.7490234375
-57.67822265625
-58.59375
-52.18505859375
-52.18505859375
-52.18505859375
-54.01611328125
-56.7626953125
-63.17138671875
-60.4248046875
-58.59375
-58.59375
-64.0869140625
-56.7626953125
-54.931640625
-57.67822265625
-55.84716796875
-69.580078125
-57.67822265625
-65.00244140625
-70.49560546875
-59.50927734375
-57.67822265625
-61.34033203125
-59.50927734375
-63.17138671875
-63.17138671875
-64.0869140625
-65.00244140625
-67.7490234375
-69.580078125
-66.83349609375
-65.91796875
-65.91796875
-65.00244140625
-68.66455078125
-65.00244140625
-67.7490234375
-63.17138671875
-74.15771484375
-86.97509765625
-81.48193359375
-64.0869140625
-68.66455078125
-69.580078125
-72.32666015625
-71.4111328125
-69.580078125
-64.0869140625
-54.01611328125
-50.35400390625
-55.84716796875
-61.34033203125
-54.01611328125
-58.59375
-64.0869140625
-57.67822265625
-59.50927734375
-63.17138671875
-65.00244140625
-69.580078125
-67.7490234375
-74.15771484375
-77.81982421875
-93.3837890625
-86.0595703125
-90.63720703125
-71.4111328125
-62.255859375
-53.1005859375
-52.18505859375
-54.01611328125
-57.67822265625
-52.18505859375
-51.26953125
-48.52294921875
-43.9453125
-38.4521484375
-30.21240234375
-34.7900390625
-35.70556640625
-28.38134765625
-34.7900390625
-39.36767578125
-38.4521484375
-41.19873046875
-23.8037109375
-8.23974609375
6.40869140625
14.6484375
16.4794921875
14.6484375
36.62109375
49.4384765625
41.19873046875
30.21240234375
30.21240234375
25.634765625
21.05712890625
16.4794921875
10.07080078125
17.39501953125
18.310546875
12.8173828125
-8.23974609375
-14.6484375
-17.39501953125
-30.21240234375
-44.86083984375
-64.0869140625
-58.59375
-63.17138671875
-68.66455078125
-71.4111328125
-53.1005859375
-48.52294921875
-49.4384765625
-59.50927734375
-63.17138671875
-69.580078125
-65.00244140625
-64.0869140625
-71.4111328125
-75.0732421875
-81.48193359375
-80.56640625
-76.904296875
-80.56640625
-94.29931640625
-95.21484375
-86.97509765625
-82.3974609375
-85.14404296875
-80.56640625
-74.15771484375
-76.904296875
-76.904296875
-68.66455078125
-72.32666015625
-65.91796875
-77.81982421875
-82.3974609375
-77.81982421875
-76.904296875
-69.580078125
-86.0595703125
-75.98876953125
-86.97509765625
-94.29931640625
-129.08935546875
-171.20361328125
-201.416015625
-213.31787109375
-192.2607421875
-153.80859375
-126.3427734375
-75.98876953125
-11.90185546875
55.84716796875
138.24462890625
227.05078125
303.955078125
395.5078125
514.5263671875
617.0654296875
728.759765625
820.3125
832.21435546875
759.8876953125
637.20703125
479.736328125
391.845703125
323.18115234375
253.60107421875
170.2880859375
103.45458984375
58.59375
18.310546875
-5.4931640625
-19.22607421875
-22.88818359375
-11.90185546875
17.39501953125
17.39501953125
20.1416015625
18.310546875
9.1552734375
-8.23974609375
-19.22607421875
-10.986328125
-23.8037109375
-15.56396484375
-27.4658203125
-37.53662109375
-38.4521484375
-36.62109375
-24.71923828125
-3.662109375
1.8310546875
-9.1552734375
-19.22607421875
-8.23974609375
-10.986328125
-14.6484375
-21.05712890625
-19.22607421875
-21.97265625
-24.71923828125
-28.38134765625
-21.05712890625
-17.39501953125
-19.22607421875
-15.56396484375
-20.1416015625
-15.56396484375
-10.986328125
-10.986328125
-11.90185546875
-10.986328125
-15.56396484375
-7.32421875
-10.986328125
-10.986328125
-10.07080078125
-13.73291015625
-24.71923828125
-12.8173828125
-11.90185546875
-12.8173828125
-6.40869140625
10.07080078125
5.4931640625
2.74658203125
5.4931640625
-1.8310546875
10.07080078125
10.986328125
10.986328125
14.6484375
5.4931640625
5.4931640625
8.23974609375
16.4794921875
19.22607421875
27.4658203125
39.36767578125
32.04345703125
25.634765625
32.04345703125
33.87451171875
25.634765625
42.1142578125
32.958984375
37.53662109375
33.87451171875
38.4521484375
37.53662109375
43.9453125
42.1142578125
43.02978515625
48.52294921875
48.52294921875
52.18505859375
58.59375
68.66455078125
67.7490234375
75.98876953125
65.91796875
67.7490234375
78.7353515625
74.15771484375
69.580078125
82.3974609375
94.29931640625
93.3837890625
96.13037109375
109.86328125
120.849609375
121.76513671875
99.79248046875
118.10302734375
139.16015625
136.41357421875
135.498046875
136.41357421875
137.3291015625
149.23095703125
159.3017578125
154.72412109375
150.146484375
153.80859375
166.6259765625
159.3017578125
169.37255859375
179.443359375
181.2744140625
177.6123046875
195.9228515625
196.83837890625
194.091796875
199.5849609375
196.83837890625
200.50048828125
197.75390625
201.416015625
194.091796875
173.9501953125
180.35888671875
174.86572265625
169.37255859375
159.3017578125
157.470703125
141.90673828125
133.6669921875
126.3427734375
116.27197265625
97.96142578125
84.228515625
78.7353515625
64.0869140625
53.1005859375
41.19873046875
26.55029296875
21.97265625
11.90185546875
3.662109375
0
-4.57763671875
-9.1552734375
-19.22607421875
-29.296875
-40.283203125
-40.283203125
-50.35400390625
-32.958984375
-25.634765625
-22.88818359375
-28.38134765625
-43.9453125
-45.7763671875
-51.26953125
-46.69189453125
-51.26953125
-55.84716796875
-58.59375
-62.255859375
-54.931640625
-53.1005859375
-49.4384765625
-53.1005859375
-53.1005859375
-55.84716796875
-62.255859375
-55.84716796875
-51.26953125
-52.18505859375
-47.607421875
-41.19873046875
-54.01611328125
-55.84716796875
-55.84716796875
-62.255859375
-68.66455078125
-39.36767578125
-39.36767578125
-40.283203125
-39.36767578125
-43.9453125
-43.9453125
-47.607421875
-56.7626953125
-55.84716796875
-53.1005859375
-60.4248046875
-60.4248046875
-60.4248046875
-56.7626953125
-59.50927734375
-53.1005859375
-45.7763671875
-58.59375
-55.84716796875
-56.7626953125
-44.86083984375
-33.87451171875
-32.04345703125
-32.04345703125
-29.296875
-33.87451171875
-37.53662109375
-44.86083984375
-50.35400390625
-29.296875
-34.7900390625
-35.70556640625
-37.53662109375
-39.36767578125
-46.69189453125
-59.50927734375
-55.84716796875
-52.18505859375
-55.84716796875
-59.50927734375
-66.83349609375
-54.01611328125
-46.69189453125
-57.67822265625
-51.26953125
-56.7626953125
-54.01611328125
-60.4248046875
-56.7626953125
-54.01611328125
-50.35400390625
-51.26953125
-61.34033203125
-63.17138671875
-47.607421875
-48.52294921875
-50.35400390625
-46.69189453125
-54.931640625
-54.01611328125
-56.7626953125
-54.931640625
-61.34033203125
-61.34033203125
-67.7490234375
-71.4111328125
-67.7490234375
-69.580078125
-77.81982421875
-79.65087890625
-77.81982421875
-67.7490234375
-61.34033203125
-59.50927734375
-67.7490234375
-58.59375
-58.59375
-57.67822265625
-64.0869140625
-65.00244140625
-69.580078125
-75.98876953125
-70.49560546875
-62.255859375
-65.00244140625
-57.67822265625
-57.67822265625
-49.4384765625
-50.35400390625
-63.17138671875
-55.84716796875
-62.255859375
-60.4248046875
-58.59375
-59.50927734375
-60.4248046875
-63.17138671875
-68.66455078125
-72.32666015625
-59.50927734375
-58.59375
-64.0869140625
-66.83349609375
-65.91796875
-67.7490234375
-77.81982421875
-91.552734375
-83.31298828125
-74.15771484375
-84.228515625
-87.890625
-90.63720703125
-93.3837890625
-84.228515625
-75.98876953125
-80.56640625
-78.7353515625
-79.65087890625
-86.97509765625
-73.2421875
-69.580078125
-56.7626953125
-64.0869140625
-65.91796875
-45.7763671875
-54.931640625
-60.4248046875
-57.67822265625
-66.83349609375
-75.98876953125
-72.32666015625
-82.3974609375
-78.7353515625
-86.0595703125
-81.48193359375
-63.17138671875
-69.580078125
-65.00244140625
-58.59375
-53.1005859375
-56.7626953125
-58.59375
-53.1005859375
-51.26953125
-64.0869140625
-73.2421875
-67.7490234375
-67.7490234375
-65.00244140625
-67.7490234375
-64.0869140625
-51.26953125
-47.607421875
-42.1142578125
-41.19873046875
-41.19873046875
-34.7900390625
-19.22607421875
-21.05712890625
-21.05712890625
-28.38134765625
-44.86083984375
-43.02978515625
-32.04345703125
-30.21240234375
-14.6484375
-7.32421875
0
1.8310546875
4.57763671875
14.6484375
32.04345703125
32.04345703125
28.38134765625
21.97265625
15.56396484375
22.88818359375
21.97265625
23.8037109375
26.55029296875
30.21240234375
13.73291015625
16.4794921875
2.74658203125
-5.4931640625
-19.22607421875
-42.1142578125
-48.52294921875
-66.83349609375
-65.00244140625
-60.4248046875
-58.59375
-48.52294921875
-46.69189453125
-53.1005859375
-66.83349609375
-67.7490234375
-67.7490234375
-60.4248046875
-57.67822265625
-55.84716796875
-64.0869140625
-66.83349609375
-68.66455078125
-65.00244140625
-69.580078125
-75.0732421875
-72.32666015625
-78.7353515625
-67.7490234375
-59.50927734375
-65.91796875
-54.931640625
-56.7626953125
-65.91796875
-78.7353515625
-86.97509765625
-82.3974609375
-84.228515625
-104.3701171875
-92.46826171875
-70.49560546875
-44.86083984375
-47.607421875
-55.84716796875
-69.580078125
-86.97509765625
-108.94775390625
-151.06201171875
-189.51416015625
-192.2607421875
-183.10546875
-147.39990234375
-97.96142578125
-43.9453125
11.90185546875
74.15771484375
151.9775390625
231.62841796875
308.53271484375
403.74755859375
512.6953125
636.29150390625
745.2392578125
840.4541015625
861.51123046875
797.42431640625
654.60205078125
486.14501953125
419.3115234375
366.2109375
282.89794921875
201.416015625
121.76513671875
66.83349609375
27.4658203125
9.1552734375
4.57763671875
-2.74658203125
6.40869140625
16.4794921875
25.634765625
28.38134765625
41.19873046875
37.53662109375
34.7900390625
7.32421875
11.90185546875
2.74658203125
2.74658203125
5.4931640625
0
0
-4.57763671875
0.91552734375
8.23974609375
7.32421875
3.662109375
3.662109375
3.662109375
-3.662109375
-9.1552734375
-20.1416015625
-13.73291015625
-4.57763671875
-6.40869140625
-4.57763671875
-5.4931640625
-5.4931640625
-6.40869140625
-13.73291015625
-15.56396484375
-12.8173828125
-8.23974609375
-7.32421875
-19.22607421875
3.662109375
11.90185546875
10.986328125
12.8173828125
19.22607421875
21.05712890625
14.6484375
18.310546875
25.634765625
17.39501953125
12.8173828125
10.986328125
11.90185546875
5.4931640625
6.40869140625
24.71923828125
29.296875
24.71923828125
31.1279296875
26.55029296875
26.55029296875
39.36767578125
37.53662109375
35.70556640625
37.53662109375
34.7900390625
32.958984375
48.52294921875
45.7763671875
43.02978515625
43.9453125
44.86083984375
47.607421875
54.01611328125
55.84716796875
44.86083984375
51.26953125
54.931640625
56.7626953125
66.83349609375
73.2421875
69.580078125
73.2421875
74.15771484375
74.15771484375
85.14404296875
97.96142578125
104.3701171875
92.46826171875
94.29931640625
92.46826171875
99.79248046875
105.28564453125
109.86328125
111.6943359375
118.10302734375
137.3291015625
133.6669921875
132.75146484375
143.73779296875
133.6669921875
140.9912109375
144.6533203125
154.72412109375
151.06201171875
155.6396484375
166.6259765625
157.470703125
158.38623046875
162.9638671875
169.37255859375
177.6123046875
190.4296875
195.9228515625
191.34521484375
187.68310546875
200.50048828125
207.82470703125
205.99365234375
211.48681640625
206.9091796875
190.4296875
196.83837890625
216.064453125
215.14892578125
216.97998046875
213.31787109375
205.99365234375
199.5849609375
194.091796875
185.85205078125
177.6123046875
175.78125
165.71044921875
160.21728515625
155.6396484375
157.470703125
146.484375
133.6669921875
118.10302734375
121.76513671875
113.525390625
100.7080078125
86.97509765625
65.91796875
70.49560546875
62.255859375
53.1005859375
42.1142578125
29.296875
32.04345703125
31.1279296875
7.32421875
0
3.662109375
3.662109375
10.07080078125
14.6484375
10.986328125
-2.74658203125
-9.1552734375
-13.73291015625
-19.22607421875
-13.73291015625
-10.07080078125
-8.23974609375
-6.40869140625
-14.6484375
-11.90185546875
-13.73291015625
-21.05712890625
-19.22607421875
-17.39501953125
-30.21240234375
-32.04345703125
-41.19873046875
-27.4658203125
-24.71923828125
-18.310546875
-10.07080078125
-4.57763671875
-6.40869140625
-10.986328125
-8.23974609375
-9.1552734375
-7.32421875
0
3.662109375
12.8173828125
3.662109375
-10.07080078125
-10.07080078125
-6.40869140625
-18.310546875
-12.8173828125
-4.57763671875
-12.8173828125
-17.39501953125
-14.6484375
-11.90185546875
-8.23974609375
-21.05712890625
-11.90185546875
-6.40869140625
-9.1552734375
-19.22607421875
-10.07080078125
-0.91552734375
-2.74658203125
2.74658203125
11.90185546875
5.4931640625
3.662109375
4.57763671875
-14.6484375
-13.73291015625
-12.8173828125
-14.6484375
-18.310546875
-18.310546875
-29.296875
-18.310546875
-10.07080078125
-7.32421875
-6.40869140625
-0.91552734375
-18.310546875
-23.8037109375
-21.05712890625
-16.4794921875
-12.8173828125
-22.88818359375
-43.9453125
-32.04345703125
-21.05712890625
-21.05712890625
1.8310546875
-6.40869140625
-8.23974609375
-9.1552734375
-15.56396484375
-18.310546875
-20.1416015625
-19.22607421875
-13.73291015625
-21.97265625
-32.04345703125
-25.634765625
-27.4658203125
-21.97265625
-26.55029296875
-28.38134765625
-28.38134765625
-21.97265625
-21.05712890625
-24.71923828125
-28.38134765625
-27.4658203125
-19.22607421875
-26.55029296875
-36.62109375
-46.69189453125
-27.4658203125
-31.1279296875
-34.7900390625
-29.296875
-25.634765625
-16.4794921875
-24.71923828125
-31.1279296875
-24.71923828125
-25.634765625
-34.7900390625
-43.9453125
-33.87451171875
-39.36767578125
-43.02978515625
-30.21240234375
-27.4658203125
-24.71923828125
-26.55029296875
-37.53662109375
-39.36767578125
-27.4658203125
-25.634765625
-26.55029296875
-19.22607421875
-26.55029296875
-43.02978515625
-40.283203125
-31.1279296875
-24.71923828125
-28.38134765625
-34.7900390625
-27.4658203125
-21.05712890625
-21.05712890625
-34.7900390625
-38.4521484375
-32.04345703125
-39.36767578125
-30.21240234375
-31.1279296875
-36.62109375
-31.1279296875
-37.53662109375
-34.7900390625
-33.87451171875
-41.19873046875
-43.02978515625
-43.9453125
-33.87451171875
-31.1279296875
-31.1279296875
-32.04345703125
-25.634765625
-21.05712890625
-20.1416015625
-19.22607421875
-21.05712890625
-19.22607421875
-10.07080078125
-20.1416015625
-19.22607421875
-23.8037109375
-30.21240234375
-13.73291015625
4.57763671875
5.4931640625
14.6484375
23.8037109375
20.1416015625
10.986328125
10.07080078125
10.07080078125
6.40869140625
10.986328125
9.1552734375
15.56396484375
36.62109375
46.69189453125
49.4384765625
50.35400390625
44.86083984375
66.83349609375
65.00244140625
54.931640625
52.18505859375
51.26953125
45.7763671875
36.62109375
54.01611328125
42.1142578125
49.4384765625
56.7626953125
34.7900390625
19.22607421875
9.1552734375
-0.91552734375
-20.1416015625
-7.32421875
-10.986328125
-20.1416015625
-17.39501953125
-20.1416015625
-24.71923828125
-29.296875
-21.97265625
-29.296875
-31.1279296875
-33.87451171875
-34.7900390625
-29.296875
-26.55029296875
-29.296875
-22.88818359375
-15.56396484375
-25.634765625
-29.296875
-39.36767578125
-46.69189453125
-38.4521484375
-48.52294921875
-43.02978515625
-37.53662109375
-35.70556640625
-33.87451171875
-33.87451171875
-49.4384765625
-65.00244140625
-42.1142578125
-43.9453125
-35.70556640625
-31.1279296875
-33.87451171875
-25.634765625
-20.1416015625
-27.4658203125
-49.4384765625
-79.65087890625
-107.11669921875
-140.07568359375
-161.1328125
-161.1328125
-140.07568359375
-98.876953125
-54.931640625
5.4931640625
70.49560546875
148.3154296875
221.5576171875
285.64453125
364.3798828125
467.83447265625
594.17724609375
713.19580078125
826.72119140625
884.3994140625
864.2578125
759.8876953125
593.26171875
466.00341796875
434.87548828125
392.76123046875
303.03955078125
222.47314453125
151.06201171875
100.7080078125
66.83349609375
43.9453125
17.39501953125
13.73291015625
23.8037109375
61.34033203125
55.84716796875
54.931640625
59.50927734375
61.34033203125
60.4248046875
43.02978515625
29.296875
43.02978515625
56.7626953125
48.52294921875
28.38134765625
36.62109375
29.296875
44.86083984375
41.19873046875
25.634765625
19.22607421875
10.07080078125
15.56396484375
15.56396484375
31.1279296875
22.88818359375
28.38134765625
42.1142578125
46.69189453125
38.4521484375
26.55029296875
21.97265625
22.88818359375
25.634765625
26.55029296875
30.21240234375
36.62109375
32.04345703125
32.04345703125
28.38134765625
15.56396484375
42.1142578125
50.35400390625
39.36767578125
38.4521484375
37.53662109375
39.36767578125
37.53662109375
49.4384765625
49.4384765625
43.02978515625
45.7763671875
43.02978515625
39.36767578125
39.36767578125
34.7900390625
48.52294921875
52.18505859375
54.01611328125
59.50927734375
59.50927734375
62.255859375
63.17138671875
69.580078125
65.91796875
69.580078125
79.65087890625
87.890625
75.0732421875
75.0732421875
86.0595703125
89.7216796875
78.7353515625
86.97509765625
88.80615234375
86.97509765625
86.0595703125
79.65087890625
80.56640625
82.3974609375
93.3837890625
92.46826171875
92.46826171875
86.0595703125
87.890625
108.0322265625
123.59619140625
130.0048828125
132.75146484375
125.42724609375
128.173828125
129.08935546875
127.25830078125
116.27197265625
116.27197265625
125.42724609375
140.07568359375
156.55517578125
154.72412109375
156.55517578125
159.3017578125
165.71044921875
158.38623046875
167.54150390625
167.54150390625
176.69677734375
181.2744140625
187.68310546875
194.091796875
195.9228515625
210.5712890625
205.99365234375
188.5986328125
197.75390625
208.740234375
211.48681640625
219.7265625
226.13525390625
214.2333984375
219.7265625
219.7265625
216.064453125
224.30419921875
205.99365234375
200.50048828125
198.66943359375
193.17626953125
196.83837890625
195.00732421875
184.02099609375
178.52783203125
165.71044921875
162.04833984375
166.6259765625
154.72412109375
145.56884765625
125.42724609375
119.93408203125
114.44091796875
110.77880859375
98.876953125
91.552734375
89.7216796875
94.29931640625
85.14404296875
74.15771484375
57.67822265625
42.1142578125
37.53662109375
25.634765625
29.296875
24.71923828125
22.88818359375
18.310546875
16.4794921875
16.4794921875
9.1552734375
13.73291015625
8.23974609375
6.40869140625
-5.4931640625
-7.32421875
-12.8173828125
1.8310546875
1.8310546875
-15.56396484375
-7.32421875
-15.56396484375
-14.6484375
-12.8173828125
-16.4794921875
-8.23974609375
-5.4931640625
-10.07080078125
-19.22607421875
-25.634765625
-12.8173828125
-8.23974609375
-5.4931640625
-9.1552734375
-13.73291015625
-20.1416015625
-12.8173828125
-8.23974609375
-1.8310546875
-1.8310546875
-11.90185546875
-3.662109375
-7.32421875
-10.986328125
-1.8310546875
3.662109375
-0.91552734375
-19.22607421875
-22.88818359375
-1.8310546875
7.32421875
8.23974609375
-3.662109375
1.8310546875
10.986328125
2.74658203125
0.91552734375
2.74658203125
0
1.8310546875
-2.74658203125
-3.662109375
-0.91552734375
1.8310546875
4.57763671875
-5.4931640625
1.8310546875
4.57763671875
-1.8310546875
-0.91552734375
1.8310546875
-4.57763671875
-8.23974609375
-20.1416015625
-18.310546875
-10.986328125
-9.1552734375
-23.8037109375
-14.6484375
-4.57763671875
-9.1552734375
-14.6484375
-25.634765625
-24.71923828125
-28.38134765625
-28.38134765625
-25.634765625
-25.634765625
-20.1416015625
-4.57763671875
-7.32421875
-13.73291015625
0
-10.986328125
-17.39501953125
-13.73291015625
-12.8173828125
-15.56396484375
-5.4931640625
-8.23974609375
-14.6484375
-10.986328125
-13.73291015625
-15.56396484375
-15.56396484375
-28.38134765625
-20.1416015625
-20.1416015625
-21.97265625
-13.73291015625
-18.310546875
-23.8037109375
-21.97265625
-32.04345703125
-24.71923828125
-32.04345703125
-50.35400390625
-53.1005859375
-57.67822265625
-47.607421875
-32.958984375
-36.62109375
-27.4658203125
-29.296875
-29.296875
-20.1416015625
-18.310546875
-19.22607421875
-23.8037109375
-17.39501953125
-12.8173828125
-15.56396484375
-16.4794921875
-27.4658203125
-25.634765625
-21.97265625
-26.55029296875
-27.4658203125
-24.71923828125
-36.62109375
-42.1142578125
-40.283203125
-35.70556640625
-37.53662109375
-42.1142578125
-37.53662109375
-31.1279296875
-31.1279296875
-32.04345703125
-35.70556640625
-30.21240234375
-24.71923828125
-24.71923828125
-24.71923828125
-32.04345703125
-37.53662109375
-38.4521484375
-32.958984375
-42.1142578125
-48.52294921875
-46.69189453125
-51.26953125
-26.55029296875
-34.7900390625
-28.38134765625
-26.55029296875
-25.634765625
-30.21240234375
-40.283203125
-39.36767578125
-32.04345703125
-39.36767578125
-35.70556640625
-25.634765625
-27.4658203125
-24.71923828125
-23.8037109375
-2.74658203125
11.90185546875
5.4931640625
6.40869140625
9.1552734375
10.07080078125
7.32421875
5.4931640625
12.8173828125
9.1552734375
21.05712890625
31.1279296875
33.87451171875
41.19873046875
39.36767578125
40.283203125
46.69189453125
36.62109375
34.7900390625
34.7900390625
34.7900390625
30.21240234375
43.9453125
43.02978515625
30.21240234375
25.634765625
21.97265625
8.23974609375
-6.40869140625
10.07080078125
29.296875
8.23974609375
-13.73291015625
-29.296875
-39.36767578125
-40.283203125
-28.38134765625
-26.55029296875
-40.283203125
-32.958984375
-29.296875
-26.55029296875
-24.71923828125
-19.22607421875
-17.39501953125
-28.38134765625
-26.55029296875
-32.04345703125
-46.69189453125
-47.607421875
-39.36767578125
-33.87451171875
-37.53662109375
-33.87451171875
-33.87451171875
-34.7900390625
-40.283203125
-45.7763671875
-40.283203125
-47.607421875
-47.607421875
-43.9453125
-54.931640625
-53.1005859375
-41.19873046875
-48.52294921875
-56.7626953125
-43.9453125
-40.283203125
-37.53662109375
-28.38134765625
-53.1005859375
-92.46826171875
-115.3564453125
-144.6533203125
-164.794921875
-151.9775390625
-118.10302734375
-75.98876953125
-46.69189453125
19.22607421875
73.2421875
130.0048828125
203.2470703125
271.91162109375
370.78857421875
479.736328125
597.83935546875
704.04052734375
809.326171875
864.2578125
836.7919921875
722.35107421875
559.38720703125
444.9462890625
387.26806640625
316.7724609375
218.81103515625
161.1328125
96.13037109375
65.00244140625
36.62109375
18.310546875
23.8037109375
23.8037109375
43.02978515625
64.0869140625
69.580078125
68.66455078125
64.0869140625
50.35400390625
30.21240234375
16.4794921875
21.05712890625
14.6484375
16.4794921875
13.73291015625
25.634765625
16.4794921875
15.56396484375
23.8037109375
20.1416015625
5.4931640625
-3.662109375
1.8310546875
8.23974609375
9.1552734375
12.8173828125
13.73291015625
15.56396484375
11.90185546875
17.39501953125
16.4794921875
12.8173828125
1.8310546875
19.22607421875
31.1279296875
21.97265625
25.634765625
13.73291015625
15.56396484375
19.22607421875
27.4658203125
25.634765625
19.22607421875
10.07080078125
7.32421875
10.986328125
12.8173828125
10.986328125
20.1416015625
27.4658203125
33.87451171875
29.296875
37.53662109375
37.53662109375
33.87451171875
31.1279296875
29.296875
31.1279296875
43.02978515625
41.19873046875
43.02978515625
51.26953125
54.931640625
50.35400390625
47.607421875
54.01611328125
52.18505859375
54.01611328125
54.01611328125
54.931640625
55.84716796875
54.931640625
56.7626953125
65.91796875
68.66455078125
58.59375
62.255859375
69.580078125
70.49560546875
72.32666015625
73.2421875
80.56640625
83.31298828125
89.7216796875
92.46826171875
89.7216796875
92.46826171875
92.46826171875
99.79248046875
93.3837890625
91.552734375
96.13037109375
98.876953125
109.86328125
109.86328125
130.92041015625
146.484375
151.9775390625
147.39990234375
148.3154296875
152.89306640625
164.794921875
170.2880859375
171.20361328125
160.21728515625
164.794921875
158.38623046875
162.9638671875
171.20361328125
183.10546875
193.17626953125
189.51416015625
170.2880859375
198.66943359375
205.078125
200.50048828125
216.97998046875
215.14892578125
206.9091796875
209.65576171875
205.078125
200.50048828125
213.31787109375
215.14892578125
215.14892578125
206.9091796875
200.50048828125
197.75390625
196.83837890625
187.68310546875
178.52783203125
170.2880859375
163.87939453125
154.72412109375
153.80859375
145.56884765625
133.6669921875
123.59619140625
110.77880859375
107.11669921875
98.876953125
89.7216796875
80.56640625
67.7490234375
56.7626953125
37.53662109375
25.634765625
23.8037109375
16.4794921875
7.32421875
-4.57763671875
-0.91552734375
-5.4931640625
-8.23974609375
-12.8173828125
-30.21240234375
-20.1416015625
-7.32421875
-10.07080078125
-14.6484375
-21.97265625
-20.1416015625
-20.1416015625
-10.986328125
-5.4931640625
-14.6484375
-17.39501953125
-23.8037109375
-22.88818359375
-30.21240234375
-25.634765625
-26.55029296875
-30.21240234375
-24.71923828125
-24.71923828125
-35.70556640625
-34.7900390625
-34.7900390625
-39.36767578125
-34.7900390625
-31.1279296875
-46.69189453125
-41.19873046875
-38.4521484375
-34.7900390625
-35.70556640625
-52.18505859375
-49.4384765625
-28.38134765625
-11.90185546875
5.4931640625
-3.662109375
-13.73291015625
-16.4794921875
-16.4794921875
-16.4794921875
-10.07080078125
-12.8173828125
-14.6484375
-10.986328125
-11.90185546875
-18.310546875
-13.73291015625
-15.56396484375
-11.90185546875
-18.310546875
-15.56396484375
-22.88818359375
-21.05712890625
-16.4794921875
-18.310546875
-16.4794921875
-13.73291015625
-12.8173828125
-10.07080078125
-8.23974609375
-10.986328125
-17.39501953125
-17.39501953125
-21.97265625
-32.04345703125
-33.87451171875
-28.38134765625
-29.296875
-29.296875
-43.02978515625
-35.70556640625
-33.87451171875
-32.958984375
-41.19873046875
-34.7900390625
-29.296875
-22.88818359375
-24.71923828125
-25.634765625
-22.88818359375
-21.05712890625
-29.296875
-31.1279296875
-30.21240234375
-35.70556640625
-41.19873046875
-34.7900390625
-36.62109375
-38.4521484375
-36.62109375
-40.283203125
-37.53662109375
-43.02978515625
-55.84716796875
-38.4521484375
-32.958984375
-35.70556640625
-27.4658203125
-31.1279296875
-37.53662109375
-31.1279296875
-39.36767578125
-51.26953125
-51.26953125
-47.607421875
-46.69189453125
-46.69189453125
-36.62109375
-40.283203125
-48.52294921875
-43.02978515625
-43.9453125
-36.62109375
-37.53662109375
-37.53662109375
-38.4521484375
-45.7763671875
-45.7763671875
-37.53662109375
-39.36767578125
-45.7763671875
-42.1142578125
-43.02978515625
-42.1142578125
-44.86083984375
-47.607421875
-40.283203125
-52.18505859375
-49.4384765625
-46.69189453125
-54.01611328125
-54.931640625
-60.4248046875
-53.1005859375
-45.7763671875
-53.1005859375
-47.607421875
-53.1005859375
-55.84716796875
-54.931640625
-53.1005859375
-60.4248046875
-50.35400390625
-48.52294921875
-51.26953125
-53.1005859375
-45.7763671875
-48.52294921875
-52.18505859375
-54.931640625
-49.4384765625
-49.4384765625
-52.18505859375
-48.52294921875
-54.931640625
-63.17138671875
-42.1142578125
-45.7763671875
-39.36767578125
-44.86083984375
-52.18505859375
-35.70556640625
-35.70556640625
-43.02978515625
-43.02978515625
-44.86083984375
-52.18505859375
-56.7626953125
-54.01611328125
-47.607421875
-45.7763671875
-43.02978515625
-43.02978515625
-52.18505859375
-44.86083984375
-40.283203125
-41.19873046875
-22.88818359375
-21.97265625
-10.986328125
-2.74658203125
-11.90185546875
-15.56396484375
-11.90185546875
-3.662109375
-8.23974609375
-2.74658203125
-2.74658203125
8.23974609375
28.38134765625
28.38134765625
17.39501953125
20.1416015625
44.86083984375
33.87451171875
43.9453125
44.86083984375
36.62109375
26.55029296875
21.05712890625
22.88818359375
22.88818359375
28.38134765625
19.22607421875
21.05712890625
6.40869140625
-3.662109375
-4.57763671875
-14.6484375
-30.21240234375
-28.38134765625
-27.4658203125
-38.4521484375
-35.70556640625
-41.19873046875
-53.1005859375
-50.35400390625
-46.69189453125
-49.4384765625
-45.7763671875
-54.01611328125
-59.50927734375
-57.67822265625
-54.01611328125
-52.18505859375
-47.607421875
-52.18505859375
-58.59375
-60.4248046875
-67.7490234375
-60.4248046875
-56.7626953125
-62.255859375
-65.91796875
-63.17138671875
-56.7626953125
-58.59375
-65.00244140625
-70.49560546875
-81.48193359375
-79.65087890625
-78.7353515625
-84.228515625
-85.14404296875
-71.4111328125
-63.17138671875
-56.7626953125
-53.1005859375
-61.34033203125
-87.890625
-88.80615234375
-125.42724609375
-153.80859375
-173.03466796875
-161.1328125
-108.94775390625
-75.98876953125
-28.38134765625
28.38134765625
83.31298828125
161.1328125
238.95263671875
322.265625
397.3388671875
498.96240234375
603.33251953125
713.19580078125
810.24169921875
834.9609375
774.5361328125
659.1796875
506.28662109375
431.21337890625
360.7177734375
282.89794921875
207.82470703125
146.484375
90.63720703125
46.69189453125
20.1416015625
9.1552734375
0.91552734375
19.22607421875
42.1142578125
51.26953125
55.84716796875
52.18505859375
53.1005859375
39.36767578125
22.88818359375
22.88818359375
7.32421875
-2.74658203125
-4.57763671875
1.8310546875
-10.986328125
-18.310546875
-13.73291015625
-12.8173828125
4.57763671875
9.1552734375
-2.74658203125
-4.57763671875
-11.90185546875
-13.73291015625
-17.39501953125
-11.90185546875
1.8310546875
-5.4931640625
-16.4794921875
-19.22607421875
-11.90185546875
4.57763671875
21.97265625
24.71923828125
24.71923828125
32.958984375
15.56396484375
18.310546875
9.1552734375
10.986328125
20.1416015625
15.56396484375
16.4794921875
21.97265625
21.05712890625
15.56396484375
20.1416015625
9.1552734375
11.90185546875
21.97265625
24.71923828125
29.296875
25.634765625
24.71923828125
36.62109375
31.1279296875
24.71923828125
21.05712890625
32.04345703125
20.1416015625
7.32421875
18.310546875
28.38134765625
37.53662109375
39.36767578125
37.53662109375
48.52294921875
40.283203125
37.53662109375
49.4384765625
48.52294921875
60.4248046875
69.580078125
60.4248046875
65.91796875
53.1005859375
57.67822265625
58.59375
55.84716796875
58.59375
77.81982421875
79.65087890625
80.56640625
80.56640625
97.96142578125
96.13037109375
95.21484375
108.94775390625
107.11669921875
100.7080078125
98.876953125
94.29931640625
101.62353515625
107.11669921875
119.0185546875
137.3291015625
140.07568359375
152.89306640625
155.6396484375
153.80859375
151.06201171875
152.89306640625
156.55517578125
159.3017578125
162.04833984375
164.794921875
174.86572265625
186.767578125
191.34521484375
193.17626953125
193.17626953125
197.75390625
199.5849609375
205.078125
201.416015625
208.740234375
206.9091796875
213.31787109375
204.16259765625
188.5986328125
209.65576171875
214.2333984375
210.5712890625
209.65576171875
195.9228515625
195.9228515625
189.51416015625
182.18994140625
184.02099609375
176.69677734375
174.86572265625
174.86572265625
170.2880859375
159.3017578125
151.9775390625
139.16015625
138.24462890625
110.77880859375
92.46826171875
81.48193359375
74.15771484375
66.83349609375
63.17138671875
54.931640625
44.86083984375
32.04345703125
32.958984375
25.634765625
23.8037109375
18.310546875
2.74658203125
1.8310546875
-6.40869140625
-9.1552734375
-16.4794921875
-20.1416015625
-25.634765625
-27.4658203125
-30.21240234375
-42.1142578125
-36.62109375
-27.4658203125
-31.1279296875
-37.53662109375
-32.958984375
-31.1279296875
-31.1279296875
-32.958984375
-33.87451171875
-25.634765625
-27.4658203125
-16.4794921875
-10.986328125
-24.71923828125
-23.8037109375
-32.04345703125
-37.53662109375
-43.02978515625
-45.7763671875
-33.87451171875
-40.283203125
-40.283203125
-35.70556640625
-38.4521484375
-33.87451171875
-27.4658203125
-22.88818359375
-16.4794921875
-22.88818359375
-32.958984375
-33.87451171875
-38.4521484375
-41.19873046875
-36.62109375
-30.21240234375
-31.1279296875
-35.70556640625
-39.36767578125
-30.21240234375
-28.38134765625
-19.22607421875
-16.4794921875
-21.05712890625
-25.634765625
-22.88818359375
-26.55029296875
-22.88818359375
-29.296875
-26.55029296875
-15.56396484375
-16.4794921875
-29.296875
-29.296875
-26.55029296875
-14.6484375
-10.986328125
-15.56396484375
-14.6484375
-17.39501953125
-22.88818359375
-13.73291015625
-12.8173828125
-18.310546875
-20.1416015625
-32.04345703125
-24.71923828125
-25.634765625
-32.958984375
-32.958984375
-34.7900390625
-32.04345703125
-31.1279296875
-37.53662109375
-34.7900390625
-33.87451171875
-34.7900390625
-34.7900390625
-35.70556640625
-40.283203125
-37.53662109375
-38.4521484375
-32.04345703125
-32.958984375
-36.62109375
-38.4521484375
-44.86083984375
-45.7763671875
-41.19873046875
-31.1279296875
-34.7900390625
-32.958984375
-37.53662109375
-43.02978515625
-44.86083984375
-43.02978515625
-47.607421875
-54.931640625
-42.1142578125
-48.52294921875
-53.1005859375
-49.4384765625
-48.52294921875
-45.7763671875
-49.4384765625
-57.67822265625
-54.931640625
-43.02978515625
-46.69189453125
-35.70556640625
-37.53662109375
-42.1142578125
-42.1142578125
-42.1142578125
-40.283203125
-39.36767578125
-47.607421875
-44.86083984375
-47.607421875
-52.18505859375
-50.35400390625
-58.59375
-66.83349609375
-62.255859375
-60.4248046875
-56.7626953125
-47.607421875
-56.7626953125
-51.26953125
-46.69189453125
-54.931640625
-51.26953125
-50.35400390625
-54.931640625
-54.931640625
-53.1005859375
-48.52294921875
-57.67822265625
-55.84716796875
-51.26953125
-57.67822265625
-64.0869140625
-68.66455078125
-84.228515625
-81.48193359375
-71.4111328125
-77.81982421875
-80.56640625
-79.65087890625
-57.67822265625
-53.1005859375
-53.1005859375
-48.52294921875
-54.931640625
-61.34033203125
-43.02978515625
-32.958984375
-34.7900390625
-32.958984375
-35.70556640625
-43.9453125
-54.931640625
-54.931640625
-45.7763671875
-44.86083984375
-42.1142578125
-40.283203125
-28.38134765625
-25.634765625
-36.62109375
-38.4521484375
-41.19873046875
-37.53662109375
-32.04345703125
-29.296875
-27.4658203125
-14.6484375
-16.4794921875
-12.8173828125
-10.986328125
-7.32421875
-10.07080078125
-11.90185546875
-13.73291015625
-15.56396484375
-3.662109375
2.74658203125
13.73291015625
21.05712890625
28.38134765625
21.97265625
29.296875
33.87451171875
28.38134765625
23.8037109375
21.05712890625
13.73291015625
10.07080078125
16.4794921875
11.90185546875
14.6484375
8.23974609375
4.57763671875
-10.986328125
-23.8037109375
-31.1279296875
-36.62109375
-51.26953125
-52.18505859375
-50.35400390625
-48.52294921875
-49.4384765625
-40.283203125
-28.38134765625
-31.1279296875
-30.21240234375
-36.62109375
-38.4521484375
-34.7900390625
-43.9453125
-52.18505859375
-61.34033203125
-52.18505859375
-61.34033203125
-59.50927734375
-74.15771484375
-84.228515625
-62.255859375
-61.34033203125
-75.98876953125
-84.228515625
-94.29931640625
-75.0732421875
-66.83349609375
-73.2421875
-76.904296875
-80.56640625
-67.7490234375
-56.7626953125
-64.0869140625
-69.580078125
-73.2421875
-66.83349609375
-65.91796875
-81.48193359375
-71.4111328125
-81.48193359375
-97.0458984375
-125.42724609375
-157.470703125
-176.69677734375
-187.68310546875
-175.78125
-122.6806640625
-81.48193359375
-32.958984375
14.6484375
77.81982421875
160.21728515625
225.2197265625
303.03955078125
399.169921875
510.8642578125
611.572265625
710.44921875
805.6640625
822.1435546875
768.12744140625
652.77099609375
490.72265625
400.08544921875
330.50537109375
253.60107421875
192.2607421875
131.8359375
76.904296875
40.283203125
20.1416015625
3.662109375
2.74658203125
0
25.634765625
30.21240234375
24.71923828125
25.634765625
26.55029296875
21.97265625
19.22607421875
18.310546875
13.73291015625
12.8173828125
0.91552734375
-3.662109375
0.91552734375
-0.91552734375
-1.8310546875
-4.57763671875
-10.07080078125
-11.90185546875
-12.8173828125
-21.97265625
-24.71923828125
-20.1416015625
-16.4794921875
-6.40869140625
-1.8310546875
-15.56396484375
-19.22607421875
-16.4794921875
-7.32421875
-4.57763671875
0.91552734375
-3.662109375
3.662109375
2.74658203125
-3.662109375
-1.8310546875
-3.662109375
4.57763671875
10.986328125
13.73291015625
1.8310546875
-12.8173828125
-16.4794921875
-14.6484375
-2.74658203125
13.73291015625
21.97265625
24.71923828125
22.88818359375
21.97265625
23.8037109375
21.05712890625
23.8037109375
21.97265625
18.310546875
22.88818359375
22.88818359375
28.38134765625
38.4521484375
42.1142578125
29.296875
37.53662109375
43.9453125
34.7900390625
54.931640625
50.35400390625
41.19873046875
43.02978515625
44.86083984375
50.35400390625
52.18505859375
56.7626953125
49.4384765625
52.18505859375
53.1005859375
57.67822265625
60.4248046875
63.17138671875
54.931640625
55.84716796875
60.4248046875
69.580078125
86.0595703125
86.97509765625
93.3837890625
97.96142578125
102.5390625
101.62353515625
96.13037109375
102.5390625
103.45458984375
100.7080078125
102.5390625
104.3701171875
112.60986328125
113.525390625
133.6669921875
147.39990234375
152.89306640625
159.3017578125
153.80859375
151.9775390625
158.38623046875
155.6396484375
164.794921875
171.20361328125
164.794921875
166.6259765625
164.794921875
171.20361328125
181.2744140625
183.10546875
189.51416015625
180.35888671875
196.83837890625
218.81103515625
205.078125
203.2470703125
204.16259765625
199.5849609375
206.9091796875
216.064453125
201.416015625
196.83837890625
198.66943359375
188.5986328125
190.4296875
186.767578125
165.71044921875
162.9638671875
146.484375
133.6669921875
116.27197265625
100.7080078125
99.79248046875
99.79248046875
108.0322265625
88.80615234375
70.49560546875
72.32666015625
61.34033203125
55.84716796875
40.283203125
40.283203125
36.62109375
31.1279296875
31.1279296875
20.1416015625
3.662109375
-0.91552734375
-11.90185546875
-18.310546875
-10.986328125
-18.310546875
-14.6484375
-23.8037109375
-38.4521484375
-29.296875
-33.87451171875
-32.958984375
-28.38134765625
-32.04345703125
-21.97265625
-21.05712890625
-27.4658203125
-30.21240234375
-30.21240234375
-33.87451171875
-33.87451171875
-32.958984375
-30.21240234375
-45.7763671875
-48.52294921875
-34.7900390625
-39.36767578125
-36.62109375
-28.38134765625
-24.71923828125
-32.958984375
-30.21240234375
-32.958984375
-24.71923828125
-27.4658203125
-28.38134765625
-31.1279296875
-35.70556640625
-35.70556640625
-37.53662109375
-36.62109375
-37.53662109375
-35.70556640625
-31.1279296875
-28.38134765625
-24.71923828125
-26.55029296875
-24.71923828125
-23.8037109375
-25.634765625
-24.71923828125
-24.71923828125
-21.97265625
-25.634765625
-36.62109375
-32.04345703125
-18.310546875
-23.8037109375
-22.88818359375
-30.21240234375
-32.958984375
-21.05712890625
-27.4658203125
-54.01611328125
-38.4521484375
-21.97265625
-18.310546875
-33.87451171875
-33.87451171875
-31.1279296875
-17.39501953125
-29.296875
-21.05712890625
-20.1416015625
-16.4794921875
-18.310546875
-25.634765625
-27.4658203125
-27.4658203125
-26.55029296875
-29.296875
-21.97265625
-26.55029296875
-35.70556640625
-25.634765625
-28.38134765625
-26.55029296875
-24.71923828125
-25.634765625
-33.87451171875
-37.53662109375
-36.62109375
-38.4521484375
-43.02978515625
-41.19873046875
-42.1142578125
-29.296875
-31.1279296875
-25.634765625
-28.38134765625
-26.55029296875
-34.7900390625
-35.70556640625
-38.4521484375
-28.38134765625
-50.35400390625
-65.00244140625
-53.1005859375
-55.84716796875
-69.580078125
-68.66455078125
-57.67822265625
-48.52294921875
-44.86083984375
-41.19873046875
-35.70556640625
-33.87451171875
-32.958984375
-35.70556640625
-21.97265625
-39.36767578125
-43.9453125
-38.4521484375
-43.02978515625
-40.283203125
-45.7763671875
-35.70556640625
-31.1279296875
-31.1279296875
-32.958984375
-40.283203125
-44.86083984375
-43.02978515625
-43.02978515625
-37.53662109375
-36.62109375
-42.1142578125
-33.87451171875
-42.1142578125
-43.9453125
-30.21240234375
-32.04345703125
-34.7900390625
-41.19873046875
-57.67822265625
-46.69189453125
-37.53662109375
-48.52294921875
-47.607421875
-55.84716796875
-59.50927734375
-52.18505859375
-63.17138671875
-62.255859375
-54.01611328125
-52.18505859375
-40.283203125
-30.21240234375
-23.8037109375
-27.4658203125
-29.296875
-32.958984375
-22.88818359375
-32.04345703125
-27.4658203125
-37.53662109375
-37.53662109375
-45.7763671875
-52.18505859375
-61.34033203125
-48.52294921875
-56.7626953125
-43.02978515625
-48.52294921875
-53.1005859375
-52.18505859375
-49.4384765625
-34.7900390625
-45.7763671875
-44.86083984375
-44.86083984375
-48.52294921875
-52.18505859375
-24.71923828125
-0.91552734375
10.07080078125
5.4931640625
11.90185546875
5.4931640625
0
-5.4931640625
-4.57763671875
-9.1552734375
-11.90185546875
4.57763671875
22.88818359375
29.296875
29.296875
48.52294921875
63.17138671875
64.0869140625
53.1005859375
51.26953125
44.86083984375
24.71923828125
32.958984375
43.9453125
32.04345703125
43.9453125
35.70556640625
12.8173828125
15.56396484375
12.8173828125
-4.57763671875
-12.8173828125
-22.88818359375
-23.8037109375
-32.958984375
-37.53662109375
-34.7900390625
-37.53662109375
-49.4384765625
-53.1005859375
-40.283203125
-44.86083984375
-54.931640625
-68.66455078125
-69.580078125
-68.66455078125
-61.34033203125
-61.34033203125
-46.69189453125
-40.283203125
-42.1142578125
-40.283203125
-44.86083984375
-43.02978515625
-43.02978515625
-52.18505859375
-47.607421875
-53.1005859375
-57.67822265625
-45.7763671875
-48.52294921875
-52.18505859375
-52.18505859375
-53.1005859375
-52.18505859375
-65.00244140625
-62.255859375
-51.26953125
-58.59375
-47.607421875
-47.607421875
-63.17138671875
-77.81982421875
-114.44091796875
-160.21728515625
-191.34521484375
-185.85205078125
-155.6396484375
-119.93408203125
-91.552734375
-32.04345703125
40.283203125
103.45458984375
188.5986328125
267.333984375
340.576171875
433.04443359375
539.24560546875
654.60205078125
766.29638671875
854.18701171875
870.66650390625
811.1572265625
666.50390625
498.96240234375
431.21337890625
391.845703125
318.603515625
227.05078125
156.55517578125
99.79248046875
71.4111328125
38.4521484375
18.310546875
22.88818359375
12.8173828125
28.38134765625
48.52294921875
54.931640625
50.35400390625
43.02978515625
44.86083984375
34.7900390625
22.88818359375
8.23974609375
3.662109375
-5.4931640625
6.40869140625
-0.91552734375
5.4931640625
8.23974609375
0.91552734375
-5.4931640625
3.662109375
1.8310546875
5.4931640625
10.07080078125
9.1552734375
0
3.662109375
0.91552734375
-1.8310546875
7.32421875
6.40869140625
11.90185546875
15.56396484375
22.88818359375
24.71923828125
15.56396484375
11.90185546875
3.662109375
5.4931640625
10.07080078125
-11.90185546875
3.662109375
14.6484375
11.90185546875
16.4794921875
16.4794921875
21.05712890625
17.39501953125
18.310546875
22.88818359375
21.97265625
17.39501953125
21.05712890625
26.55029296875
21.05712890625
10.986328125
16.4794921875
15.56396484375
21.05712890625
43.02978515625
44.86083984375
35.70556640625
34.7900390625
44.86083984375
48.52294921875
47.607421875
49.4384765625
52.18505859375
45.7763671875
40.283203125
47.607421875
51.26953125
55.84716796875
63.17138671875
64.0869140625
64.0869140625
65.91796875
72.32666015625
76.904296875
86.97509765625
82.3974609375
84.228515625
77.81982421875
62.255859375
87.890625
88.80615234375
83.31298828125
86.97509765625
86.0595703125
87.890625
89.7216796875
95.21484375
105.28564453125
104.3701171875
115.3564453125
116.27197265625
130.92041015625
136.41357421875
140.07568359375
128.173828125
134.58251953125
136.41357421875
134.58251953125
139.16015625
141.90673828125
141.90673828125
146.484375
163.87939453125
166.6259765625
171.20361328125
184.9365234375
185.85205078125
180.35888671875
186.767578125
193.17626953125
204.16259765625
195.9228515625
205.078125
203.2470703125
201.416015625
200.50048828125
206.9091796875
190.4296875
192.2607421875
197.75390625
204.16259765625
200.50048828125
200.50048828125
196.83837890625
172.119140625
157.470703125
148.3154296875
153.80859375
147.39990234375
138.24462890625
119.93408203125
98.876953125
102.5390625
94.29931640625
83.31298828125
75.0732421875
65.00244140625
54.01611328125
43.02978515625
43.02978515625
23.8037109375
17.39501953125
21.05712890625
16.4794921875
4.57763671875
9.1552734375
5.4931640625
11.90185546875
12.8173828125
0.91552734375
-7.32421875
-18.310546875
-24.71923828125
-29.296875
-31.1279296875
-21.05712890625
-23.8037109375
-37.53662109375
-44.86083984375
-33.87451171875
-32.958984375
-34.7900390625
-31.1279296875
-34.7900390625
-28.38134765625
-12.8173828125
-24.71923828125
-27.4658203125
-28.38134765625
-32.04345703125
-35.70556640625
-29.296875
-29.296875
-26.55029296875
-26.55029296875
-24.71923828125
-31.1279296875
-33.87451171875
-28.38134765625
-23.8037109375
-32.958984375
-37.53662109375
-31.1279296875
-33.87451171875
-35.70556640625
-39.36767578125
-43.9453125
-37.53662109375
-36.62109375
-30.21240234375
-27.4658203125
-36.62109375
-37.53662109375
-41.19873046875
-31.1279296875
-29.296875
-31.1279296875
-27.4658203125
-19.22607421875
-16.4794921875
-18.310546875
-16.4794921875
-23.8037109375
-23.8037109375
-30.21240234375
-45.7763671875
-23.8037109375
-11.90185546875
-15.56396484375
-21.97265625
-27.4658203125
-24.71923828125
-27.4658203125
-31.1279296875
-34.7900390625
-30.21240234375
-32.04345703125
-36.62109375
-33.87451171875
-18.310546875
-28.38134765625
-30.21240234375
-32.04345703125
-25.634765625
-21.97265625
-18.310546875
-14.6484375
-23.8037109375
-25.634765625
-26.55029296875
-33.87451171875
-33.87451171875
-21.97265625
-34.7900390625
-40.283203125
-27.4658203125
-28.38134765625
-32.958984375
-35.70556640625
-38.4521484375
-41.19873046875
-42.1142578125
-48.52294921875
-49.4384765625
-45.7763671875
-49.4384765625
-54.931640625
-51.26953125
-51.26953125
-56.7626953125
-51.26953125
-48.52294921875
-38.4521484375
-27.4658203125
-28.38134765625
-31.1279296875
-34.7900390625
-40.283203125
-43.9453125
-38.4521484375
-45.7763671875
-43.9453125
-65.91796875
-70.49560546875
-60.4248046875
-64.0869140625
-56.7626953125
-62.255859375
-54.01611328125
-46.69189453125
-42.1142578125
-29.296875
-38.4521484375
-39.36767578125
-39.36767578125
-41.19873046875
-55.84716796875
-61.34033203125
-62.255859375
-57.67822265625
-55.84716796875
-45.7763671875
-62.255859375
-60.4248046875
-53.1005859375
-43.9453125
-46.69189453125
-47.607421875
-46.69189453125
-46.69189453125
-41.19873046875
-43.02978515625
-50.35400390625
-57.67822265625
-63.17138671875
-65.00244140625
-59.50927734375
-58.59375
-56.7626953125
-54.01611328125
-57.67822265625
-55.84716796875
-68.66455078125
-68.66455078125
-79.65087890625
-65.00244140625
-70.49560546875
-57.67822265625
-32.04345703125
-40.283203125
-52.18505859375
-46.69189453125
-51.26953125
-56.7626953125
-46.69189453125
-51.26953125
-53.1005859375
-52.18505859375
-54.931640625
-62.255859375
-51.26953125
-47.607421875
-44.86083984375
-43.9453125
-34.7900390625
-28.38134765625
-14.6484375
-11.90185546875
-10.07080078125
-16.4794921875
-9.1552734375
-1.8310546875
-6.40869140625
-12.8173828125
-14.6484375
-10.07080078125
0.91552734375
1.8310546875
16.4794921875
4.57763671875
-0.91552734375
0
10.986328125
14.6484375
18.310546875
24.71923828125
29.296875
35.70556640625
26.55029296875
27.4658203125
25.634765625
20.1416015625
19.22607421875
8.23974609375
-0.91552734375
-12.8173828125
-29.296875
-26.55029296875
-27.4658203125
-35.70556640625
-49.4384765625
-47.607421875
-53.1005859375
-49.4384765625
-50.35400390625
-54.931640625
-54.01611328125
-59.50927734375
-75.98876953125
-70.49560546875
-70.49560546875
-68.66455078125
-71.4111328125
-57.67822265625
-55.84716796875
-51.26953125
-56.7626953125
-65.91796875
-67.7490234375
-66.83349609375
-65.00244140625
-65.91796875
-70.49560546875
-72.32666015625
-84.228515625
-71.4111328125
-77.81982421875
-78.7353515625
-77.81982421875
-75.0732421875
-67.7490234375
-69.580078125
-81.48193359375
-69.580078125
-67.7490234375
-84.228515625
-84.228515625
-84.228515625
-117.1875
-148.3154296875
-182.18994140625
-184.9365234375
-177.6123046875
-138.24462890625
-110.77880859375
-61.34033203125
5.4931640625
68.66455078125
147.39990234375
226.13525390625
316.7724609375
405.57861328125
516.357421875
627.13623046875
726.9287109375
814.8193359375
844.1162109375
786.43798828125
647.27783203125
487.060546875
402.83203125
333.251953125
260.92529296875
185.85205078125
122.6806640625
69.580078125
23.8037109375
9.1552734375
3.662109375
1.8310546875
13.73291015625
34.7900390625
43.02978515625
36.62109375
47.607421875
39.36767578125
23.8037109375
7.32421875
20.1416015625
21.05712890625
4.57763671875
10.07080078125
-1.8310546875
-6.40869140625
-10.07080078125
-15.56396484375
-12.8173828125
-12.8173828125
-8.23974609375
-16.4794921875
-17.39501953125
-20.1416015625
-12.8173828125
-8.23974609375
-8.23974609375
-4.57763671875
0.91552734375
-3.662109375
-5.4931640625
-3.662109375
0.91552734375
-8.23974609375
-7.32421875
-5.4931640625
