ECG
71.4111328125
79.65087890625
71.4111328125
69.580078125
68.66455078125
67.7490234375
58.59375
54.931640625
50.35400390625
37.53662109375
41.19873046875
41.19873046875
43.9453125
45.7763671875
42.1142578125
39.36767578125
43.02978515625
36.62109375
35.70556640625
38.4521484375
39.36767578125
45.7763671875
44.86083984375
44.86083984375
43.9453125
47.607421875
55.84716796875
50.35400390625
52.18505859375
63.17138671875
52.18505859375
40.283203125
25.634765625
12.8173828125
14.6484375
43.02978515625
97.96142578125
210.5712890625
353.3935546875
477.9052734375
610.65673828125
754.39453125
924.6826171875
1104.1259765625
1256.103515625
1384.27734375
1464.84375
1475.830078125
1430.0537109375
1305.5419921875
1048.27880859375
786.43798828125
635.3759765625
506.28662109375
400.08544921875
325.927734375
296.630859375
267.333984375
248.10791015625
218.81103515625
205.078125
188.5986328125
170.2880859375
155.6396484375
157.470703125
151.06201171875
172.119140625
184.02099609375
193.17626953125
195.00732421875
188.5986328125
190.4296875
171.20361328125
163.87939453125
161.1328125
151.9775390625
146.484375
146.484375
149.23095703125
151.06201171875
143.73779296875
145.56884765625
149.23095703125
149.23095703125
144.6533203125
152.89306640625
158.38623046875
152.89306640625
151.06201171875
156.55517578125
162.04833984375
160.21728515625
173.03466796875
171.20361328125
173.03466796875
168.45703125
164.794921875
167.54150390625
173.03466796875
176.69677734375
177.6123046875
181.2744140625
184.9365234375
185.85205078125
186.767578125
189.51416015625
192.2607421875
188.5986328125
192.2607421875
200.50048828125
205.078125
204.16259765625
206.9091796875
213.31787109375
205.99365234375
218.81103515625
219.7265625
226.13525390625
229.79736328125
232.5439453125
239.8681640625
243.5302734375
247.1923828125
255.43212890625
253.60107421875
255.43212890625
265.5029296875
262.75634765625
270.99609375
273.74267578125
274.658203125
280.1513671875
284.72900390625
287.4755859375
292.05322265625
302.1240234375
309.4482421875
312.19482421875
311.279296875
325.01220703125
332.33642578125
341.49169921875
350.64697265625
344.23828125
354.30908203125
368.95751953125
375.3662109375
382.6904296875
390.0146484375
400.08544921875
411.07177734375
417.48046875
422.9736328125
432.12890625
440.36865234375
453.18603515625
467.83447265625
476.07421875
483.3984375
489.80712890625
499.8779296875
517.27294921875
524.59716796875
536.4990234375
545.654296875
553.89404296875
566.71142578125
572.20458984375
585.9375
596.00830078125
596.00830078125
610.65673828125
615.234375
623.47412109375
623.47412109375
617.0654296875
622.55859375
617.0654296875
608.82568359375
598.7548828125
584.1064453125
570.37353515625
553.89404296875
539.24560546875
518.1884765625
492.5537109375
472.412109375
446.77734375
422.05810546875
404.6630859375
386.3525390625
357.97119140625
335.99853515625
311.279296875
292.05322265625
271.91162109375
250.8544921875
232.5439453125
210.5712890625
193.17626953125
179.443359375
172.119140625
168.45703125
152.89306640625
140.07568359375
130.92041015625
113.525390625
100.7080078125
91.552734375
93.3837890625
94.29931640625
83.31298828125
76.904296875
75.98876953125
65.00244140625
68.66455078125
68.66455078125
62.255859375
59.50927734375
65.00244140625
64.0869140625
65.00244140625
60.4248046875
58.59375
54.01611328125
59.50927734375
62.255859375
60.4248046875
60.4248046875
60.4248046875
58.59375
65.00244140625
60.4248046875
58.59375
64.0869140625
65.91796875
75.98876953125
71.4111328125
64.0869140625
61.34033203125
61.34033203125
63.17138671875
65.91796875
68.66455078125
68.66455078125
65.91796875
67.7490234375
64.0869140625
60.4248046875
62.255859375
65.00244140625
63.17138671875
74.15771484375
75.98876953125
71.4111328125
76.904296875
66.83349609375
67.7490234375
66.83349609375
58.59375
58.59375
57.67822265625
55.84716796875
63.17138671875
65.91796875
65.00244140625
64.0869140625
60.4248046875
69.580078125
67.7490234375
69.580078125
65.00244140625
60.4248046875
55.84716796875
60.4248046875
57.67822265625
60.4248046875
61.34033203125
56.7626953125
53.1005859375
56.7626953125
52.18505859375
48.52294921875
56.7626953125
50.35400390625
46.69189453125
43.9453125
44.86083984375
43.9453125
46.69189453125
47.607421875
44.86083984375
32.958984375
28.38134765625
34.7900390625
38.4521484375
43.9453125
48.52294921875
37.53662109375
40.283203125
42.1142578125
42.1142578125
38.4521484375
47.607421875
45.7763671875
47.607421875
41.19873046875
38.4521484375
40.283203125
37.53662109375
35.70556640625
37.53662109375
31.1279296875
30.21240234375
36.62109375
27.4658203125
32.04345703125
32.958984375
33.87451171875
43.9453125
34.7900390625
33.87451171875
24.71923828125
23.8037109375
30.21240234375
36.62109375
34.7900390625
30.21240234375
21.97265625
27.4658203125
27.4658203125
25.634765625
28.38134765625
26.55029296875
34.7900390625
34.7900390625
30.21240234375
28.38134765625
32.958984375
35.70556640625
32.958984375
31.1279296875
26.55029296875
20.1416015625
31.1279296875
32.958984375
26.55029296875
29.296875
32.958984375
31.1279296875
27.4658203125
32.04345703125
32.958984375
30.21240234375
28.38134765625
25.634765625
23.8037109375
17.39501953125
19.22607421875
26.55029296875
25.634765625
27.4658203125
29.296875
33.87451171875
31.1279296875
27.4658203125
22.88818359375
21.97265625
25.634765625
23.8037109375
32.958984375
38.4521484375
32.958984375
32.04345703125
33.87451171875
28.38134765625
26.55029296875
24.71923828125
21.05712890625
20.1416015625
20.1416015625
24.71923828125
27.4658203125
26.55029296875
27.4658203125
31.1279296875
35.70556640625
34.7900390625
32.04345703125
32.04345703125
36.62109375
42.1142578125
50.35400390625
50.35400390625
48.52294921875
54.01611328125
60.4248046875
62.255859375
63.17138671875
78.7353515625
84.228515625
81.48193359375
86.97509765625
85.14404296875
74.15771484375
75.0732421875
73.2421875
65.91796875
72.32666015625
73.2421875
68.66455078125
66.83349609375
69.580078125
68.66455078125
77.81982421875
75.98876953125
65.91796875
64.0869140625
67.7490234375
75.98876953125
78.7353515625
63.17138671875
54.01611328125
65.00244140625
61.34033203125
56.7626953125
54.01611328125
54.01611328125
56.7626953125
47.607421875
47.607421875
51.26953125
45.7763671875
39.36767578125
46.69189453125
43.02978515625
32.04345703125
26.55029296875
19.22607421875
20.1416015625
10.07080078125
14.6484375
14.6484375
9.1552734375
11.90185546875
16.4794921875
21.05712890625
16.4794921875
11.90185546875
15.56396484375
10.07080078125
17.39501953125
25.634765625
24.71923828125
21.05712890625
23.8037109375
20.1416015625
23.8037109375
26.55029296875
25.634765625
25.634765625
10.07080078125
-14.6484375
-21.97265625
-5.4931640625
38.4521484375
113.525390625
228.8818359375
366.2109375
486.14501953125
628.96728515625
796.5087890625
960.38818359375
1117.85888671875
1257.9345703125
1368.71337890625
1430.96923828125
1429.13818359375
1345.8251953125
1158.14208984375
916.44287109375
748.9013671875
647.27783203125
531.005859375
433.04443359375
368.95751953125
316.7724609375
261.8408203125
226.13525390625
220.64208984375
216.97998046875
186.767578125
156.55517578125
143.73779296875
153.80859375
177.6123046875
188.5986328125
179.443359375
174.86572265625
167.54150390625
160.21728515625
152.89306640625
138.24462890625
136.41357421875
135.498046875
126.3427734375
121.76513671875
120.849609375
125.42724609375
130.92041015625
121.76513671875
131.8359375
130.0048828125
126.3427734375
127.25830078125
122.6806640625
133.6669921875
135.498046875
125.42724609375
131.8359375
143.73779296875
142.822265625
141.90673828125
144.6533203125
149.23095703125
148.3154296875
149.23095703125
148.3154296875
153.80859375
150.146484375
160.21728515625
167.54150390625
159.3017578125
161.1328125
168.45703125
179.443359375
184.9365234375
183.10546875
174.86572265625
184.9365234375
186.767578125
188.5986328125
195.9228515625
194.091796875
196.83837890625
212.40234375
209.65576171875
210.5712890625
217.8955078125
223.388671875
221.5576171875
217.8955078125
227.05078125
237.12158203125
237.12158203125
239.8681640625
244.44580078125
254.5166015625
263.671875
264.58740234375
265.5029296875
264.58740234375
270.99609375
278.3203125
283.8134765625
289.306640625
299.37744140625
299.37744140625
304.87060546875
309.4482421875
317.68798828125
317.68798828125
329.58984375
338.7451171875
340.576171875
355.224609375
368.0419921875
376.28173828125
383.60595703125
387.26806640625
398.25439453125
403.74755859375
409.24072265625
415.6494140625
424.8046875
436.70654296875
448.6083984375
458.67919921875
469.66552734375
482.48291015625
483.3984375
498.046875
509.94873046875
519.10400390625
534.66796875
543.8232421875
546.56982421875
560.302734375
566.71142578125
578.61328125
587.7685546875
595.0927734375
595.0927734375
594.17724609375
595.0927734375
607.91015625
607.91015625
599.67041015625
593.26171875
582.275390625
569.4580078125
552.06298828125
536.4990234375
517.27294921875
502.62451171875
481.5673828125
466.9189453125
442.19970703125
415.6494140625
386.3525390625
368.95751953125
339.66064453125
313.1103515625
299.37744140625
271.91162109375
252.685546875
234.375
216.064453125
199.5849609375
177.6123046875
166.6259765625
152.89306640625
143.73779296875
130.92041015625
120.849609375
102.5390625
93.3837890625
87.890625
85.14404296875
74.15771484375
69.580078125
65.91796875
61.34033203125
54.01611328125
53.1005859375
49.4384765625
48.52294921875
47.607421875
42.1142578125
46.69189453125
44.86083984375
49.4384765625
49.4384765625
44.86083984375
46.69189453125
52.18505859375
47.607421875
40.283203125
42.1142578125
43.9453125
46.69189453125
53.1005859375
49.4384765625
49.4384765625
45.7763671875
43.02978515625
44.86083984375
53.1005859375
49.4384765625
46.69189453125
49.4384765625
49.4384765625
46.69189453125
44.86083984375
56.7626953125
56.7626953125
54.931640625
51.26953125
46.69189453125
49.4384765625
40.283203125
51.26953125
45.7763671875
44.86083984375
47.607421875
51.26953125
43.9453125
43.02978515625
43.02978515625
44.86083984375
43.9453125
50.35400390625
48.52294921875
40.283203125
39.36767578125
42.1142578125
43.9453125
49.4384765625
42.1142578125
41.19873046875
49.4384765625
50.35400390625
43.9453125
41.19873046875
34.7900390625
35.70556640625
35.70556640625
37.53662109375
37.53662109375
40.283203125
39.36767578125
32.04345703125
27.4658203125
29.296875
29.296875
33.87451171875
29.296875
28.38134765625
32.04345703125
30.21240234375
26.55029296875
31.1279296875
21.05712890625
23.8037109375
23.8037109375
25.634765625
22.88818359375
22.88818359375
14.6484375
7.32421875
10.986328125
13.73291015625
13.73291015625
12.8173828125
10.07080078125
3.662109375
2.74658203125
10.986328125
9.1552734375
10.986328125
16.4794921875
13.73291015625
9.1552734375
10.986328125
4.57763671875
3.662109375
4.57763671875
1.8310546875
5.4931640625
2.74658203125
-0.91552734375
2.74658203125
6.40869140625
9.1552734375
6.40869140625
9.1552734375
10.986328125
1.8310546875
8.23974609375
2.74658203125
10.986328125
5.4931640625
3.662109375
7.32421875
6.40869140625
7.32421875
1.8310546875
-2.74658203125
3.662109375
7.32421875
-1.8310546875
3.662109375
0.91552734375
2.74658203125
8.23974609375
8.23974609375
9.1552734375
6.40869140625
14.6484375
17.39501953125
0.91552734375
10.07080078125
9.1552734375
6.40869140625
9.1552734375
20.1416015625
20.1416015625
10.07080078125
10.07080078125
15.56396484375
12.8173828125
13.73291015625
5.4931640625
8.23974609375
10.986328125
7.32421875
8.23974609375
10.986328125
5.4931640625
5.4931640625
5.4931640625
7.32421875
14.6484375
9.1552734375
11.90185546875
11.90185546875
10.07080078125
13.73291015625
17.39501953125
10.986328125
10.07080078125
10.986328125
11.90185546875
12.8173828125
16.4794921875
21.97265625
12.8173828125
7.32421875
7.32421875
6.40869140625
17.39501953125
18.310546875
19.22607421875
19.22607421875
14.6484375
16.4794921875
25.634765625
17.39501953125
24.71923828125
22.88818359375
24.71923828125
29.296875
36.62109375
44.86083984375
43.9453125
47.607421875
60.4248046875
65.91796875
65.91796875
72.32666015625
75.98876953125
81.48193359375
84.228515625
78.7353515625
65.00244140625
73.2421875
80.56640625
79.65087890625
72.32666015625
72.32666015625
75.0732421875
67.7490234375
80.56640625
78.7353515625
78.7353515625
79.65087890625
82.3974609375
73.2421875
77.81982421875
86.0595703125
93.3837890625
83.31298828125
81.48193359375
80.56640625
73.2421875
71.4111328125
73.2421875
74.15771484375
73.2421875
70.49560546875
67.7490234375
75.98876953125
75.98876953125
66.83349609375
71.4111328125
76.904296875
66.83349609375
62.255859375
51.26953125
47.607421875
44.86083984375
42.1142578125
42.1142578125
40.283203125
36.62109375
43.9453125
55.84716796875
54.01611328125
60.4248046875
61.34033203125
57.67822265625
58.59375
61.34033203125
60.4248046875
78.7353515625
72.32666015625
75.98876953125
76.904296875
79.65087890625
79.65087890625
73.2421875
60.4248046875
45.7763671875
45.7763671875
61.34033203125
98.876953125
169.37255859375
272.8271484375
402.83203125
523.681640625
658.26416015625
820.3125
987.85400390625
1150.81787109375
1294.5556640625
1418.15185546875
1495.9716796875
1497.802734375
1421.81396484375
1265.2587890625
1040.95458984375
877.0751953125
774.5361328125
659.1796875
566.71142578125
504.45556640625
444.03076171875
390.0146484375
349.7314453125
337.82958984375
338.7451171875
314.02587890625
276.4892578125
256.34765625
268.24951171875
291.1376953125
297.54638671875
298.4619140625
294.7998046875
276.4892578125
270.08056640625
260.92529296875
251.77001953125
251.77001953125
244.44580078125
236.2060546875
232.5439453125
244.44580078125
249.93896484375
248.10791015625
245.361328125
242.61474609375
243.5302734375
238.037109375
244.44580078125
254.5166015625
250.8544921875
256.34765625
257.26318359375
254.5166015625
262.75634765625
265.5029296875
266.41845703125
270.99609375
279.23583984375
281.06689453125
288.39111328125
287.4755859375
296.630859375
302.1240234375
295.71533203125
297.54638671875
303.03955078125
311.279296875
311.279296875
315.85693359375
319.51904296875
326.84326171875
332.33642578125
336.9140625
339.66064453125
342.4072265625
341.49169921875
349.7314453125
356.14013671875
354.30908203125
369.873046875
375.3662109375
378.11279296875
387.26806640625
388.18359375
395.5078125
404.6630859375
411.9873046875
420.22705078125
421.142578125
431.21337890625
434.87548828125
436.70654296875
443.115234375
446.77734375
449.52392578125
454.1015625
471.49658203125
473.32763671875
483.3984375
487.060546875
489.80712890625
504.45556640625
508.11767578125
515.44189453125
524.59716796875
529.1748046875
546.56982421875
553.89404296875
562.1337890625
569.4580078125
583.19091796875
599.67041015625
604.248046875
604.248046875
611.572265625
625.30517578125
635.3759765625
644.53125
661.92626953125
670.166015625
687.56103515625
690.3076171875
704.9560546875
719.6044921875
729.67529296875
736.99951171875
749.81689453125
767.2119140625
781.8603515625
790.10009765625
792.8466796875
815.73486328125
822.1435546875
831.298828125
838.623046875
847.7783203125
845.03173828125
852.35595703125
856.01806640625
853.271484375
855.1025390625
855.1025390625
846.86279296875
837.70751953125
826.72119140625
806.57958984375
796.5087890625
779.11376953125
763.5498046875
746.15478515625
717.7734375
693.9697265625
671.9970703125
650.93994140625
635.3759765625
608.82568359375
591.4306640625
566.71142578125
548.40087890625
531.92138671875
507.2021484375
496.2158203125
476.07421875
462.34130859375
455.01708984375
439.453125
431.21337890625
419.3115234375
405.57861328125
401.91650390625
392.76123046875
389.09912109375
385.43701171875
386.3525390625
380.859375
373.53515625
369.873046875
371.7041015625
373.53515625
375.3662109375
372.61962890625
371.7041015625
376.28173828125
374.45068359375
368.0419921875
366.2109375
365.29541015625
370.78857421875
377.197265625
373.53515625
368.0419921875
376.28173828125
379.0283203125
381.77490234375
377.197265625
383.60595703125
384.521484375
383.60595703125
390.93017578125
395.5078125
388.18359375
396.42333984375
405.57861328125
404.6630859375
395.5078125
403.74755859375
410.15625
406.494140625
408.3251953125
411.9873046875
411.07177734375
410.15625
411.07177734375
408.3251953125
420.22705078125
419.3115234375
424.8046875
424.8046875
431.21337890625
432.12890625
429.38232421875
427.55126953125
428.466796875
437.6220703125
430.2978515625
430.2978515625
435.791015625
439.453125
433.04443359375
433.04443359375
432.12890625
435.791015625
446.77734375
434.87548828125
429.38232421875
438.53759765625
435.791015625
441.2841796875
446.77734375
441.2841796875
441.2841796875
442.19970703125
441.2841796875
440.36865234375
435.791015625
435.791015625
441.2841796875
437.6220703125
441.2841796875
439.453125
444.9462890625
443.115234375
440.36865234375
442.19970703125
436.70654296875
443.115234375
445.86181640625
447.69287109375
452.2705078125
449.52392578125
446.77734375
453.18603515625
453.18603515625
447.69287109375
450.439453125
453.18603515625
440.36865234375
444.9462890625
458.67919921875
455.01708984375
453.18603515625
455.01708984375
457.763671875
455.9326171875
466.00341796875
460.51025390625
455.01708984375
458.67919921875
454.1015625
453.18603515625
458.67919921875
461.42578125
458.67919921875
457.763671875
464.17236328125
463.2568359375
462.34130859375
462.34130859375
456.84814453125
455.9326171875
462.34130859375
462.34130859375
465.087890625
464.17236328125
461.42578125
462.34130859375
471.49658203125
474.2431640625
471.49658203125
469.66552734375
467.83447265625
473.32763671875
474.2431640625
474.2431640625
483.3984375
480.65185546875
481.5673828125
483.3984375
481.5673828125
483.3984375
485.2294921875
482.48291015625
484.31396484375
483.3984375
491.63818359375
493.46923828125
482.48291015625
488.8916015625
491.63818359375
490.72265625
489.80712890625
493.46923828125
488.8916015625
496.2158203125
487.060546875
480.65185546875
485.2294921875
493.46923828125
487.060546875
489.80712890625
488.8916015625
486.14501953125
486.14501953125
495.30029296875
492.5537109375
491.63818359375
494.384765625
496.2158203125
500.79345703125
501.708984375
498.96240234375
495.30029296875
498.96240234375
497.13134765625
496.2158203125
497.13134765625
498.046875
500.79345703125
502.62451171875
501.708984375
504.45556640625
505.37109375
506.28662109375
505.37109375
504.45556640625
501.708984375
498.96240234375
505.37109375
506.28662109375
507.2021484375
507.2021484375
508.11767578125
508.11767578125
509.94873046875
507.2021484375
509.94873046875
511.77978515625
511.77978515625
509.94873046875
509.033203125
511.77978515625
510.8642578125
509.94873046875
514.5263671875
514.5263671875
515.44189453125
519.10400390625
522.76611328125
520.01953125
530.09033203125
531.005859375
534.66796875
541.07666015625
537.41455078125
539.24560546875
542.90771484375
546.56982421875
555.72509765625
570.37353515625
571.2890625
572.20458984375
574.03564453125
569.4580078125
563.04931640625
564.88037109375
563.04931640625
557.55615234375
568.54248046875
568.54248046875
567.626953125
571.2890625
573.1201171875
574.951171875
566.71142578125
562.1337890625
560.302734375
566.71142578125
571.2890625
568.54248046875
569.4580078125
563.96484375
555.72509765625
552.978515625
553.89404296875
549.31640625
552.06298828125
551.1474609375
546.56982421875
544.73876953125
541.9921875
534.66796875
536.4990234375
539.24560546875
534.66796875
528.25927734375
520.93505859375
515.44189453125
510.8642578125
513.61083984375
511.77978515625
509.033203125
510.8642578125
518.1884765625
510.8642578125
505.37109375
511.77978515625
530.09033203125
531.92138671875
518.1884765625
508.11767578125
511.77978515625
508.11767578125
521.8505859375
527.34375
524.59716796875
533.75244140625
542.90771484375
549.31640625
541.07666015625
535.58349609375
510.8642578125
480.65185546875
490.72265625
520.01953125
578.61328125
678.40576171875
810.24169921875
940.24658203125
1076.66015625
1223.14453125
1391.6015625
1563.720703125
1702.880859375
1821.8994140625
1902.4658203125
1930.84716796875
1875.91552734375
1707.45849609375
1441.95556640625
1231.38427734375
1117.85888671875
1000.67138671875
892.63916015625
812.07275390625
780.029296875
753.47900390625
713.19580078125
698.54736328125
687.56103515625
670.166015625
652.77099609375
642.7001953125
627.13623046875
638.12255859375
663.75732421875
676.57470703125
679.3212890625
677.490234375
670.166015625
655.517578125
649.10888671875
639.95361328125
633.544921875
629.8828125
622.55859375
616.14990234375
617.0654296875
624.3896484375
620.7275390625
615.234375
620.7275390625
626.220703125
622.55859375
623.47412109375
628.96728515625
628.96728515625
638.12255859375
633.544921875
633.544921875
632.62939453125
625.30517578125
628.96728515625
628.96728515625
637.20703125
636.29150390625
634.46044921875
646.3623046875
651.85546875
653.6865234375
651.85546875
648.193359375
659.1796875
660.09521484375
670.166015625
670.166015625
671.08154296875
672.91259765625
667.41943359375
671.9970703125
682.06787109375
682.9833984375
684.814453125
684.814453125
689.39208984375
704.9560546875
703.125
701.2939453125
709.53369140625
715.9423828125
709.53369140625
713.19580078125
714.111328125
721.435546875
719.6044921875
729.67529296875
728.759765625
733.33740234375
741.5771484375
737.9150390625
745.2392578125
746.15478515625
751.64794921875
758.97216796875
763.5498046875
775.45166015625
779.11376953125
781.8603515625
790.10009765625
806.57958984375
803.8330078125
802.001953125
806.57958984375
816.650390625
826.72119140625
840.4541015625
843.20068359375
847.7783203125
858.7646484375
869.7509765625
876.15966796875
878.90625
885.31494140625
898.13232421875
914.61181640625
924.6826171875
933.837890625
939.3310546875
949.40185546875
960.38818359375
968.6279296875
981.4453125
990.6005859375
1004.33349609375
1010.7421875
1018.06640625
1029.052734375
1042.78564453125
1049.1943359375
1055.60302734375
1060.1806640625
1062.01171875
1067.5048828125
1065.673828125
1064.75830078125
1061.09619140625
1059.26513671875
1054.6875
1049.1943359375
1037.29248046875
1029.052734375
1009.82666015625
997.00927734375
975.9521484375
956.72607421875
946.6552734375
914.61181640625
894.47021484375
874.32861328125
849.609375
823.974609375
799.25537109375
780.029296875
754.39453125
723.2666015625
698.54736328125
681.15234375
667.41943359375
647.27783203125
631.7138671875
623.47412109375
609.7412109375
597.83935546875
585.9375
572.20458984375
563.96484375
559.38720703125
548.40087890625
543.8232421875
535.58349609375
529.1748046875
519.10400390625
511.77978515625
509.94873046875
507.2021484375
509.033203125
505.37109375
502.62451171875
496.2158203125
500.79345703125
496.2158203125
498.96240234375
499.8779296875
500.79345703125
498.046875
500.79345703125
500.79345703125
501.708984375
497.13134765625
493.46923828125
492.5537109375
499.8779296875
496.2158203125
496.2158203125
501.708984375
494.384765625
488.8916015625
496.2158203125
487.060546875
487.060546875
486.14501953125
492.5537109375
492.5537109375
494.384765625
493.46923828125
490.72265625
493.46923828125
496.2158203125
497.13134765625
498.96240234375
503.5400390625
501.708984375
491.63818359375
486.14501953125
488.8916015625
487.97607421875
486.14501953125
489.80712890625
493.46923828125
491.63818359375
493.46923828125
496.2158203125
491.63818359375
498.046875
487.97607421875
484.31396484375
481.5673828125
486.14501953125
483.3984375
486.14501953125
497.13134765625
489.80712890625
488.8916015625
484.31396484375
468.75
468.75
476.07421875
471.49658203125
471.49658203125
468.75
472.412109375
474.2431640625
476.07421875
474.2431640625
473.32763671875
472.412109375
472.412109375
465.087890625
460.51025390625
464.17236328125
464.17236328125
459.5947265625
460.51025390625
456.84814453125
451.35498046875
452.2705078125
462.34130859375
455.9326171875
453.18603515625
459.5947265625
455.9326171875
455.01708984375
449.52392578125
453.18603515625
453.18603515625
448.6083984375
448.6083984375
454.1015625
450.439453125
444.9462890625
445.86181640625
446.77734375
451.35498046875
444.9462890625
447.69287109375
435.791015625
438.53759765625
437.6220703125
440.36865234375
441.2841796875
437.6220703125
431.21337890625
431.21337890625
431.21337890625
444.03076171875
457.763671875
448.6083984375
449.52392578125
451.35498046875
445.86181640625
444.9462890625
439.453125
439.453125
438.53759765625
433.04443359375
437.6220703125
437.6220703125
438.53759765625
439.453125
433.04443359375
432.12890625
435.791015625
434.87548828125
433.9599609375
438.53759765625
431.21337890625
433.9599609375
434.87548828125
437.6220703125
435.791015625
434.87548828125
431.21337890625
429.38232421875
426.6357421875
424.8046875
427.55126953125
432.12890625
435.791015625
432.12890625
426.6357421875
429.38232421875
433.04443359375
431.21337890625
430.2978515625
433.9599609375
431.21337890625
423.88916015625
429.38232421875
426.6357421875
426.6357421875
427.55126953125
425.72021484375
427.55126953125
424.8046875
426.6357421875
430.2978515625
426.6357421875
427.55126953125
426.6357421875
422.05810546875
426.6357421875
433.9599609375
433.04443359375
429.38232421875
433.9599609375
433.04443359375
438.53759765625
441.2841796875
449.52392578125
455.01708984375
461.42578125
467.83447265625
475.15869140625
481.5673828125
472.412109375
468.75
466.9189453125
461.42578125
461.42578125
463.2568359375
469.66552734375
471.49658203125
467.83447265625
461.42578125
463.2568359375
472.412109375
468.75
461.42578125
455.01708984375
457.763671875
467.83447265625
475.15869140625
466.00341796875
465.087890625
458.67919921875
455.9326171875
450.439453125
444.9462890625
443.115234375
444.03076171875
448.6083984375
443.115234375
443.115234375
435.791015625
422.05810546875
420.22705078125
422.9736328125
413.818359375
420.22705078125
415.6494140625
405.57861328125
402.83203125
405.57861328125
399.169921875
395.5078125
399.169921875
402.83203125
407.40966796875
405.57861328125
403.74755859375
405.57861328125
396.42333984375
395.5078125
403.74755859375
409.24072265625
409.24072265625
403.74755859375
405.57861328125
415.6494140625
413.818359375
418.39599609375
415.6494140625
416.56494140625
400.08544921875
375.3662109375
356.14013671875
365.29541015625
386.3525390625
433.9599609375
540.1611328125
675.6591796875
811.1572265625
946.6552734375
1086.73095703125
1261.5966796875
1447.44873046875
1594.8486328125
1712.95166015625
1800.84228515625
1822.81494140625
1772.4609375
1653.4423828125
1409.912109375
1138.00048828125
992.431640625
871.58203125
762.63427734375
688.4765625
653.6865234375
625.30517578125
598.7548828125
581.35986328125
565.7958984375
545.654296875
523.681640625
510.8642578125
513.61083984375
511.77978515625
521.8505859375
545.654296875
553.89404296875
552.978515625
548.40087890625
541.07666015625
529.1748046875
522.76611328125
512.6953125
503.5400390625
502.62451171875
500.79345703125
506.28662109375
495.30029296875
497.13134765625
498.96240234375
500.79345703125
500.79345703125
501.708984375
508.11767578125
507.2021484375
503.5400390625
506.28662109375
510.8642578125
510.8642578125
514.5263671875
508.11767578125
511.77978515625
509.033203125
507.2021484375
508.11767578125
518.1884765625
524.59716796875
527.34375
523.681640625
530.09033203125
534.66796875
531.005859375
527.34375
529.1748046875
538.330078125
549.31640625
550.23193359375
548.40087890625
556.640625
556.640625
558.4716796875
559.38720703125
558.4716796875
567.626953125
565.7958984375
570.37353515625
572.20458984375
582.275390625
588.68408203125
589.599609375
596.923828125
600.5859375
603.33251953125
595.0927734375
600.5859375
610.65673828125
609.7412109375
619.81201171875
623.47412109375
627.13623046875
628.0517578125
629.8828125
642.7001953125
651.85546875
658.26416015625
661.0107421875
671.08154296875
669.25048828125
679.3212890625
688.4765625
693.05419921875
704.04052734375
701.2939453125
706.787109375
716.85791015625
721.435546875
727.84423828125
739.74609375
747.98583984375
747.98583984375
762.63427734375
778.1982421875
785.5224609375
795.59326171875
802.91748046875
815.73486328125
832.21435546875
840.4541015625
849.609375
856.93359375
867.919921875
875.244140625
888.97705078125
902.7099609375
908.203125
915.52734375
927.42919921875
937.5
940.24658203125
944.82421875
952.1484375
949.40185546875
950.3173828125
953.06396484375
941.162109375
925.59814453125
921.0205078125
924.6826171875
916.44287109375
899.96337890625
877.99072265625
860.595703125
834.04541015625
811.1572265625
796.5087890625
774.5361328125
744.32373046875
726.9287109375
704.04052734375
682.9833984375
654.60205078125
631.7138671875
608.82568359375
587.7685546875
568.54248046875
544.73876953125
537.41455078125
519.10400390625
498.96240234375
486.14501953125
474.2431640625
465.087890625
447.69287109375
437.6220703125
429.38232421875
425.72021484375
422.05810546875
415.6494140625
411.07177734375
406.494140625
395.5078125
394.59228515625
394.59228515625
391.845703125
389.09912109375
388.18359375
379.94384765625
375.3662109375
367.12646484375
370.78857421875
379.94384765625
379.94384765625
380.859375
379.0283203125
379.94384765625
378.11279296875
373.53515625
377.197265625
384.521484375
382.6904296875
380.859375
376.28173828125
368.95751953125
376.28173828125
380.859375
371.7041015625
366.2109375
367.12646484375
375.3662109375
384.521484375
382.6904296875
384.521484375
382.6904296875
385.43701171875
379.94384765625
379.0283203125
377.197265625
378.11279296875
374.45068359375
381.77490234375
385.43701171875
371.7041015625
374.45068359375
375.3662109375
368.0419921875
372.61962890625
380.859375
380.859375
377.197265625
379.94384765625
377.197265625
368.95751953125
373.53515625
374.45068359375
369.873046875
368.95751953125
374.45068359375
374.45068359375
370.78857421875
365.29541015625
366.2109375
362.548828125
365.29541015625
363.46435546875
358.88671875
362.548828125
354.30908203125
358.88671875
361.63330078125
357.97119140625
357.0556640625
356.14013671875
356.14013671875
354.30908203125
356.14013671875
358.88671875
348.81591796875
355.224609375
356.14013671875
355.224609375
344.23828125
344.23828125
349.7314453125
343.32275390625
343.32275390625
348.81591796875
340.576171875
347.900390625
346.0693359375
348.81591796875
346.98486328125
339.66064453125
345.15380859375
341.49169921875
342.4072265625
336.9140625
339.66064453125
339.66064453125
335.99853515625
335.0830078125
333.251953125
335.0830078125
334.16748046875
333.251953125
332.33642578125
326.84326171875
327.7587890625
325.927734375
334.16748046875
333.251953125
329.58984375
322.265625
322.265625
321.35009765625
326.84326171875
324.0966796875
324.0966796875
328.67431640625
314.02587890625
325.927734375
324.0966796875
321.35009765625
322.265625
324.0966796875
326.84326171875
321.35009765625
321.35009765625
312.19482421875
321.35009765625
315.85693359375
314.94140625
313.1103515625
317.68798828125
320.4345703125
314.94140625
319.51904296875
321.35009765625
319.51904296875
324.0966796875
320.4345703125
320.4345703125
314.94140625
316.7724609375
321.35009765625
326.84326171875
319.51904296875
314.94140625
317.68798828125
314.94140625
312.19482421875
317.68798828125
317.68798828125
314.02587890625
311.279296875
314.94140625
315.85693359375
320.4345703125
320.4345703125
321.35009765625
316.7724609375
314.02587890625
314.94140625
318.603515625
314.02587890625
311.279296875
311.279296875
310.36376953125
319.51904296875
314.02587890625
312.19482421875
305.7861328125
312.19482421875
317.68798828125
315.85693359375
313.1103515625
308.53271484375
311.279296875
302.1240234375
304.87060546875
303.955078125
303.955078125
301.20849609375
298.4619140625
299.37744140625
303.03955078125
304.87060546875
306.70166015625
303.955078125
307.6171875
304.87060546875
307.6171875
306.70166015625
303.955078125
307.6171875
308.53271484375
300.29296875
304.87060546875
304.87060546875
305.7861328125
304.87060546875
308.53271484375
315.85693359375
314.02587890625
318.603515625
311.279296875
311.279296875
314.02587890625
314.02587890625
324.0966796875
325.01220703125
327.7587890625
329.58984375
337.82958984375
344.23828125
350.64697265625
353.3935546875
363.46435546875
362.548828125
364.3798828125
353.3935546875
344.23828125
346.98486328125
348.81591796875
341.49169921875
343.32275390625
354.30908203125
341.49169921875
344.23828125
347.900390625
358.88671875
358.88671875
352.47802734375
346.0693359375
347.900390625
352.47802734375
352.47802734375
346.98486328125
344.23828125
332.33642578125
328.67431640625
326.84326171875
331.4208984375
320.4345703125
328.67431640625
325.927734375
323.18115234375
323.18115234375
324.0966796875
320.4345703125
307.6171875
311.279296875
308.53271484375
300.29296875
299.37744140625
291.1376953125
287.4755859375
286.56005859375
285.64453125
290.22216796875
285.64453125
284.72900390625
291.1376953125
285.64453125
294.7998046875
292.05322265625
282.89794921875
284.72900390625
289.306640625
289.306640625
293.88427734375
292.05322265625
297.54638671875
290.22216796875
300.29296875
301.20849609375
297.54638671875
289.306640625
280.1513671875
262.75634765625
255.43212890625
270.08056640625
299.37744140625
356.14013671875
464.17236328125
584.1064453125
708.6181640625
840.4541015625
991.51611328125
1149.90234375
1305.5419921875
1453.857421875
1585.693359375
1665.34423828125
1694.64111328125
1631.4697265625
1485.90087890625
1252.44140625
1072.08251953125
961.3037109375
845.947265625
748.9013671875
686.6455078125
632.62939453125
574.951171875
531.92138671875
516.357421875
509.94873046875
494.384765625
455.01708984375
427.55126953125
435.791015625
461.42578125
468.75
464.17236328125
458.67919921875
441.2841796875
430.2978515625
422.05810546875
405.57861328125
390.93017578125
392.76123046875
387.26806640625
386.3525390625
388.18359375
386.3525390625
386.3525390625
390.0146484375
389.09912109375
390.0146484375
384.521484375
390.93017578125
385.43701171875
390.0146484375
394.59228515625
393.6767578125
390.0146484375
398.25439453125
394.59228515625
397.3388671875
401.91650390625
400.08544921875
406.494140625
410.15625
405.57861328125
406.494140625
405.57861328125
411.9873046875
414.73388671875
413.818359375
411.07177734375
411.9873046875
415.6494140625
420.22705078125
423.88916015625
428.466796875
431.21337890625
441.2841796875
439.453125
444.03076171875
453.18603515625
452.2705078125
454.1015625
467.83447265625
468.75
472.412109375
474.2431640625
475.15869140625
477.9052734375
485.2294921875
486.14501953125
486.14501953125
487.97607421875
493.46923828125
493.46923828125
501.708984375
505.37109375
516.357421875
519.10400390625
526.42822265625
533.75244140625
531.92138671875
535.58349609375
539.24560546875
549.31640625
554.8095703125
561.21826171875
572.20458984375
577.69775390625
579.52880859375
584.1064453125
588.68408203125
600.5859375
609.7412109375
619.81201171875
622.55859375
631.7138671875
635.3759765625
644.53125
650.0244140625
660.09521484375
669.25048828125
674.74365234375
691.22314453125
703.125
710.44921875
724.18212890625
731.50634765625
739.74609375
756.2255859375
760.80322265625
768.12744140625
791.015625
796.5087890625
799.25537109375
809.326171875
818.4814453125
826.72119140625
825.8056640625
841.36962890625
851.4404296875
845.03173828125
854.18701171875
853.271484375
856.01806640625
845.947265625
834.04541015625
823.974609375
812.98828125
799.25537109375
780.94482421875
762.63427734375
748.9013671875
731.50634765625
705.87158203125
676.57470703125
651.85546875
628.96728515625
606.0791015625
582.275390625
561.21826171875
546.56982421875
523.681640625
500.79345703125
476.07421875
456.84814453125
437.6220703125
422.05810546875
408.3251953125
397.3388671875
381.77490234375
370.78857421875
363.46435546875
353.3935546875
349.7314453125
336.9140625
325.01220703125
318.603515625
309.4482421875
318.603515625
319.51904296875
303.955078125
306.70166015625
305.7861328125
300.29296875
290.22216796875
298.4619140625
301.20849609375
299.37744140625
300.29296875
299.37744140625
294.7998046875
292.96875
292.05322265625
299.37744140625
294.7998046875
290.22216796875
292.05322265625
297.54638671875
293.88427734375
298.4619140625
292.96875
290.22216796875
285.64453125
288.39111328125
292.96875
292.96875
292.05322265625
294.7998046875
295.71533203125
287.4755859375
290.22216796875
292.96875
292.05322265625
294.7998046875
289.306640625
286.56005859375
288.39111328125
286.56005859375
290.22216796875
291.1376953125
284.72900390625
287.4755859375
282.89794921875
287.4755859375
286.56005859375
290.22216796875
287.4755859375
282.89794921875
292.96875
292.05322265625
282.89794921875
290.22216796875
292.05322265625
293.88427734375
293.88427734375
289.306640625
281.06689453125
281.06689453125
283.8134765625
281.06689453125
283.8134765625
288.39111328125
275.57373046875
269.1650390625
274.658203125
281.06689453125
279.23583984375
270.08056640625
269.1650390625
269.1650390625
270.99609375
273.74267578125
276.4892578125
270.08056640625
267.333984375
267.333984375
264.58740234375
269.1650390625
262.75634765625
260.92529296875
263.671875
266.41845703125
261.8408203125
264.58740234375
267.333984375
256.34765625
256.34765625
255.43212890625
254.5166015625
257.26318359375
260.009765625
257.26318359375
254.5166015625
252.685546875
255.43212890625
252.685546875
249.93896484375
251.77001953125
253.60107421875
251.77001953125
243.5302734375
248.10791015625
252.685546875
249.0234375
248.10791015625
249.93896484375
250.8544921875
249.93896484375
249.93896484375
246.27685546875
246.27685546875
247.1923828125
248.10791015625
245.361328125
248.10791015625
250.8544921875
243.5302734375
243.5302734375
243.5302734375
242.61474609375
241.69921875
246.27685546875
247.1923828125
244.44580078125
242.61474609375
242.61474609375
239.8681640625
241.69921875
239.8681640625
247.1923828125
244.44580078125
242.61474609375
243.5302734375
243.5302734375
241.69921875
237.12158203125
238.037109375
242.61474609375
240.78369140625
241.69921875
242.61474609375
235.29052734375
239.8681640625
244.44580078125
245.361328125
236.2060546875
242.61474609375
241.69921875
237.12158203125
242.61474609375
241.69921875
242.61474609375
241.69921875
246.27685546875
240.78369140625
237.12158203125
235.29052734375
234.375
237.12158203125
239.8681640625
234.375
233.45947265625
231.62841796875
232.5439453125
241.69921875
241.69921875
233.45947265625
238.95263671875
230.712890625
233.45947265625
240.78369140625
238.037109375
233.45947265625
231.62841796875
233.45947265625
241.69921875
245.361328125
235.29052734375
230.712890625
238.037109375
242.61474609375
242.61474609375
243.5302734375
244.44580078125
238.95263671875
241.69921875
240.78369140625
232.5439453125
234.375
235.29052734375
235.29052734375
237.12158203125
234.375
231.62841796875
236.2060546875
229.79736328125
226.13525390625
232.5439453125
243.5302734375
233.45947265625
233.45947265625
232.5439453125
232.5439453125
229.79736328125
232.5439453125
228.8818359375
235.29052734375
237.12158203125
233.45947265625
227.96630859375
227.96630859375
226.13525390625
227.96630859375
227.05078125
229.79736328125
234.375
231.62841796875
225.2197265625
227.96630859375
223.388671875
226.13525390625
229.79736328125
229.79736328125
237.12158203125
232.5439453125
234.375
239.8681640625
243.5302734375
242.61474609375
249.93896484375
246.27685546875
246.27685546875
249.0234375
258.1787109375
256.34765625
267.333984375
271.91162109375
278.3203125
285.64453125
282.89794921875
285.64453125
275.57373046875
263.671875
270.08056640625
270.99609375
264.58740234375
263.671875
272.8271484375
266.41845703125
269.1650390625
268.24951171875
272.8271484375
279.23583984375
277.40478515625
269.1650390625
267.333984375
272.8271484375
276.4892578125
270.08056640625
267.333984375
260.009765625
257.26318359375
254.5166015625
253.60107421875
253.60107421875
251.77001953125
248.10791015625
251.77001953125
253.60107421875
249.93896484375
242.61474609375
238.037109375
238.95263671875
235.29052734375
237.12158203125
223.388671875
209.65576171875
210.5712890625
213.31787109375
215.14892578125
218.81103515625
212.40234375
213.31787109375
218.81103515625
219.7265625
217.8955078125
223.388671875
223.388671875
223.388671875
216.064453125
222.47314453125
224.30419921875
220.64208984375
231.62841796875
225.2197265625
222.47314453125
226.13525390625
227.96630859375
227.05078125
220.64208984375
200.50048828125
190.4296875
191.34521484375
225.2197265625
278.3203125
378.11279296875
501.708984375
626.220703125
755.31005859375
904.541015625
1065.673828125
1229.55322265625
1382.4462890625
1514.2822265625
1591.1865234375
1617.73681640625
1559.14306640625
1424.560546875
1211.24267578125
1019.8974609375
906.3720703125
804.74853515625
700.37841796875
616.14990234375
561.21826171875
506.28662109375
453.18603515625
433.04443359375
431.21337890625
420.22705078125
387.26806640625
354.30908203125
351.5625
373.53515625
380.859375
383.60595703125
377.197265625
356.14013671875
347.900390625
346.98486328125
331.4208984375
320.4345703125
323.18115234375
321.35009765625
320.4345703125
314.94140625
314.94140625
311.279296875
308.53271484375
307.6171875
312.19482421875
313.1103515625
303.955078125
306.70166015625
313.1103515625
314.02587890625
312.19482421875
316.7724609375
322.265625
314.94140625
324.0966796875
331.4208984375
327.7587890625
329.58984375
335.0830078125
335.99853515625
335.99853515625
336.9140625
341.49169921875
346.98486328125
347.900390625
344.23828125
346.0693359375
344.23828125
353.3935546875
356.14013671875
359.80224609375
358.88671875
365.29541015625
367.12646484375
368.95751953125
372.61962890625
373.53515625
385.43701171875
389.09912109375
393.6767578125
386.3525390625
385.43701171875
392.76123046875
397.3388671875
399.169921875
410.15625
415.6494140625
415.6494140625
418.39599609375
422.05810546875
423.88916015625
431.21337890625
438.53759765625
449.52392578125
445.86181640625
452.2705078125
460.51025390625
462.34130859375
472.412109375
473.32763671875
474.2431640625
480.65185546875
485.2294921875
495.30029296875
502.62451171875
506.28662109375
513.61083984375
520.01953125
527.34375
527.34375
541.9921875
547.4853515625
567.626953125
568.54248046875
574.03564453125
589.599609375
594.17724609375
599.67041015625
615.234375
631.7138671875
639.0380859375
642.7001953125
651.85546875
666.50390625
677.490234375
686.6455078125
694.88525390625
703.125
717.7734375
724.18212890625
730.5908203125
739.74609375
752.5634765625
759.8876953125
764.46533203125
769.04296875
772.705078125
771.78955078125
771.78955078125
767.2119140625
771.78955078125
766.29638671875
763.5498046875
747.0703125
736.083984375
717.7734375
704.9560546875
688.4765625
659.1796875
639.0380859375
618.896484375
593.26171875
572.20458984375
549.31640625
531.005859375
501.708984375
478.82080078125
467.83447265625
447.69287109375
417.48046875
409.24072265625
383.60595703125
370.78857421875
354.30908203125
334.16748046875
314.02587890625
307.6171875
297.54638671875
288.39111328125
275.57373046875
266.41845703125
262.75634765625
269.1650390625
256.34765625
251.77001953125
249.0234375
242.61474609375
238.95263671875
239.8681640625
236.2060546875
228.8818359375
223.388671875
223.388671875
222.47314453125
222.47314453125
221.5576171875
220.64208984375
209.65576171875
215.14892578125
221.5576171875
231.62841796875
228.8818359375
225.2197265625
232.5439453125
234.375
227.05078125
227.05078125
226.13525390625
227.05078125
226.13525390625
220.64208984375
225.2197265625
226.13525390625
221.5576171875
225.2197265625
224.30419921875
229.79736328125
225.2197265625
221.5576171875
219.7265625
227.96630859375
226.13525390625
224.30419921875
224.30419921875
221.5576171875
219.7265625
222.47314453125
227.05078125
225.2197265625
221.5576171875
222.47314453125
216.064453125
216.064453125
216.064453125
218.81103515625
216.064453125
215.14892578125
211.48681640625
214.2333984375
215.14892578125
216.064453125
218.81103515625
218.81103515625
214.2333984375
218.81103515625
216.064453125
210.5712890625
212.40234375
209.65576171875
209.65576171875
214.2333984375
207.82470703125
210.5712890625
210.5712890625
214.2333984375
211.48681640625
205.99365234375
205.99365234375
207.82470703125
205.078125
205.078125
205.078125
201.416015625
201.416015625
198.66943359375
202.33154296875
198.66943359375
199.5849609375
195.00732421875
197.75390625
193.17626953125
184.02099609375
189.51416015625
186.767578125
187.68310546875
189.51416015625
183.10546875
188.5986328125
187.68310546875
188.5986328125
181.2744140625
182.18994140625
184.02099609375
184.02099609375
177.6123046875
184.9365234375
189.51416015625
193.17626953125
187.68310546875
184.9365234375
184.02099609375
190.4296875
183.10546875
185.85205078125
188.5986328125
190.4296875
185.85205078125
179.443359375
184.9365234375
187.68310546875
186.767578125
181.2744140625
182.18994140625
184.9365234375
186.767578125
184.9365234375
183.10546875
188.5986328125
189.51416015625
184.02099609375
182.18994140625
176.69677734375
176.69677734375
173.9501953125
175.78125
178.52783203125
173.9501953125
179.443359375
176.69677734375
179.443359375
171.20361328125
182.18994140625
183.10546875
181.2744140625
181.2744140625
185.85205078125
187.68310546875
180.35888671875
178.52783203125
184.9365234375
181.2744140625
183.10546875
179.443359375
182.18994140625
180.35888671875
178.52783203125
172.119140625
176.69677734375
176.69677734375
181.2744140625
179.443359375
181.2744140625
184.02099609375
185.85205078125
184.02099609375
180.35888671875
178.52783203125
177.6123046875
180.35888671875
180.35888671875
174.86572265625
173.9501953125
175.78125
178.52783203125
184.9365234375
182.18994140625
176.69677734375
179.443359375
181.2744140625
182.18994140625
185.85205078125
184.9365234375
184.9365234375
186.767578125
183.10546875
183.10546875
188.5986328125
182.18994140625
179.443359375
179.443359375
181.2744140625
182.18994140625
184.02099609375
184.02099609375
183.10546875
188.5986328125
184.9365234375
186.767578125
191.34521484375
190.4296875
191.34521484375
182.18994140625
180.35888671875
181.2744140625
173.03466796875
176.69677734375
187.68310546875
183.10546875
182.18994140625
183.10546875
184.9365234375
182.18994140625
189.51416015625
189.51416015625
184.9365234375
184.9365234375
182.18994140625
190.4296875
187.68310546875
184.02099609375
185.85205078125
190.4296875
184.9365234375
181.2744140625
183.10546875
184.02099609375
188.5986328125
189.51416015625
190.4296875
189.51416015625
195.00732421875
200.50048828125
198.66943359375
204.16259765625
202.33154296875
208.740234375
203.2470703125
206.9091796875
217.8955078125
216.064453125
222.47314453125
225.2197265625
227.96630859375
235.29052734375
240.78369140625
236.2060546875
237.12158203125
234.375
230.712890625
236.2060546875
233.45947265625
240.78369140625
241.69921875
238.037109375
237.12158203125
244.44580078125
239.8681640625
241.69921875
237.12158203125
233.45947265625
231.62841796875
236.2060546875
241.69921875
238.037109375
232.5439453125
234.375
230.712890625
236.2060546875
231.62841796875
232.5439453125
233.45947265625
230.712890625
228.8818359375
219.7265625
220.64208984375
226.13525390625
218.81103515625
225.2197265625
214.2333984375
197.75390625
196.83837890625
193.17626953125
189.51416015625
185.85205078125
181.2744140625
187.68310546875
195.9228515625
191.34521484375
185.85205078125
187.68310546875
196.83837890625
198.66943359375
193.17626953125
195.00732421875
200.50048828125
197.75390625
199.5849609375
204.16259765625
197.75390625
205.078125
210.5712890625
200.50048828125
199.5849609375
201.416015625
194.091796875
171.20361328125
147.39990234375
152.89306640625
179.443359375
227.96630859375
328.67431640625
453.18603515625
588.68408203125
719.6044921875
867.00439453125
1033.63037109375
1216.73583984375
1370.54443359375
1492.3095703125
1584.77783203125
1615.90576171875
1590.27099609375
1474.91455078125
1226.806640625
964.05029296875
808.41064453125
692.138671875
594.17724609375
520.01953125
470.5810546875
439.453125
412.90283203125
388.18359375
375.3662109375
348.81591796875
319.51904296875
310.36376953125
314.94140625
307.6171875
316.7724609375
341.49169921875
346.0693359375
353.3935546875
354.30908203125
346.0693359375
329.58984375
324.0966796875
323.18115234375
315.85693359375
310.36376953125
313.1103515625
314.02587890625
316.7724609375
313.1103515625
311.279296875
314.02587890625
314.94140625
315.85693359375
317.68798828125
313.1103515625
311.279296875
313.1103515625
314.94140625
312.19482421875
319.51904296875
323.18115234375
326.84326171875
325.01220703125
325.01220703125
333.251953125
327.7587890625
334.16748046875
343.32275390625
337.82958984375
339.66064453125
330.50537109375
339.66064453125
347.900390625
349.7314453125
356.14013671875
356.14013671875
355.224609375
359.80224609375
359.80224609375
366.2109375
378.11279296875
379.0283203125
384.521484375
378.11279296875
376.28173828125
386.3525390625
392.76123046875
399.169921875
402.83203125
400.08544921875
403.74755859375
411.07177734375
417.48046875
416.56494140625
420.22705078125
426.6357421875
431.21337890625
433.9599609375
439.453125
442.19970703125
443.115234375
454.1015625
462.34130859375
467.83447265625
476.07421875
478.82080078125
479.736328125
488.8916015625
494.384765625
506.28662109375
513.61083984375
506.28662109375
513.61083984375
526.42822265625
538.330078125
543.8232421875
552.06298828125
552.978515625
557.55615234375
576.7822265625
588.68408203125
596.923828125
608.82568359375
621.64306640625
629.8828125
635.3759765625
650.0244140625
653.6865234375
667.41943359375
678.40576171875
687.56103515625
693.9697265625
703.125
714.111328125
716.85791015625
726.01318359375
736.99951171875
753.47900390625
769.04296875
770.8740234375
776.3671875
782.77587890625
791.93115234375
794.677734375
787.353515625
785.5224609375
784.60693359375
778.1982421875
771.78955078125
758.97216796875
737.9150390625
718.68896484375
713.19580078125
691.22314453125
666.50390625
652.77099609375
633.544921875
602.4169921875
576.7822265625
551.1474609375
534.66796875
517.27294921875
488.8916015625
466.9189453125
451.35498046875
430.2978515625
406.494140625
392.76123046875
375.3662109375
357.97119140625
343.32275390625
329.58984375
322.265625
301.20849609375
293.88427734375
291.1376953125
279.23583984375
270.08056640625
265.5029296875
254.5166015625
257.26318359375
255.43212890625
245.361328125
240.78369140625
242.61474609375
240.78369140625
233.45947265625
232.5439453125
235.29052734375
234.375
229.79736328125
229.79736328125
228.8818359375
229.79736328125
231.62841796875
227.96630859375
229.79736328125
222.47314453125
224.30419921875
229.79736328125
231.62841796875
226.13525390625
232.5439453125
223.388671875
219.7265625
228.8818359375
236.2060546875
231.62841796875
234.375
239.8681640625
229.79736328125
234.375
235.29052734375
232.5439453125
237.12158203125
237.12158203125
235.29052734375
232.5439453125
234.375
237.12158203125
235.29052734375
233.45947265625
232.5439453125
234.375
233.45947265625
233.45947265625
232.5439453125
234.375
232.5439453125
231.62841796875
235.29052734375
232.5439453125
231.62841796875
227.05078125
231.62841796875
237.12158203125
233.45947265625
227.96630859375
226.13525390625
231.62841796875
224.30419921875
223.388671875
223.388671875
222.47314453125
225.2197265625
231.62841796875
234.375
232.5439453125
233.45947265625
230.712890625
225.2197265625
223.388671875
225.2197265625
222.47314453125
216.064453125
220.64208984375
217.8955078125
216.97998046875
216.97998046875
212.40234375
216.064453125
221.5576171875
213.31787109375
212.40234375
215.14892578125
212.40234375
211.48681640625
211.48681640625
203.2470703125
194.091796875
202.33154296875
206.9091796875
214.2333984375
211.48681640625
204.16259765625
201.416015625
207.82470703125
206.9091796875
208.740234375
212.40234375
205.99365234375
195.9228515625
206.9091796875
202.33154296875
202.33154296875
205.99365234375
205.078125
202.33154296875
198.66943359375
201.416015625
202.33154296875
202.33154296875
205.99365234375
195.00732421875
191.34521484375
198.66943359375
194.091796875
196.83837890625
195.00732421875
193.17626953125
195.9228515625
195.00732421875
195.9228515625
194.091796875
197.75390625
194.091796875
191.34521484375
193.17626953125
187.68310546875
197.75390625
201.416015625
201.416015625
198.66943359375
193.17626953125
198.66943359375
200.50048828125
204.16259765625
195.00732421875
191.34521484375
197.75390625
189.51416015625
189.51416015625
200.50048828125
201.416015625
199.5849609375
197.75390625
195.9228515625
196.83837890625
197.75390625
193.17626953125
192.2607421875
193.17626953125
192.2607421875
186.767578125
182.18994140625
181.2744140625
184.9365234375
192.2607421875
184.9365234375
183.10546875
192.2607421875
189.51416015625
190.4296875
185.85205078125
189.51416015625
191.34521484375
185.85205078125
179.443359375
182.18994140625
192.2607421875
183.10546875
181.2744140625
185.85205078125
185.85205078125
182.18994140625
177.6123046875
174.86572265625
184.02099609375
181.2744140625
182.18994140625
179.443359375
178.52783203125
178.52783203125
179.443359375
183.10546875
193.17626953125
185.85205078125
176.69677734375
186.767578125
186.767578125
181.2744140625
175.78125
182.18994140625
185.85205078125
183.10546875
183.10546875
184.02099609375
178.52783203125
182.18994140625
181.2744140625
178.52783203125
184.02099609375
188.5986328125
184.02099609375
182.18994140625
194.091796875
184.9365234375
184.9365234375
182.18994140625
183.10546875
182.18994140625
177.6123046875
182.18994140625
182.18994140625
184.02099609375
184.9365234375
177.6123046875
178.52783203125
184.02099609375
189.51416015625
185.85205078125
191.34521484375
197.75390625
197.75390625
198.66943359375
195.9228515625
197.75390625
199.5849609375
205.99365234375
203.2470703125
213.31787109375
215.14892578125
224.30419921875
241.69921875
243.5302734375
239.8681640625
239.8681640625
237.12158203125
231.62841796875
232.5439453125
232.5439453125
230.712890625
227.96630859375
232.5439453125
232.5439453125
232.5439453125
231.62841796875
238.95263671875
236.2060546875
233.45947265625
227.96630859375
220.64208984375
230.712890625
239.8681640625
234.375
229.79736328125
221.5576171875
218.81103515625
221.5576171875
221.5576171875
222.47314453125
221.5576171875
218.81103515625
218.81103515625
213.31787109375
219.7265625
211.48681640625
204.16259765625
209.65576171875
208.740234375
198.66943359375
183.10546875
182.18994140625
184.02099609375
178.52783203125
172.119140625
180.35888671875
181.2744140625
184.02099609375
183.10546875
184.9365234375
181.2744140625
184.9365234375
182.18994140625
178.52783203125
185.85205078125
184.02099609375
184.9365234375
182.18994140625
181.2744140625
181.2744140625
184.02099609375
197.75390625
191.34521484375
181.2744140625
177.6123046875
165.71044921875
148.3154296875
149.23095703125
177.6123046875
232.5439453125
328.67431640625
451.35498046875
577.69775390625
706.787109375
856.93359375
1014.404296875
1186.5234375
1337.58544921875
1469.42138671875
1559.14306640625
1601.25732421875
1559.14306640625
1448.3642578125
1226.806640625
1015.31982421875
886.23046875
774.5361328125
652.77099609375
563.04931640625
509.94873046875
457.763671875
420.22705078125
392.76123046875
383.60595703125
379.94384765625
356.14013671875
325.01220703125
313.1103515625
330.50537109375
347.900390625
352.47802734375
348.81591796875
341.49169921875
335.99853515625
327.7587890625
309.4482421875
296.630859375
293.88427734375
297.54638671875
288.39111328125
281.982421875
280.1513671875
286.56005859375
285.64453125
283.8134765625
289.306640625
285.64453125
287.4755859375
282.89794921875
281.06689453125
282.89794921875
282.89794921875
287.4755859375
285.64453125
295.71533203125
301.20849609375
297.54638671875
302.1240234375
303.955078125
303.03955078125
306.70166015625
307.6171875
310.36376953125
311.279296875
312.19482421875
305.7861328125
313.1103515625
314.02587890625
312.19482421875
322.265625
324.0966796875
339.66064453125
345.15380859375
338.7451171875
343.32275390625
341.49169921875
343.32275390625
350.64697265625
350.64697265625
353.3935546875
352.47802734375
367.12646484375
372.61962890625
367.12646484375
365.29541015625
374.45068359375
387.26806640625
386.3525390625
390.0146484375
394.59228515625
393.6767578125
401.0009765625
404.6630859375
412.90283203125
421.142578125
424.8046875
425.72021484375
430.2978515625
443.115234375
439.453125
451.35498046875
458.67919921875
466.9189453125
467.83447265625
471.49658203125
484.31396484375
490.72265625
492.5537109375
499.8779296875
507.2021484375
515.44189453125
525.5126953125
536.4990234375
541.9921875
554.8095703125
561.21826171875
564.88037109375
572.20458984375
587.7685546875
596.00830078125
608.82568359375
624.3896484375
636.29150390625
636.29150390625
642.7001953125
656.43310546875
671.9970703125
683.89892578125
693.9697265625
704.04052734375
710.44921875
720.52001953125
728.759765625
734.2529296875
744.32373046875
750.732421875
750.732421875
765.380859375
762.63427734375
758.056640625
762.63427734375
760.80322265625
749.81689453125
747.0703125
735.16845703125
720.52001953125
704.9560546875
687.56103515625
668.3349609375
654.60205078125
625.30517578125
598.7548828125
579.52880859375
555.72509765625
527.34375
507.2021484375
486.14501953125
466.00341796875
446.77734375
422.05810546875
391.845703125
378.11279296875
358.88671875
342.4072265625
327.7587890625
309.4482421875
296.630859375
282.89794921875
275.57373046875
260.92529296875
249.0234375
244.44580078125
233.45947265625
224.30419921875
221.5576171875
221.5576171875
211.48681640625
204.16259765625
202.33154296875
206.9091796875
209.65576171875
209.65576171875
204.16259765625
201.416015625
199.5849609375
194.091796875
194.091796875
197.75390625
191.34521484375
192.2607421875
193.17626953125
191.34521484375
195.9228515625
193.17626953125
189.51416015625
191.34521484375
193.17626953125
191.34521484375
192.2607421875
197.75390625
193.17626953125
190.4296875
183.10546875
188.5986328125
198.66943359375
198.66943359375
194.091796875
196.83837890625
196.83837890625
198.66943359375
195.00732421875
197.75390625
192.2607421875
194.091796875
195.00732421875
195.00732421875
196.83837890625
187.68310546875
183.10546875
185.85205078125
187.68310546875
203.2470703125
191.34521484375
189.51416015625
190.4296875
195.9228515625
201.416015625
195.9228515625
200.50048828125
198.66943359375
198.66943359375
195.00732421875
195.9228515625
189.51416015625
188.5986328125
190.4296875
189.51416015625
191.34521484375
187.68310546875
182.18994140625
183.10546875
183.10546875
183.10546875
185.85205078125
184.02099609375
180.35888671875
181.2744140625
179.443359375
179.443359375
176.69677734375
173.9501953125
168.45703125
170.2880859375
171.20361328125
161.1328125
170.2880859375
171.20361328125
169.37255859375
166.6259765625
165.71044921875
164.794921875
166.6259765625
168.45703125
178.52783203125
162.9638671875
159.3017578125
166.6259765625
164.794921875
163.87939453125
168.45703125
162.9638671875
162.04833984375
159.3017578125
166.6259765625
152.89306640625
155.6396484375
158.38623046875
154.72412109375
156.55517578125
151.9775390625
152.89306640625
159.3017578125
149.23095703125
142.822265625
155.6396484375
158.38623046875
163.87939453125
159.3017578125
154.72412109375
154.72412109375
154.72412109375
151.06201171875
151.06201171875
151.9775390625
150.146484375
154.72412109375
156.55517578125
149.23095703125
140.9912109375
144.6533203125
152.89306640625
146.484375
150.146484375
153.80859375
151.9775390625
143.73779296875
144.6533203125
146.484375
146.484375
145.56884765625
149.23095703125
153.80859375
153.80859375
151.9775390625
147.39990234375
150.146484375
151.9775390625
146.484375
145.56884765625
149.23095703125
144.6533203125
145.56884765625
145.56884765625
136.41357421875
138.24462890625
146.484375
138.24462890625
137.3291015625
143.73779296875
139.16015625
137.3291015625
146.484375
144.6533203125
139.16015625
137.3291015625
143.73779296875
145.56884765625
138.24462890625
134.58251953125
146.484375
149.23095703125
149.23095703125
142.822265625
140.07568359375
143.73779296875
142.822265625
135.498046875
138.24462890625
137.3291015625
142.822265625
137.3291015625
138.24462890625
147.39990234375
146.484375
137.3291015625
135.498046875
139.16015625
138.24462890625
143.73779296875
140.9912109375
138.24462890625
140.9912109375
135.498046875
137.3291015625
138.24462890625
140.07568359375
138.24462890625
136.41357421875
145.56884765625
140.07568359375
129.08935546875
135.498046875
137.3291015625
136.41357421875
140.9912109375
138.24462890625
137.3291015625
136.41357421875
136.41357421875
130.0048828125
134.58251953125
149.23095703125
130.92041015625
138.24462890625
137.3291015625
136.41357421875
135.498046875
130.0048828125
123.59619140625
133.6669921875
137.3291015625
138.24462890625
138.24462890625
134.58251953125
138.24462890625
137.3291015625
138.24462890625
145.56884765625
135.498046875
134.58251953125
139.16015625
134.58251953125
133.6669921875
134.58251953125
137.3291015625
138.24462890625
128.173828125
124.51171875
136.41357421875
133.6669921875
131.8359375
133.6669921875
132.75146484375
138.24462890625
138.24462890625
131.8359375
136.41357421875
135.498046875
134.58251953125
134.58251953125
128.173828125
125.42724609375
128.173828125
134.58251953125
141.90673828125
140.07568359375
133.6669921875
131.8359375
133.6669921875
135.498046875
130.92041015625
134.58251953125
133.6669921875
136.41357421875
130.0048828125
127.25830078125
139.16015625
133.6669921875
130.0048828125
128.173828125
129.08935546875
133.6669921875
133.6669921875
133.6669921875
136.41357421875
133.6669921875
139.16015625
139.16015625
142.822265625
148.3154296875
151.9775390625
158.38623046875
167.54150390625
173.03466796875
179.443359375
183.10546875
181.2744140625
181.2744140625
176.69677734375
172.119140625
160.21728515625
163.87939453125
172.119140625
167.54150390625
167.54150390625
177.6123046875
170.2880859375
159.3017578125
152.89306640625
176.69677734375
185.85205078125
175.78125
170.2880859375
172.119140625
173.9501953125
176.69677734375
177.6123046875
173.9501953125
164.794921875
159.3017578125
157.470703125
159.3017578125
160.21728515625
164.794921875
151.9775390625
150.146484375
149.23095703125
151.9775390625
153.80859375
138.24462890625
140.9912109375
150.146484375
136.41357421875
124.51171875
121.76513671875
120.849609375
120.849609375
116.27197265625
115.3564453125
111.6943359375
111.6943359375
122.6806640625
121.76513671875
112.60986328125
120.849609375
123.59619140625
126.3427734375
125.42724609375
125.42724609375
126.3427734375
130.0048828125
127.25830078125
130.0048828125
135.498046875
131.8359375
132.75146484375
136.41357421875
120.849609375
103.45458984375
78.7353515625
84.228515625
116.27197265625
165.71044921875
248.10791015625
362.548828125
496.2158203125
622.55859375
767.2119140625
922.8515625
1086.73095703125
1237.79296875
1377.86865234375
1485.90087890625
1541.748046875
1520.69091796875
1423.64501953125
1232.2998046875
1016.2353515625
877.99072265625
769.95849609375
651.85546875
576.7822265625
511.77978515625
453.18603515625
398.25439453125
361.63330078125
355.224609375
344.23828125
317.68798828125
278.3203125
263.671875
292.05322265625
301.20849609375
306.70166015625
303.03955078125
285.64453125
277.40478515625
262.75634765625
249.0234375
242.61474609375
237.12158203125
231.62841796875
221.5576171875
216.97998046875
220.64208984375
226.13525390625
227.96630859375
222.47314453125
221.5576171875
226.13525390625
228.8818359375
228.8818359375
222.47314453125
223.388671875
222.47314453125
219.7265625
225.2197265625
228.8818359375
226.13525390625
229.79736328125
234.375
242.61474609375
234.375
233.45947265625
240.78369140625
244.44580078125
245.361328125
244.44580078125
247.1923828125
251.77001953125
252.685546875
263.671875
267.333984375
266.41845703125
267.333984375
270.99609375
266.41845703125
267.333984375
268.24951171875
280.1513671875
282.89794921875
289.306640625
289.306640625
283.8134765625
292.96875
298.4619140625
301.20849609375
300.29296875
303.03955078125
307.6171875
306.70166015625
316.7724609375
316.7724609375
314.02587890625
329.58984375
330.50537109375
332.33642578125
348.81591796875
358.88671875
353.3935546875
357.97119140625
357.0556640625
370.78857421875
371.7041015625
378.11279296875
379.94384765625
384.521484375
390.93017578125
397.3388671875
405.57861328125
415.6494140625
420.22705078125
425.72021484375
429.38232421875
439.453125
453.18603515625
456.84814453125
456.84814453125
472.412109375
482.48291015625
487.060546875
496.2158203125
508.11767578125
516.357421875
520.01953125
527.34375
545.654296875
558.4716796875
565.7958984375
582.275390625
594.17724609375
606.99462890625
612.48779296875
616.14990234375
632.62939453125
639.95361328125
657.3486328125
667.41943359375
667.41943359375
671.08154296875
679.3212890625
682.9833984375
689.39208984375
689.39208984375
691.22314453125
691.22314453125
679.3212890625
666.50390625
661.0107421875
650.93994140625
636.29150390625
616.14990234375
600.5859375
588.68408203125
565.7958984375
548.40087890625
523.681640625
501.708984375
481.5673828125
457.763671875
432.12890625
407.40966796875
385.43701171875
361.63330078125
339.66064453125
324.0966796875
303.955078125
290.22216796875
276.4892578125
257.26318359375
244.44580078125
231.62841796875
221.5576171875
213.31787109375
208.740234375
201.416015625
185.85205078125
178.52783203125
160.21728515625
157.470703125
155.6396484375
159.3017578125
150.146484375
149.23095703125
147.39990234375
150.146484375
149.23095703125
146.484375
145.56884765625
144.6533203125
140.07568359375
136.41357421875
133.6669921875
139.16015625
133.6669921875
138.24462890625
141.90673828125
140.07568359375
136.41357421875
135.498046875
140.07568359375
135.498046875
139.16015625
136.41357421875
134.58251953125
137.3291015625
140.07568359375
140.07568359375
138.24462890625
138.24462890625
134.58251953125
144.6533203125
149.23095703125
142.822265625
139.16015625
136.41357421875
138.24462890625
145.56884765625
137.3291015625
136.41357421875
132.75146484375
136.41357421875
132.75146484375
128.173828125
130.92041015625
138.24462890625
133.6669921875
128.173828125
145.56884765625
146.484375
138.24462890625
140.9912109375
136.41357421875
130.92041015625
131.8359375
134.58251953125
132.75146484375
128.173828125
125.42724609375
126.3427734375
132.75146484375
130.92041015625
128.173828125
127.25830078125
122.6806640625
120.849609375
121.76513671875
122.6806640625
124.51171875
126.3427734375
127.25830078125
125.42724609375
124.51171875
119.93408203125
117.1875
117.1875
114.44091796875
114.44091796875
116.27197265625
113.525390625
111.6943359375
110.77880859375
114.44091796875
112.60986328125
109.86328125
111.6943359375
108.94775390625
105.28564453125
108.94775390625
105.28564453125
105.28564453125
108.0322265625
111.6943359375
106.201171875
104.3701171875
107.11669921875
104.3701171875
105.28564453125
104.3701171875
106.201171875
104.3701171875
107.11669921875
97.0458984375
93.3837890625
99.79248046875
104.3701171875
101.62353515625
95.21484375
98.876953125
97.96142578125
100.7080078125
96.13037109375
97.96142578125
108.94775390625
96.13037109375
97.0458984375
99.79248046875
105.28564453125
102.5390625
99.79248046875
94.29931640625
97.96142578125
104.3701171875
99.79248046875
96.13037109375
97.0458984375
93.3837890625
98.876953125
100.7080078125
94.29931640625
101.62353515625
103.45458984375
96.13037109375
95.21484375
97.0458984375
95.21484375
95.21484375
95.21484375
96.13037109375
97.96142578125
95.21484375
93.3837890625
92.46826171875
99.79248046875
97.96142578125
86.0595703125
90.63720703125
100.7080078125
90.63720703125
90.63720703125
103.45458984375
90.63720703125
83.31298828125
86.0595703125
91.552734375
96.13037109375
91.552734375
94.29931640625
104.3701171875
98.876953125
101.62353515625
98.876953125
98.876953125
94.29931640625
90.63720703125
92.46826171875
88.80615234375
89.7216796875
106.201171875
96.13037109375
98.876953125
97.96142578125
97.0458984375
94.29931640625
86.97509765625
89.7216796875
95.21484375
88.80615234375
86.97509765625
89.7216796875
87.890625
91.552734375
88.80615234375
91.552734375
88.80615234375
88.80615234375
84.228515625
86.97509765625
85.14404296875
92.46826171875
83.31298828125
81.48193359375
86.97509765625
87.890625
97.0458984375
88.80615234375
84.228515625
86.97509765625
82.3974609375
82.3974609375
95.21484375
91.552734375
86.97509765625
91.552734375
85.14404296875
89.7216796875
94.29931640625
97.0458984375
91.552734375
87.890625
84.228515625
85.14404296875
87.890625
88.80615234375
81.48193359375
87.890625
84.228515625
91.552734375
93.3837890625
90.63720703125
86.0595703125
87.890625
81.48193359375
79.65087890625
86.97509765625
89.7216796875
87.890625
86.0595703125
83.31298828125
90.63720703125
93.3837890625
87.890625
93.3837890625
83.31298828125
88.80615234375
86.97509765625
92.46826171875
88.80615234375
85.14404296875
85.14404296875
81.48193359375
83.31298828125
91.552734375
91.552734375
91.552734375
96.13037109375
94.29931640625
91.552734375
96.13037109375
95.21484375
95.21484375
90.63720703125
89.7216796875
87.890625
83.31298828125
83.31298828125
83.31298828125
89.7216796875
79.65087890625
86.0595703125
87.890625
90.63720703125
105.28564453125
101.62353515625
99.79248046875
99.79248046875
105.28564453125
108.0322265625
109.86328125
123.59619140625
127.25830078125
132.75146484375
138.24462890625
145.56884765625
146.484375
143.73779296875
140.07568359375
126.3427734375
119.0185546875
131.8359375
126.3427734375
124.51171875
129.08935546875
124.51171875
130.92041015625
137.3291015625
135.498046875
140.07568359375
127.25830078125
124.51171875
126.3427734375
131.8359375
136.41357421875
134.58251953125
127.25830078125
119.93408203125
121.76513671875
115.3564453125
118.10302734375
110.77880859375
115.3564453125
105.28564453125
106.201171875
111.6943359375
114.44091796875
105.28564453125
106.201171875
108.94775390625
99.79248046875
89.7216796875
91.552734375
87.890625
79.65087890625
75.98876953125
75.0732421875
72.32666015625
81.48193359375
78.7353515625
78.7353515625
84.228515625
83.31298828125
81.48193359375
78.7353515625
77.81982421875
84.228515625
90.63720703125
82.3974609375
83.31298828125
90.63720703125
89.7216796875
93.3837890625
89.7216796875
86.97509765625
88.80615234375
75.98876953125
49.4384765625
42.1142578125
65.00244140625
97.96142578125
179.443359375
299.37744140625
432.12890625
559.38720703125
694.88525390625
856.01806640625
1032.71484375
1190.185546875
1319.27490234375
1430.0537109375
1491.39404296875
1484.06982421875
1404.4189453125
1205.74951171875
955.810546875
780.029296875
668.3349609375
559.38720703125
472.412109375
408.3251953125
366.2109375
324.0966796875
292.05322265625
273.74267578125
254.5166015625
234.375
218.81103515625
213.31787109375
200.50048828125
216.064453125
238.037109375
245.361328125
252.685546875
249.0234375
230.712890625
214.2333984375
211.48681640625
206.9091796875
203.2470703125
202.33154296875
202.33154296875
207.82470703125
196.83837890625
200.50048828125
196.83837890625
201.416015625
190.4296875
195.00732421875
198.66943359375
195.00732421875
196.83837890625
199.5849609375
192.2607421875
194.091796875
208.740234375
202.33154296875
198.66943359375
203.2470703125
209.65576171875
209.65576171875
213.31787109375
215.14892578125
216.064453125
216.97998046875
220.64208984375
227.05078125
220.64208984375
224.30419921875
232.5439453125
235.29052734375
234.375
241.69921875
242.61474609375
244.44580078125
252.685546875
260.009765625
261.8408203125
265.5029296875
267.333984375
271.91162109375
279.23583984375
276.4892578125
282.89794921875
281.06689453125
287.4755859375
292.96875
298.4619140625
303.955078125
312.19482421875
312.19482421875
313.1103515625
316.7724609375
315.85693359375
322.265625
327.7587890625
330.50537109375
338.7451171875
346.98486328125
342.4072265625
352.47802734375
359.80224609375
368.0419921875
368.0419921875
379.0283203125
383.60595703125
385.43701171875
396.42333984375
402.83203125
411.07177734375
415.6494140625
433.04443359375
446.77734375
453.18603515625
451.35498046875
457.763671875
470.5810546875
471.49658203125
480.65185546875
492.5537109375
509.033203125
517.27294921875
526.42822265625
539.24560546875
550.23193359375
567.626953125
569.4580078125
582.275390625
591.4306640625
601.50146484375
613.4033203125
628.0517578125
633.544921875
648.193359375
658.26416015625
666.50390625
669.25048828125
682.06787109375
689.39208984375
692.138671875
691.22314453125
685.72998046875
692.138671875
687.56103515625
677.490234375
675.6591796875
661.92626953125
653.6865234375
636.29150390625
627.13623046875
607.91015625
586.85302734375
559.38720703125
538.330078125
520.93505859375
497.13134765625
482.48291015625
457.763671875
428.466796875
412.90283203125
382.6904296875
367.12646484375
349.7314453125
324.0966796875
305.7861328125
291.1376953125
271.91162109375
260.009765625
244.44580078125
231.62841796875
216.97998046875
196.83837890625
191.34521484375
191.34521484375
184.02099609375
182.18994140625
176.69677734375
166.6259765625
169.37255859375
164.794921875
159.3017578125
156.55517578125
160.21728515625
153.80859375
148.3154296875
151.06201171875
153.80859375
145.56884765625
139.16015625
143.73779296875
148.3154296875
136.41357421875
140.9912109375
143.73779296875
143.73779296875
141.90673828125
144.6533203125
153.80859375
153.80859375
151.06201171875
155.6396484375
151.9775390625
152.89306640625
162.9638671875
154.72412109375
154.72412109375
150.146484375
162.9638671875
162.9638671875
159.3017578125
160.21728515625
160.21728515625
158.38623046875
167.54150390625
165.71044921875
163.87939453125
163.87939453125
162.9638671875
159.3017578125
162.9638671875
162.04833984375
164.794921875
165.71044921875
170.2880859375
168.45703125
166.6259765625
157.470703125
163.87939453125
165.71044921875
165.71044921875
162.04833984375
161.1328125
166.6259765625
172.119140625
172.119140625
165.71044921875
164.794921875
168.45703125
165.71044921875
159.3017578125
161.1328125
166.6259765625
165.71044921875
160.21728515625
160.21728515625
166.6259765625
175.78125
173.9501953125
171.20361328125
170.2880859375
168.45703125
162.9638671875
156.55517578125
151.06201171875
153.80859375
162.9638671875
164.794921875
162.04833984375
158.38623046875
160.21728515625
154.72412109375
155.6396484375
155.6396484375
155.6396484375
161.1328125
154.72412109375
148.3154296875
161.1328125
155.6396484375
150.146484375
153.80859375
157.470703125
157.470703125
155.6396484375
149.23095703125
156.55517578125
154.72412109375
162.04833984375
159.3017578125
147.39990234375
145.56884765625
152.89306640625
156.55517578125
163.87939453125
157.470703125
159.3017578125
161.1328125
160.21728515625
157.470703125
151.9775390625
151.9775390625
156.55517578125
151.06201171875
153.80859375
150.146484375
149.23095703125
146.484375
153.80859375
155.6396484375
157.470703125
153.80859375
159.3017578125
151.06201171875
141.90673828125
149.23095703125
150.146484375
156.55517578125
154.72412109375
149.23095703125
151.06201171875
150.146484375
159.3017578125
153.80859375
153.80859375
156.55517578125
152.89306640625
152.89306640625
153.80859375
150.146484375
155.6396484375
151.9775390625
155.6396484375
156.55517578125
152.89306640625
157.470703125
159.3017578125
152.89306640625
156.55517578125
148.3154296875
144.6533203125
146.484375
158.38623046875
153.80859375
155.6396484375
158.38623046875
153.80859375
151.06201171875
154.72412109375
151.9775390625
151.9775390625
153.80859375
151.9775390625
160.21728515625
148.3154296875
149.23095703125
154.72412109375
158.38623046875
151.06201171875
146.484375
150.146484375
151.9775390625
151.9775390625
147.39990234375
155.6396484375
156.55517578125
152.89306640625
157.470703125
151.9775390625
150.146484375
151.06201171875
148.3154296875
153.80859375
151.9775390625
156.55517578125
153.80859375
154.72412109375
156.55517578125
151.06201171875
153.80859375
156.55517578125
158.38623046875
152.89306640625
151.9775390625
151.9775390625
152.89306640625
151.06201171875
155.6396484375
161.1328125
161.1328125
162.9638671875
165.71044921875
168.45703125
166.6259765625
162.04833984375
169.37255859375
171.20361328125
174.86572265625
178.52783203125
188.5986328125
189.51416015625
195.9228515625
206.9091796875
206.9091796875
214.2333984375
207.82470703125
211.48681640625
213.31787109375
207.82470703125
206.9091796875
214.2333984375
211.48681640625
215.14892578125
216.064453125
203.2470703125
207.82470703125
218.81103515625
219.7265625
216.064453125
207.82470703125
215.14892578125
209.65576171875
220.64208984375
217.8955078125
211.48681640625
208.740234375
216.064453125
203.2470703125
199.5849609375
206.9091796875
195.00732421875
205.078125
204.16259765625
201.416015625
204.16259765625
200.50048828125
193.17626953125
191.34521484375
192.2607421875
185.85205078125
180.35888671875
171.20361328125
173.9501953125
171.20361328125
165.71044921875
167.54150390625
175.78125
169.37255859375
167.54150390625
163.87939453125
165.71044921875
172.119140625
174.86572265625
165.71044921875
163.87939453125
171.20361328125
171.20361328125
180.35888671875
184.02099609375
184.02099609375
190.4296875
195.00732421875
190.4296875
191.34521484375
178.52783203125
164.794921875
150.146484375
140.07568359375
159.3017578125
194.091796875
257.26318359375
375.3662109375
511.77978515625
639.0380859375
787.353515625
943.90869140625
1114.19677734375
1286.31591796875
1424.560546875
1534.423828125
1601.25732421875
1604.00390625
1528.01513671875
1371.4599609375
1117.85888671875
925.59814453125
805.6640625
694.88525390625
592.34619140625
520.01953125
477.9052734375
431.21337890625
393.6767578125
383.60595703125
376.28173828125
345.15380859375
325.927734375
313.1103515625
307.6171875
323.18115234375
344.23828125
347.900390625
346.0693359375
341.49169921875
333.251953125
327.7587890625
318.603515625
315.85693359375
307.6171875
303.955078125
298.4619140625
297.54638671875
295.71533203125
295.71533203125
293.88427734375
295.71533203125
289.306640625
296.630859375
298.4619140625
300.29296875
299.37744140625
298.4619140625
304.87060546875
301.20849609375
305.7861328125
306.70166015625
304.87060546875
309.4482421875
314.02587890625
322.265625
314.94140625
315.85693359375
321.35009765625
323.18115234375
330.50537109375
333.251953125
335.99853515625
337.82958984375
338.7451171875
336.9140625
342.4072265625
340.576171875
350.64697265625
353.3935546875
354.30908203125
362.548828125
370.78857421875
364.3798828125
375.3662109375
376.28173828125
379.0283203125
383.60595703125
383.60595703125
389.09912109375
390.0146484375
406.494140625
401.91650390625
403.74755859375
416.56494140625
421.142578125
416.56494140625
416.56494140625
422.05810546875
432.12890625
434.87548828125
442.19970703125
451.35498046875
449.52392578125
453.18603515625
456.84814453125
465.087890625
474.2431640625
480.65185546875
488.8916015625
495.30029296875
499.8779296875
500.79345703125
510.8642578125
525.5126953125
526.42822265625
539.24560546875
546.56982421875
550.23193359375
564.88037109375
570.37353515625
576.7822265625
586.85302734375
599.67041015625
610.65673828125
613.4033203125
624.3896484375
637.20703125
645.44677734375
659.1796875
671.9970703125
674.74365234375
684.814453125
696.71630859375
706.787109375
713.19580078125
726.01318359375
737.9150390625
747.0703125
756.2255859375
761.71875
769.95849609375
774.5361328125
782.77587890625
783.69140625
784.60693359375
780.94482421875
772.705078125
769.04296875
758.97216796875
756.2255859375
747.98583984375
730.5908203125
715.02685546875
699.462890625
677.490234375
658.26416015625
628.96728515625
608.82568359375
586.85302734375
563.04931640625
540.1611328125
523.681640625
495.30029296875
469.66552734375
443.115234375
427.55126953125
411.9873046875
395.5078125
373.53515625
363.46435546875
344.23828125
328.67431640625
313.1103515625
303.03955078125
291.1376953125
284.72900390625
281.06689453125
267.333984375
256.34765625
258.1787109375
250.8544921875
248.10791015625
246.27685546875
242.61474609375
235.29052734375
235.29052734375
235.29052734375
238.037109375
227.96630859375
228.8818359375
238.037109375
238.95263671875
241.69921875
233.45947265625
238.037109375
238.037109375
236.2060546875
237.12158203125
230.712890625
233.45947265625
228.8818359375
231.62841796875
239.8681640625
238.95263671875
237.12158203125
235.29052734375
234.375
236.2060546875
238.037109375
237.12158203125
234.375
238.95263671875
235.29052734375
238.037109375
234.375
241.69921875
240.78369140625
237.12158203125
240.78369140625
235.29052734375
232.5439453125
235.29052734375
239.8681640625
241.69921875
228.8818359375
229.79736328125
231.62841796875
235.29052734375
244.44580078125
238.037109375
236.2060546875
238.95263671875
243.5302734375
233.45947265625
240.78369140625
234.375
235.29052734375
234.375
230.712890625
237.12158203125
241.69921875
242.61474609375
247.1923828125
241.69921875
233.45947265625
231.62841796875
236.2060546875
231.62841796875
227.96630859375
226.13525390625
234.375
228.8818359375
227.05078125
231.62841796875
239.8681640625
233.45947265625
227.05078125
230.712890625
225.2197265625
226.13525390625
227.05078125
226.13525390625
222.47314453125
219.7265625
221.5576171875
217.8955078125
224.30419921875
220.64208984375
224.30419921875
220.64208984375
221.5576171875
216.064453125
221.5576171875
218.81103515625
216.97998046875
218.81103515625
213.31787109375
205.99365234375
208.740234375
208.740234375
221.5576171875
229.79736328125
217.8955078125
213.31787109375
214.2333984375
210.5712890625
205.99365234375
209.65576171875
219.7265625
218.81103515625
210.5712890625
211.48681640625
211.48681640625
205.99365234375
209.65576171875
216.064453125
211.48681640625
203.2470703125
210.5712890625
209.65576171875
208.740234375
205.99365234375
214.2333984375
206.9091796875
212.40234375
213.31787109375
214.2333984375
206.9091796875
204.16259765625
208.740234375
205.99365234375
205.078125
202.33154296875
198.66943359375
207.82470703125
212.40234375
212.40234375
213.31787109375
214.2333984375
195.00732421875
202.33154296875
211.48681640625
205.99365234375
201.416015625
201.416015625
204.16259765625
209.65576171875
203.2470703125
206.9091796875
196.83837890625
201.416015625
205.99365234375
205.99365234375
205.078125
205.078125
204.16259765625
207.82470703125
207.82470703125
205.078125
207.82470703125
200.50048828125
202.33154296875
204.16259765625
205.99365234375
198.66943359375
196.83837890625
195.00732421875
197.75390625
201.416015625
200.50048828125
198.66943359375
195.00732421875
194.091796875
197.75390625
203.2470703125
195.9228515625
195.9228515625
198.66943359375
201.416015625
205.078125
200.50048828125
197.75390625
195.00732421875
195.9228515625
198.66943359375
192.2607421875
196.83837890625
197.75390625
195.00732421875
191.34521484375
200.50048828125
201.416015625
202.33154296875
195.00732421875
200.50048828125
200.50048828125
195.9228515625
199.5849609375
196.83837890625
195.9228515625
195.9228515625
195.00732421875
195.9228515625
200.50048828125
204.16259765625
195.9228515625
203.2470703125
202.33154296875
188.5986328125
197.75390625
198.66943359375
191.34521484375
195.9228515625
202.33154296875
197.75390625
197.75390625
192.2607421875
195.00732421875
197.75390625
192.2607421875
190.4296875
193.17626953125
195.9228515625
195.00732421875
188.5986328125
197.75390625
201.416015625
206.9091796875
198.66943359375
201.416015625
198.66943359375
197.75390625
197.75390625
201.416015625
197.75390625
196.83837890625
201.416015625
204.16259765625
206.9091796875
209.65576171875
209.65576171875
208.740234375
213.31787109375
224.30419921875
237.12158203125
234.375
238.95263671875
249.93896484375
246.27685546875
249.0234375
238.95263671875
242.61474609375
235.29052734375
228.8818359375
231.62841796875
234.375
233.45947265625
238.037109375
233.45947265625
230.712890625
232.5439453125
240.78369140625
236.2060546875
238.95263671875
244.44580078125
238.037109375
247.1923828125
245.361328125
240.78369140625
235.29052734375
223.388671875
216.97998046875
219.7265625
222.47314453125
222.47314453125
221.5576171875
213.31787109375
209.65576171875
206.9091796875
214.2333984375
207.82470703125
208.740234375
206.9091796875
201.416015625
195.9228515625
184.02099609375
184.9365234375
182.18994140625
184.02099609375
179.443359375
183.10546875
180.35888671875
181.2744140625
178.52783203125
180.35888671875
184.9365234375
184.02099609375
184.02099609375
181.2744140625
178.52783203125
184.02099609375
182.18994140625
187.68310546875
192.2607421875
191.34521484375
192.2607421875
192.2607421875
183.10546875
182.18994140625
161.1328125
144.6533203125
157.470703125
185.85205078125
243.5302734375
338.7451171875
467.83447265625
591.4306640625
723.2666015625
880.7373046875
1040.95458984375
1203.91845703125
1354.06494140625
1482.23876953125
1560.97412109375
1586.60888671875
1534.423828125
1403.50341796875
1178.28369140625
995.17822265625
890.80810546875
777.28271484375
677.490234375
594.17724609375
529.1748046875
476.98974609375
429.38232421875
404.6630859375
410.15625
390.93017578125
356.14013671875
321.35009765625
319.51904296875
338.7451171875
349.7314453125
345.15380859375
335.0830078125
325.927734375
317.68798828125
305.7861328125
292.96875
290.22216796875
285.64453125
279.23583984375
270.08056640625
270.99609375
280.1513671875
274.658203125
270.08056640625
260.92529296875
263.671875
264.58740234375
259.09423828125
271.91162109375
272.8271484375
270.08056640625
268.24951171875
270.99609375
269.1650390625
270.08056640625
277.40478515625
279.23583984375
273.74267578125
278.3203125
275.57373046875
281.982421875
280.1513671875
292.05322265625
287.4755859375
286.56005859375
293.88427734375
289.306640625
288.39111328125
295.71533203125
292.05322265625
297.54638671875
296.630859375
297.54638671875
296.630859375
310.36376953125
312.19482421875
314.02587890625
320.4345703125
323.18115234375
326.84326171875
327.7587890625
324.0966796875
332.33642578125
345.15380859375
345.15380859375
344.23828125
348.81591796875
345.15380859375
344.23828125
352.47802734375
361.63330078125
361.63330078125
378.11279296875
380.859375
380.859375
382.6904296875
388.18359375
398.25439453125
398.25439453125
401.0009765625
408.3251953125
416.56494140625
414.73388671875
421.142578125
422.05810546875
427.55126953125
438.53759765625
446.77734375
447.69287109375
458.67919921875
476.98974609375
478.82080078125
490.72265625
496.2158203125
505.37109375
508.11767578125
508.11767578125
521.8505859375
532.8369140625
547.4853515625
563.04931640625
567.626953125
576.7822265625
583.19091796875
592.34619140625
598.7548828125
611.572265625
624.3896484375
638.12255859375
646.3623046875
652.77099609375
662.841796875
673.828125
686.6455078125
685.72998046875
688.4765625
700.37841796875
704.9560546875
712.2802734375
715.9423828125
714.111328125
704.9560546875
704.9560546875
692.138671875
688.4765625
671.9970703125
661.0107421875
634.46044921875
623.47412109375
611.572265625
593.26171875
566.71142578125
543.8232421875
517.27294921875
494.384765625
478.82080078125
448.6083984375
428.466796875
407.40966796875
388.18359375
367.12646484375
343.32275390625
325.01220703125
303.03955078125
286.56005859375
276.4892578125
261.8408203125
243.5302734375
233.45947265625
220.64208984375
205.078125
186.767578125
182.18994140625
179.443359375
178.52783203125
175.78125
173.03466796875
173.9501953125
173.03466796875
162.04833984375
155.6396484375
153.80859375
153.80859375
147.39990234375
140.9912109375
136.41357421875
137.3291015625
142.822265625
137.3291015625
140.9912109375
139.16015625
140.07568359375
140.9912109375
145.56884765625
140.07568359375
141.90673828125
141.90673828125
143.73779296875
142.822265625
141.90673828125
140.9912109375
130.92041015625
134.58251953125
132.75146484375
129.08935546875
138.24462890625
131.8359375
132.75146484375
134.58251953125
136.41357421875
139.16015625
137.3291015625
140.07568359375
139.16015625
140.9912109375
143.73779296875
134.58251953125
135.498046875
135.498046875
134.58251953125
129.08935546875
126.3427734375
122.6806640625
135.498046875
136.41357421875
133.6669921875
127.25830078125
136.41357421875
124.51171875
119.0185546875
130.0048828125
127.25830078125
123.59619140625
129.08935546875
123.59619140625
124.51171875
114.44091796875
117.1875
113.525390625
116.27197265625
117.1875
110.77880859375
112.60986328125
112.60986328125
117.1875
121.76513671875
117.1875
111.6943359375
115.3564453125
113.525390625
110.77880859375
114.44091796875
112.60986328125
105.28564453125
116.27197265625
107.11669921875
104.3701171875
97.96142578125
102.5390625
106.201171875
107.11669921875
107.11669921875
96.13037109375
103.45458984375
97.0458984375
89.7216796875
87.890625
95.21484375
102.5390625
104.3701171875
101.62353515625
97.96142578125
91.552734375
87.890625
88.80615234375
88.80615234375
87.890625
83.31298828125
86.0595703125
84.228515625
85.14404296875
79.65087890625
80.56640625
79.65087890625
78.7353515625
75.98876953125
69.580078125
75.0732421875
81.48193359375
82.3974609375
86.97509765625
82.3974609375
85.14404296875
92.46826171875
92.46826171875
76.904296875
84.228515625
90.63720703125
78.7353515625
70.49560546875
74.15771484375
75.98876953125
69.580078125
67.7490234375
70.49560546875
75.0732421875
74.15771484375
72.32666015625
74.15771484375
76.904296875
77.81982421875
76.904296875
75.0732421875
65.00244140625
66.83349609375
69.580078125
70.49560546875
70.49560546875
66.83349609375
71.4111328125
74.15771484375
65.91796875
66.83349609375
65.91796875
76.904296875
75.0732421875
74.15771484375
71.4111328125
65.00244140625
70.49560546875
64.0869140625
65.00244140625
66.83349609375
57.67822265625
58.59375
63.17138671875
63.17138671875
70.49560546875
79.65087890625
74.15771484375
70.49560546875
64.0869140625
68.66455078125
67.7490234375
65.00244140625
55.84716796875
54.01611328125
58.59375
59.50927734375
53.1005859375
48.52294921875
62.255859375
59.50927734375
57.67822265625
59.50927734375
63.17138671875
56.7626953125
58.59375
58.59375
57.67822265625
60.4248046875
64.0869140625
59.50927734375
61.34033203125
57.67822265625
58.59375
65.91796875
56.7626953125
61.34033203125
65.91796875
60.4248046875
55.84716796875
44.86083984375
56.7626953125
52.18505859375
54.01611328125
52.18505859375
51.26953125
54.931640625
62.255859375
51.26953125
49.4384765625
50.35400390625
59.50927734375
51.26953125
47.607421875
43.02978515625
41.19873046875
44.86083984375
43.9453125
41.19873046875
44.86083984375
45.7763671875
58.59375
55.84716796875
50.35400390625
48.52294921875
49.4384765625
42.1142578125
42.1142578125
36.62109375
47.607421875
55.84716796875
52.18505859375
46.69189453125
51.26953125
55.84716796875
53.1005859375
47.607421875
57.67822265625
54.931640625
54.01611328125
58.59375
68.66455078125
75.0732421875
81.48193359375
86.0595703125
91.552734375
91.552734375
92.46826171875
88.80615234375
78.7353515625
72.32666015625
73.2421875
83.31298828125
86.0595703125
81.48193359375
81.48193359375
86.97509765625
85.14404296875
95.21484375
94.29931640625
79.65087890625
76.904296875
83.31298828125
86.0595703125
86.97509765625
81.48193359375
79.65087890625
72.32666015625
76.904296875
71.4111328125
69.580078125
71.4111328125
69.580078125
69.580078125
60.4248046875
58.59375
59.50927734375
46.69189453125
47.607421875
50.35400390625
44.86083984375
34.7900390625
35.70556640625
37.53662109375
28.38134765625
29.296875
29.296875
25.634765625
29.296875
24.71923828125
17.39501953125
18.310546875
21.97265625
14.6484375
21.97265625
19.22607421875
24.71923828125
25.634765625
35.70556640625
32.958984375
31.1279296875
39.36767578125
40.283203125
49.4384765625
51.26953125
40.283203125
29.296875
9.1552734375
-9.1552734375
-0.91552734375
28.38134765625
83.31298828125
190.4296875
331.4208984375
455.9326171875
581.35986328125
739.74609375
915.52734375
1097.71728515625
1229.55322265625
1354.06494140625
1433.7158203125
1435.546875
1376.03759765625
1224.06005859375
954.89501953125
738.83056640625
615.234375
505.37109375
402.83203125
326.84326171875
288.39111328125
269.1650390625
232.5439453125
203.2470703125
193.17626953125
173.9501953125
151.06201171875
142.822265625
130.0048828125
130.0048828125
149.23095703125
170.2880859375
183.10546875
180.35888671875
171.20361328125
166.6259765625
162.04833984375
149.23095703125
129.08935546875
129.08935546875
127.25830078125
123.59619140625
123.59619140625
123.59619140625
132.75146484375
129.08935546875
127.25830078125
125.42724609375
128.173828125
135.498046875
135.498046875
132.75146484375
127.25830078125
129.08935546875
128.173828125
125.42724609375
141.90673828125
139.16015625
131.8359375
135.498046875
140.9912109375
152.89306640625
152.89306640625
147.39990234375
151.9775390625
146.484375
157.470703125
160.21728515625
162.04833984375
161.1328125
165.71044921875
171.20361328125
165.71044921875
172.119140625
177.6123046875
174.86572265625
184.9365234375
176.69677734375
180.35888671875
185.85205078125
184.9365234375
192.2607421875
197.75390625
200.50048828125
201.416015625
212.40234375
216.97998046875
216.064453125
223.388671875
219.7265625
222.47314453125
238.037109375
224.30419921875
235.29052734375
242.61474609375
247.1923828125
257.26318359375
268.24951171875
272.8271484375
278.3203125
279.23583984375
282.89794921875
292.96875
297.54638671875
303.03955078125
302.1240234375
307.6171875
316.7724609375
324.0966796875
328.67431640625
332.33642578125
343.32275390625
346.98486328125
348.81591796875
364.3798828125
375.3662109375
381.77490234375
401.0009765625
402.83203125
417.48046875
431.21337890625
433.04443359375
443.115234375
456.84814453125
465.087890625
483.3984375
489.80712890625
492.5537109375
515.44189453125
522.76611328125
541.07666015625
541.07666015625
549.31640625
553.89404296875
563.96484375
570.37353515625
580.4443359375
584.1064453125
589.599609375
596.923828125
593.26171875
589.599609375
588.68408203125
582.275390625
570.37353515625
563.96484375
549.31640625
528.25927734375
511.77978515625
484.31396484375
466.9189453125
450.439453125
427.55126953125
405.57861328125
380.859375
355.224609375
327.7587890625
303.03955078125
287.4755859375
261.8408203125
240.78369140625
215.14892578125
197.75390625
184.02099609375
162.04833984375
144.6533203125
136.41357421875
114.44091796875
103.45458984375
94.29931640625
78.7353515625
71.4111328125
61.34033203125
58.59375
54.931640625
43.02978515625
35.70556640625
29.296875
26.55029296875
19.22607421875
18.310546875
12.8173828125
14.6484375
21.05712890625
19.22607421875
12.8173828125
1.8310546875
1.8310546875
3.662109375
5.4931640625
4.57763671875
7.32421875
3.662109375
3.662109375
-4.57763671875
-8.23974609375
-1.8310546875
6.40869140625
2.74658203125
2.74658203125
5.4931640625
2.74658203125
0
1.8310546875
6.40869140625
9.1552734375
2.74658203125
9.1552734375
2.74658203125
7.32421875
8.23974609375
-5.4931640625
-8.23974609375
-0.91552734375
-1.8310546875
-3.662109375
3.662109375
10.986328125
3.662109375
2.74658203125
4.57763671875
3.662109375
4.57763671875
0
1.8310546875
-6.40869140625
-0.91552734375
-1.8310546875
0.91552734375
4.57763671875
-7.32421875
-8.23974609375
-7.32421875
-8.23974609375
-10.07080078125
-4.57763671875
-6.40869140625
-18.310546875
-6.40869140625
0
-8.23974609375
-16.4794921875
-13.73291015625
-7.32421875
-15.56396484375
-13.73291015625
-14.6484375
-19.22607421875
-24.71923828125
-12.8173828125
-15.56396484375
-16.4794921875
-17.39501953125
-23.8037109375
-23.8037109375
-23.8037109375
-25.634765625
-29.296875
-26.55029296875
-24.71923828125
-24.71923828125
-21.97265625
-20.1416015625
-19.22607421875
-18.310546875
-29.296875
-27.4658203125
-30.21240234375
-31.1279296875
-34.7900390625
-32.958984375
-31.1279296875
-30.21240234375
-32.04345703125
-38.4521484375
-32.958984375
-36.62109375
-41.19873046875
-34.7900390625
-32.958984375
-38.4521484375
-40.283203125
-33.87451171875
-37.53662109375
-39.36767578125
-43.02978515625
-47.607421875
-43.9453125
-43.9453125
-39.36767578125
-34.7900390625
-37.53662109375
-41.19873046875
-38.4521484375
-40.283203125
-53.1005859375
-55.84716796875
-42.1142578125
-41.19873046875
-42.1142578125
-40.283203125
-44.86083984375
-37.53662109375
-43.02978515625
-46.69189453125
-46.69189453125
-47.607421875
-46.69189453125
-43.9453125
-43.02978515625
-42.1142578125
-38.4521484375
-44.86083984375
-43.02978515625
-41.19873046875
-39.36767578125
-43.02978515625
-49.4384765625
-51.26953125
-47.607421875
-36.62109375
-39.36767578125
-36.62109375
-38.4521484375
-40.283203125
-42.1142578125
-53.1005859375
-53.1005859375
-48.52294921875
-43.9453125
-43.02978515625
-45.7763671875
-50.35400390625
-49.4384765625
-36.62109375
-34.7900390625
-40.283203125
-36.62109375
-33.87451171875
-32.04345703125
-29.296875
-26.55029296875
-23.8037109375
-28.38134765625
-36.62109375
-24.71923828125
-27.4658203125
-15.56396484375
-8.23974609375
0
3.662109375
8.23974609375
4.57763671875
-8.23974609375
-16.4794921875
-1.8310546875
-6.40869140625
-9.1552734375
4.57763671875
1.8310546875
-7.32421875
-0.91552734375
2.74658203125
14.6484375
5.4931640625
-8.23974609375
-7.32421875
-1.8310546875
3.662109375
-0.91552734375
-0.91552734375
-7.32421875
-10.986328125
-10.986328125
-20.1416015625
-11.90185546875
-12.8173828125
-26.55029296875
-34.7900390625
-36.62109375
-37.53662109375
-46.69189453125
-39.36767578125
-30.21240234375
-34.7900390625
-43.02978515625
-48.52294921875
-59.50927734375
-62.255859375
-61.34033203125
-52.18505859375
-57.67822265625
-62.255859375
-66.83349609375
-62.255859375
-62.255859375
-66.83349609375
-62.255859375
-68.66455078125
-60.4248046875
-59.50927734375
-62.255859375
-60.4248046875
-55.84716796875
-55.84716796875
-57.67822265625
-55.84716796875
-49.4384765625
-54.931640625
-58.59375
-65.91796875
-82.3974609375
-103.45458984375
-103.45458984375
-82.3974609375
-32.958984375
67.7490234375
201.416015625
335.0830078125
472.412109375
617.0654296875
769.95849609375
960.38818359375
1122.4365234375
1239.6240234375
1322.93701171875
1361.38916015625
1322.021484375
1210.3271484375
986.9384765625
713.19580078125
551.1474609375
430.2978515625
319.51904296875
237.12158203125
178.52783203125
151.9775390625
140.07568359375
109.86328125
87.890625
68.66455078125
56.7626953125
41.19873046875
41.19873046875
34.7900390625
43.02978515625
75.98876953125
90.63720703125
73.2421875
68.66455078125
69.580078125
61.34033203125
62.255859375
54.931640625
40.283203125
36.62109375
37.53662109375
25.634765625
26.55029296875
29.296875
36.62109375
41.19873046875
41.19873046875
33.87451171875
24.71923828125
34.7900390625
44.86083984375
46.69189453125
48.52294921875
42.1142578125
32.958984375
39.36767578125
47.607421875
46.69189453125
27.4658203125
25.634765625
46.69189453125
61.34033203125
57.67822265625
62.255859375
64.0869140625
73.2421875
84.228515625
80.56640625
80.56640625
82.3974609375
81.48193359375
70.49560546875
73.2421875
80.56640625
96.13037109375
89.7216796875
102.5390625
103.45458984375
102.5390625
113.525390625
115.3564453125
117.1875
120.849609375
116.27197265625
119.0185546875
130.92041015625
133.6669921875
131.8359375
143.73779296875
146.484375
146.484375
157.470703125
173.9501953125
192.2607421875
187.68310546875
178.52783203125
179.443359375
188.5986328125
195.00732421875
192.2607421875
195.00732421875
199.5849609375
204.16259765625
213.31787109375
229.79736328125
234.375
245.361328125
249.93896484375
259.09423828125
270.99609375
274.658203125
283.8134765625
302.1240234375
309.4482421875
314.94140625
322.265625
344.23828125
349.7314453125
354.30908203125
356.14013671875
369.873046875
381.77490234375
387.26806640625
407.40966796875
420.22705078125
431.21337890625
441.2841796875
455.01708984375
469.66552734375
477.9052734375
481.5673828125
475.15869140625
484.31396484375
498.96240234375
504.45556640625
516.357421875
512.6953125
509.033203125
523.681640625
522.76611328125
501.708984375
500.79345703125
484.31396484375
470.5810546875
456.84814453125
435.791015625
420.22705078125
404.6630859375
384.521484375
364.3798828125
330.50537109375
308.53271484375
283.8134765625
260.009765625
246.27685546875
216.97998046875
201.416015625
172.119140625
152.89306640625
131.8359375
99.79248046875
73.2421875
82.3974609375
66.83349609375
42.1142578125
26.55029296875
23.8037109375
13.73291015625
8.23974609375
-8.23974609375
-25.634765625
-21.97265625
-21.97265625
-23.8037109375
-38.4521484375
-36.62109375
-47.607421875
-45.7763671875
-56.7626953125
-56.7626953125
-65.91796875
-75.0732421875
-72.32666015625
-50.35400390625
-53.1005859375
-59.50927734375
-58.59375
-58.59375
-53.1005859375
-58.59375
-63.17138671875
-51.26953125
-56.7626953125
-66.83349609375
-70.49560546875
-64.0869140625
-51.26953125
-56.7626953125
-65.91796875
-65.00244140625
-57.67822265625
-53.1005859375
-50.35400390625
-53.1005859375
-65.91796875
-62.255859375
-53.1005859375
-42.1142578125
-45.7763671875
-47.607421875
-54.931640625
-53.1005859375
-54.931640625
-54.931640625
-47.607421875
-48.52294921875
-39.36767578125
-37.53662109375
-37.53662109375
-43.9453125
-48.52294921875
-39.36767578125
-42.1142578125
-40.283203125
-51.26953125
-43.02978515625
-45.7763671875
-54.931640625
-52.18505859375
-50.35400390625
-41.19873046875
-50.35400390625
-45.7763671875
-39.36767578125
-34.7900390625
-41.19873046875
-43.02978515625
-56.7626953125
-52.18505859375
-41.19873046875
-41.19873046875
-54.931640625
-39.36767578125
-36.62109375
-48.52294921875
-54.01611328125
-54.01611328125
-49.4384765625
-52.18505859375
-60.4248046875
-48.52294921875
-47.607421875
-63.17138671875
-48.52294921875
-48.52294921875
-51.26953125
-56.7626953125
-43.9453125
-38.4521484375
-38.4521484375
-39.36767578125
-51.26953125
-41.19873046875
-46.69189453125
-54.01611328125
-49.4384765625
-50.35400390625
-51.26953125
-45.7763671875
-41.19873046875
-47.607421875
-42.1142578125
-43.02978515625
-47.607421875
-49.4384765625
-45.7763671875
-47.607421875
-45.7763671875
-40.283203125
-48.52294921875
-49.4384765625
-52.18505859375
-44.86083984375
-35.70556640625
-46.69189453125
-42.1142578125
-45.7763671875
-47.607421875
-54.01611328125
-49.4384765625
-56.7626953125
-51.26953125
-39.36767578125
-42.1142578125
-43.02978515625
-37.53662109375
-33.87451171875
-22.88818359375
-24.71923828125
-36.62109375
-29.296875
-34.7900390625
-38.4521484375
-43.02978515625
-31.1279296875
-33.87451171875
-29.296875
-24.71923828125
-16.4794921875
-21.05712890625
-31.1279296875
-23.8037109375
-33.87451171875
-26.55029296875
-20.1416015625
-26.55029296875
-22.88818359375
-12.8173828125
-15.56396484375
-21.05712890625
-18.310546875
-13.73291015625
-21.05712890625
-14.6484375
-10.07080078125
-19.22607421875
-18.310546875
-16.4794921875
-7.32421875
-0.91552734375
-8.23974609375
-10.07080078125
-3.662109375
3.662109375
7.32421875
0
0.91552734375
3.662109375
1.8310546875
-3.662109375
0.91552734375
6.40869140625
10.07080078125
6.40869140625
11.90185546875
9.1552734375
5.4931640625
0
13.73291015625
24.71923828125
32.04345703125
27.4658203125
32.04345703125
42.1142578125
32.958984375
26.55029296875
40.283203125
48.52294921875
58.59375
60.4248046875
74.15771484375
85.14404296875
92.46826171875
88.80615234375
91.552734375
97.0458984375
79.65087890625
75.0732421875
90.63720703125
94.29931640625
93.3837890625
80.56640625
81.48193359375
82.3974609375
87.890625
102.5390625
107.11669921875
97.96142578125
97.96142578125
99.79248046875
97.0458984375
106.201171875
107.11669921875
97.96142578125
101.62353515625
91.552734375
84.228515625
88.80615234375
85.14404296875
86.97509765625
89.7216796875
90.63720703125
94.29931640625
96.13037109375
87.890625
91.552734375
97.96142578125
99.79248046875
84.228515625
74.15771484375
69.580078125
65.00244140625
71.4111328125
67.7490234375
63.17138671875
71.4111328125
83.31298828125
76.904296875
77.81982421875
87.890625
88.80615234375
90.63720703125
97.0458984375
96.13037109375
94.29931640625
96.13037109375
91.552734375
89.7216796875
99.79248046875
101.62353515625
101.62353515625
94.29931640625
106.201171875
96.13037109375
92.46826171875
86.97509765625
82.3974609375
117.1875
187.68310546875
295.71533203125
425.72021484375
560.302734375
690.3076171875
847.7783203125
1021.728515625
1172.79052734375
1308.28857421875
1437.3779296875
1518.85986328125
1539.00146484375
1460.26611328125
1299.13330078125
1080.322265625
917.3583984375
807.4951171875
691.22314453125
597.83935546875
530.09033203125
478.82080078125
422.05810546875
382.6904296875
372.61962890625
368.0419921875
347.900390625
317.68798828125
284.72900390625
296.630859375
321.35009765625
329.58984375
332.33642578125
317.68798828125
305.7861328125
302.1240234375
281.982421875
264.58740234375
271.91162109375
267.333984375
273.74267578125
273.74267578125
268.24951171875
270.08056640625
270.08056640625
267.333984375
271.91162109375
268.24951171875
273.74267578125
273.74267578125
281.982421875
281.06689453125
282.89794921875
285.64453125
289.306640625
297.54638671875
299.37744140625
300.29296875
305.7861328125
302.1240234375
305.7861328125
314.02587890625
316.7724609375
321.35009765625
317.68798828125
327.7587890625
325.01220703125
333.251953125
338.7451171875
335.0830078125
340.576171875
349.7314453125
346.0693359375
351.5625
350.64697265625
357.97119140625
368.95751953125
380.859375
380.859375
382.6904296875
393.6767578125
385.43701171875
390.93017578125
395.5078125
402.83203125
411.07177734375
411.07177734375
422.05810546875
435.791015625
436.70654296875
442.19970703125
439.453125
442.19970703125
456.84814453125
459.5947265625
469.66552734375
478.82080078125
480.65185546875
488.8916015625
491.63818359375
500.79345703125
501.708984375
515.44189453125
520.01953125
528.25927734375
537.41455078125
547.4853515625
552.978515625
565.7958984375
570.37353515625
577.69775390625
590.51513671875
600.5859375
607.91015625
613.4033203125
619.81201171875
636.29150390625
647.27783203125
654.60205078125
666.50390625
673.828125
681.15234375
693.05419921875
713.19580078125
726.9287109375
741.5771484375
754.39453125
763.5498046875
776.3671875
783.69140625
801.08642578125
812.07275390625
813.90380859375
823.05908203125
837.70751953125
853.271484375
864.2578125
862.4267578125
867.919921875
869.7509765625
872.49755859375
866.0888671875
849.609375
851.4404296875
849.609375
834.9609375
821.22802734375
811.1572265625
790.10009765625
768.12744140625
747.0703125
726.9287109375
711.36474609375
682.9833984375
664.6728515625
639.0380859375
610.65673828125
585.9375
570.37353515625
541.07666015625
527.34375
515.44189453125
501.708984375
479.736328125
458.67919921875
443.115234375
430.2978515625
419.3115234375
411.07177734375
402.83203125
390.93017578125
391.845703125
371.7041015625
357.97119140625
356.14013671875
355.224609375
348.81591796875
350.64697265625
339.66064453125
337.82958984375
342.4072265625
339.66064453125
337.82958984375
345.15380859375
348.81591796875
346.0693359375
347.900390625
343.32275390625
335.99853515625
340.576171875
345.15380859375
346.98486328125
355.224609375
357.0556640625
343.32275390625
341.49169921875
339.66064453125
340.576171875
350.64697265625
357.97119140625
345.15380859375
345.15380859375
353.3935546875
363.46435546875
359.80224609375
364.3798828125
369.873046875
359.80224609375
362.548828125
366.2109375
364.3798828125
364.3798828125
367.12646484375
364.3798828125
358.88671875
365.29541015625
367.12646484375
363.46435546875
361.63330078125
363.46435546875
368.0419921875
363.46435546875
371.7041015625
377.197265625
376.28173828125
366.2109375
369.873046875
368.95751953125
364.3798828125
371.7041015625
376.28173828125
372.61962890625
374.45068359375
370.78857421875
373.53515625
368.95751953125
371.7041015625
369.873046875
370.78857421875
378.11279296875
378.11279296875
375.3662109375
379.94384765625
379.0283203125
373.53515625
365.29541015625
363.46435546875
382.6904296875
386.3525390625
380.859375
371.7041015625
368.0419921875
375.3662109375
383.60595703125
379.0283203125
376.28173828125
379.0283203125
375.3662109375
375.3662109375
374.45068359375
373.53515625
368.0419921875
373.53515625
372.61962890625
369.873046875
371.7041015625
372.61962890625
376.28173828125
374.45068359375
371.7041015625
370.78857421875
372.61962890625
373.53515625
362.548828125
363.46435546875
369.873046875
370.78857421875
376.28173828125
376.28173828125
374.45068359375
366.2109375
373.53515625
373.53515625
371.7041015625
372.61962890625
373.53515625
377.197265625
368.95751953125
371.7041015625
378.11279296875
373.53515625
377.197265625
373.53515625
375.3662109375
379.0283203125
373.53515625
378.11279296875
381.77490234375
371.7041015625
372.61962890625
382.6904296875
388.18359375
377.197265625
379.94384765625
380.859375
382.6904296875
374.45068359375
372.61962890625
376.28173828125
377.197265625
376.28173828125
379.0283203125
376.28173828125
370.78857421875
377.197265625
380.859375
376.28173828125
374.45068359375
374.45068359375
382.6904296875
383.60595703125
375.3662109375
371.7041015625
375.3662109375
374.45068359375
369.873046875
379.94384765625
379.94384765625
376.28173828125
385.43701171875
386.3525390625
381.77490234375
383.60595703125
378.11279296875
368.95751953125
371.7041015625
373.53515625
383.60595703125
385.43701171875
383.60595703125
374.45068359375
381.77490234375
383.60595703125
383.60595703125
391.845703125
391.845703125
387.26806640625
390.0146484375
390.93017578125
388.18359375
387.26806640625
388.18359375
388.18359375
385.43701171875
390.0146484375
389.09912109375
387.26806640625
386.3525390625
388.18359375
390.93017578125
390.0146484375
389.09912109375
385.43701171875
390.93017578125
387.26806640625
381.77490234375
390.93017578125
388.18359375
382.6904296875
387.26806640625
390.93017578125
391.845703125
386.3525390625
384.521484375
394.59228515625
393.6767578125
390.93017578125
399.169921875
385.43701171875
386.3525390625
397.3388671875
404.6630859375
420.22705078125
421.142578125
427.55126953125
433.04443359375
444.03076171875
445.86181640625
447.69287109375
445.86181640625
440.36865234375
428.466796875
436.70654296875
433.04443359375
433.04443359375
428.466796875
432.12890625
433.9599609375
434.87548828125
435.791015625
436.70654296875
437.6220703125
435.791015625
433.04443359375
428.466796875
430.2978515625
441.2841796875
446.77734375
433.04443359375
425.72021484375
427.55126953125
420.22705078125
417.48046875
416.56494140625
416.56494140625
416.56494140625
418.39599609375
414.73388671875
411.07177734375
412.90283203125
402.83203125
403.74755859375
404.6630859375
407.40966796875
393.6767578125
386.3525390625
385.43701171875
380.859375
374.45068359375
382.6904296875
383.60595703125
384.521484375
379.94384765625
385.43701171875
386.3525390625
383.60595703125
389.09912109375
377.197265625
390.0146484375
384.521484375
392.76123046875
384.521484375
379.94384765625
382.6904296875
385.43701171875
390.93017578125
392.76123046875
391.845703125
393.6767578125
385.43701171875
365.29541015625
356.14013671875
366.2109375
386.3525390625
428.466796875
520.01953125
630.79833984375
756.2255859375
883.48388671875
1031.79931640625
1187.43896484375
1348.57177734375
1507.87353515625
1638.7939453125
1741.3330078125
1789.85595703125
1756.89697265625
1644.287109375
1433.7158203125
1224.06005859375
1089.4775390625
983.2763671875
876.15966796875
792.8466796875
737.9150390625
682.9833984375
635.3759765625
609.7412109375
603.33251953125
592.34619140625
574.951171875
532.8369140625
514.5263671875
537.41455078125
549.31640625
552.978515625
552.978515625
544.73876953125
527.34375
517.27294921875
516.357421875
502.62451171875
495.30029296875
491.63818359375
488.8916015625
485.2294921875
489.80712890625
493.46923828125
491.63818359375
492.5537109375
486.14501953125
486.14501953125
476.98974609375
484.31396484375
489.80712890625
487.060546875
484.31396484375
490.72265625
489.80712890625
491.63818359375
492.5537109375
492.5537109375
501.708984375
504.45556640625
505.37109375
509.033203125
503.5400390625
501.708984375
505.37109375
504.45556640625
503.5400390625
510.8642578125
514.5263671875
518.1884765625
527.34375
530.09033203125
530.09033203125
531.005859375
541.07666015625
538.330078125
535.58349609375
542.90771484375
547.4853515625
549.31640625
552.978515625
554.8095703125
555.72509765625
563.04931640625
573.1201171875
571.2890625
569.4580078125
574.03564453125
584.1064453125
586.85302734375
588.68408203125
595.0927734375
600.5859375
608.82568359375
606.0791015625
608.82568359375
620.7275390625
634.46044921875
624.3896484375
625.30517578125
636.29150390625
636.29150390625
646.3623046875
656.43310546875
656.43310546875
669.25048828125
678.40576171875
682.9833984375
688.4765625
693.05419921875
702.20947265625
715.9423828125
724.18212890625
726.9287109375
744.32373046875
744.32373046875
751.64794921875
769.04296875
772.705078125
784.60693359375
791.93115234375
809.326171875
820.3125
826.72119140625
838.623046875
844.1162109375
855.1025390625
867.00439453125
879.82177734375
888.0615234375
894.47021484375
907.28759765625
921.0205078125
931.09130859375
940.24658203125
947.57080078125
951.23291015625
960.38818359375
958.55712890625
953.9794921875
955.810546875
952.1484375
938.41552734375
932.92236328125
926.513671875
915.52734375
893.5546875
874.32861328125
856.93359375
838.623046875
821.22802734375
799.25537109375
777.28271484375
745.2392578125
725.09765625
707.70263671875
674.74365234375
642.7001953125
624.3896484375
609.7412109375
595.0927734375
569.4580078125
561.21826171875
543.8232421875
522.76611328125
502.62451171875
489.80712890625
481.5673828125
465.087890625
447.69287109375
447.69287109375
438.53759765625
422.9736328125
412.90283203125
409.24072265625
406.494140625
400.08544921875
390.0146484375
395.5078125
390.0146484375
384.521484375
388.18359375
393.6767578125
383.60595703125
379.94384765625
378.11279296875
386.3525390625
381.77490234375
372.61962890625
370.78857421875
378.11279296875
380.859375
372.61962890625
368.0419921875
365.29541015625
377.197265625
369.873046875
362.548828125
367.12646484375
373.53515625
368.95751953125
373.53515625
375.3662109375
374.45068359375
374.45068359375
371.7041015625
367.12646484375
367.12646484375
369.873046875
370.78857421875
368.95751953125
372.61962890625
371.7041015625
369.873046875
374.45068359375
366.2109375
366.2109375
366.2109375
368.95751953125
368.95751953125
369.873046875
376.28173828125
368.95751953125
369.873046875
365.29541015625
361.63330078125
357.0556640625
365.29541015625
370.78857421875
360.7177734375
368.0419921875
366.2109375
362.548828125
352.47802734375
358.88671875
359.80224609375
360.7177734375
353.3935546875
358.88671875
352.47802734375
346.98486328125
357.0556640625
349.7314453125
349.7314453125
345.15380859375
345.15380859375
347.900390625
350.64697265625
344.23828125
347.900390625
341.49169921875
331.4208984375
332.33642578125
343.32275390625
338.7451171875
336.9140625
329.58984375
333.251953125
336.9140625
335.99853515625
336.9140625
336.9140625
334.16748046875
328.67431640625
328.67431640625
322.265625
325.927734375
321.35009765625
317.68798828125
323.18115234375
321.35009765625
316.7724609375
314.94140625
321.35009765625
317.68798828125
318.603515625
320.4345703125
322.265625
313.1103515625
314.94140625
314.02587890625
312.19482421875
313.1103515625
310.36376953125
313.1103515625
307.6171875
313.1103515625
320.4345703125
319.51904296875
313.1103515625
311.279296875
314.94140625
310.36376953125
302.1240234375
309.4482421875
312.19482421875
317.68798828125
309.4482421875
310.36376953125
311.279296875
300.29296875
300.29296875
302.1240234375
304.87060546875
300.29296875
298.4619140625
296.630859375
303.955078125
296.630859375
293.88427734375
298.4619140625
294.7998046875
296.630859375
299.37744140625
297.54638671875
301.20849609375
303.03955078125
295.71533203125
293.88427734375
294.7998046875
292.96875
289.306640625
291.1376953125
292.96875
292.96875
301.20849609375
295.71533203125
297.54638671875
295.71533203125
291.1376953125
293.88427734375
284.72900390625
282.89794921875
292.96875
294.7998046875
298.4619140625
298.4619140625
291.1376953125
282.89794921875
284.72900390625
287.4755859375
281.982421875
288.39111328125
280.1513671875
282.89794921875
281.06689453125
272.8271484375
287.4755859375
286.56005859375
281.06689453125
280.1513671875
281.06689453125
280.1513671875
277.40478515625
280.1513671875
274.658203125
281.982421875
283.8134765625
282.89794921875
284.72900390625
280.1513671875
280.1513671875
275.57373046875
276.4892578125
275.57373046875
278.3203125
268.24951171875
264.58740234375
269.1650390625
269.1650390625
270.99609375
273.74267578125
278.3203125
281.982421875
285.64453125
276.4892578125
271.91162109375
278.3203125
283.8134765625
281.06689453125
290.22216796875
300.29296875
299.37744140625
299.37744140625
303.955078125
314.94140625
311.279296875
314.02587890625
311.279296875
299.37744140625
294.7998046875
299.37744140625
303.955078125
307.6171875
311.279296875
314.94140625
312.19482421875
304.87060546875
308.53271484375
312.19482421875
314.94140625
303.955078125
295.71533203125
293.88427734375
298.4619140625
309.4482421875
302.1240234375
293.88427734375
290.22216796875
292.05322265625
292.96875
298.4619140625
295.71533203125
283.8134765625
281.982421875
272.8271484375
274.658203125
277.40478515625
267.333984375
266.41845703125
260.009765625
260.92529296875
252.685546875
248.10791015625
246.27685546875
240.78369140625
244.44580078125
241.69921875
243.5302734375
253.60107421875
246.27685546875
236.2060546875
243.5302734375
236.2060546875
234.375
236.2060546875
239.8681640625
243.5302734375
247.1923828125
247.1923828125
258.1787109375
249.0234375
252.685546875
250.8544921875
251.77001953125
258.1787109375
260.009765625
255.43212890625
247.1923828125
224.30419921875
193.17626953125
199.5849609375
226.13525390625
270.08056640625
368.95751953125
494.384765625
637.20703125
771.78955078125
922.8515625
1086.73095703125
1266.17431640625
1414.48974609375
1530.76171875
1615.90576171875
1640.625
1599.42626953125
1477.6611328125
1228.6376953125
955.810546875
817.56591796875
704.9560546875
598.7548828125
529.1748046875
485.2294921875
466.00341796875
439.453125
415.6494140625
403.74755859375
384.521484375
358.88671875
343.32275390625
336.9140625
335.0830078125
355.224609375
370.78857421875
382.6904296875
384.521484375
379.0283203125
362.548828125
354.30908203125
354.30908203125
352.47802734375
338.7451171875
338.7451171875
335.0830078125
340.576171875
335.99853515625
332.33642578125
333.251953125
335.0830078125
332.33642578125
333.251953125
336.9140625
337.82958984375
332.33642578125
332.33642578125
344.23828125
350.64697265625
346.0693359375
335.99853515625
335.99853515625
340.576171875
343.32275390625
347.900390625
355.224609375
358.88671875
358.88671875
364.3798828125
366.2109375
366.2109375
368.0419921875
374.45068359375
372.61962890625
372.61962890625
376.28173828125
381.77490234375
374.45068359375
381.77490234375
390.0146484375
394.59228515625
403.74755859375
398.25439453125
401.0009765625
394.59228515625
398.25439453125
411.07177734375
416.56494140625
414.73388671875
419.3115234375
422.05810546875
432.12890625
433.04443359375
433.9599609375
433.9599609375
434.87548828125
446.77734375
451.35498046875
453.18603515625
458.67919921875
461.42578125
466.00341796875
470.5810546875
473.32763671875
484.31396484375
490.72265625
498.96240234375
500.79345703125
507.2021484375
511.77978515625
516.357421875
523.681640625
531.005859375
534.66796875
547.4853515625
560.302734375
571.2890625
577.69775390625
582.275390625
594.17724609375
606.0791015625
606.0791015625
617.0654296875
628.96728515625
649.10888671875
653.6865234375
668.3349609375
676.57470703125
682.9833984375
693.9697265625
705.87158203125
719.6044921875
728.759765625
735.16845703125
747.98583984375
762.63427734375
769.04296875
771.78955078125
785.5224609375
791.015625
791.015625
791.93115234375
796.5087890625
795.59326171875
789.1845703125
782.77587890625
777.28271484375
769.04296875
758.056640625
742.49267578125
726.01318359375
705.87158203125
690.3076171875
670.166015625
642.7001953125
619.81201171875
589.599609375
568.54248046875
546.56982421875
529.1748046875
500.79345703125
476.07421875
452.2705078125
431.21337890625
411.9873046875
396.42333984375
378.11279296875
362.548828125
344.23828125
330.50537109375
313.1103515625
303.955078125
287.4755859375
275.57373046875
269.1650390625
266.41845703125
258.1787109375
250.8544921875
245.361328125
231.62841796875
220.64208984375
220.64208984375
216.97998046875
222.47314453125
218.81103515625
221.5576171875
220.64208984375
210.5712890625
205.99365234375
209.65576171875
206.9091796875
212.40234375
210.5712890625
203.2470703125
