ECG
4.57763671875
39.36767578125
65.91796875
26.55029296875
-59.50927734375
-137.3291015625
-92.46826171875
-54.931640625
-82.3974609375
-72.32666015625
-49.4384765625
21.97265625
41.19873046875
78.7353515625
156.55517578125
236.2060546875
385.43701171875
599.67041015625
783.69140625
924.6826171875
1122.4365234375
1185.60791015625
1350.40283203125
1398.92578125
1339.41650390625
1191.10107421875
928.3447265625
677.490234375
516.357421875
494.384765625
472.412109375
376.28173828125
316.7724609375
216.97998046875
184.02099609375
181.2744140625
92.46826171875
89.7216796875
65.91796875
51.26953125
65.00244140625
41.19873046875
40.283203125
72.32666015625
84.228515625
96.13037109375
138.24462890625
64.0869140625
26.55029296875
48.52294921875
43.9453125
34.7900390625
14.6484375
32.04345703125
54.931640625
75.0732421875
81.48193359375
94.29931640625
65.00244140625
41.19873046875
59.50927734375
31.1279296875
22.88818359375
23.8037109375
42.1142578125
40.283203125
73.2421875
69.580078125
64.0869140625
48.52294921875
41.19873046875
43.9453125
64.0869140625
102.5390625
58.59375
40.283203125
75.98876953125
86.97509765625
86.0595703125
79.65087890625
97.96142578125
86.0595703125
81.48193359375
108.94775390625
107.11669921875
90.63720703125
97.0458984375
99.79248046875
68.66455078125
75.98876953125
78.7353515625
81.48193359375
89.7216796875
145.56884765625
133.6669921875
119.0185546875
73.2421875
113.525390625
105.28564453125
102.5390625
140.07568359375
118.10302734375
101.62353515625
109.86328125
128.173828125
194.091796875
210.5712890625
215.14892578125
207.82470703125
207.82470703125
167.54150390625
178.52783203125
127.25830078125
162.9638671875
244.44580078125
249.93896484375
233.45947265625
223.388671875
238.037109375
221.5576171875
180.35888671875
227.05078125
282.89794921875
267.333984375
264.58740234375
270.08056640625
259.09423828125
290.22216796875
342.4072265625
356.14013671875
332.33642578125
343.32275390625
330.50537109375
306.70166015625
290.22216796875
297.54638671875
374.45068359375
433.9599609375
442.19970703125
432.12890625
411.07177734375
394.59228515625
327.7587890625
405.57861328125
428.466796875
401.91650390625
460.51025390625
520.93505859375
523.681640625
530.09033203125
450.439453125
371.7041015625
381.77490234375
369.873046875
348.81591796875
323.18115234375
332.33642578125
306.70166015625
298.4619140625
244.44580078125
270.08056640625
294.7998046875
218.81103515625
199.5849609375
232.5439453125
216.064453125
186.767578125
145.56884765625
115.3564453125
99.79248046875
149.23095703125
118.10302734375
34.7900390625
26.55029296875
32.958984375
10.07080078125
-39.36767578125
9.1552734375
11.90185546875
7.32421875
-2.74658203125
-4.57763671875
31.1279296875
29.296875
48.52294921875
0.91552734375
-61.34033203125
-56.7626953125
-51.26953125
-51.26953125
-56.7626953125
-34.7900390625
-17.39501953125
-6.40869140625
-54.01611328125
-52.18505859375
-87.890625
-59.50927734375
-58.59375
-61.34033203125
-40.283203125
-7.32421875
-27.4658203125
-72.32666015625
-68.66455078125
-40.283203125
-44.86083984375
5.4931640625
65.91796875
-10.986328125
-43.9453125
-12.8173828125
1.8310546875
8.23974609375
-16.4794921875
-19.22607421875
-89.7216796875
-96.13037109375
-64.0869140625
-49.4384765625
13.73291015625
0
12.8173828125
19.22607421875
10.986328125
-35.70556640625
10.07080078125
74.15771484375
-4.57763671875
-39.36767578125
-57.67822265625
-59.50927734375
-53.1005859375
-46.69189453125
-32.958984375
0
-68.66455078125
-43.9453125
28.38134765625
12.8173828125
-8.23974609375
-25.634765625
-30.21240234375
-10.986328125
8.23974609375
6.40869140625
-38.4521484375
-59.50927734375
-45.7763671875
-0.91552734375
18.310546875
-27.4658203125
-79.65087890625
-61.34033203125
-66.83349609375
-39.36767578125
-47.607421875
-36.62109375
-14.6484375
9.1552734375
13.73291015625
-10.07080078125
-3.662109375
0.91552734375
-0.91552734375
-16.4794921875
-54.931640625
-40.283203125
-55.84716796875
-38.4521484375
-15.56396484375
-25.634765625
-40.283203125
-60.4248046875
-5.4931640625
-22.88818359375
-31.1279296875
-5.4931640625
-43.9453125
-21.97265625
-22.88818359375
-17.39501953125
-9.1552734375
-32.04345703125
-24.71923828125
-3.662109375
-36.62109375
-40.283203125
-20.1416015625
-25.634765625
-26.55029296875
-11.90185546875
22.88818359375
21.05712890625
0.91552734375
7.32421875
13.73291015625
-11.90185546875
49.4384765625
63.17138671875
57.67822265625
48.52294921875
43.02978515625
50.35400390625
-7.32421875
-43.9453125
-28.38134765625
23.8037109375
15.56396484375
-7.32421875
1.8310546875
48.52294921875
72.32666015625
55.84716796875
54.931640625
49.4384765625
46.69189453125
-6.40869140625
8.23974609375
17.39501953125
10.07080078125
5.4931640625
26.55029296875
38.4521484375
7.32421875
6.40869140625
-16.4794921875
0
55.84716796875
48.52294921875
19.22607421875
-4.57763671875
-1.8310546875
-10.07080078125
-32.04345703125
-40.283203125
-32.958984375
-17.39501953125
-20.1416015625
-60.4248046875
-57.67822265625
-23.8037109375
-48.52294921875
-5.4931640625
34.7900390625
60.4248046875
43.9453125
10.07080078125
-2.74658203125
-25.634765625
-38.4521484375
-27.4658203125
-15.56396484375
-43.02978515625
-73.2421875
-49.4384765625
-6.40869140625
73.2421875
175.78125
322.265625
473.32763671875
602.4169921875
748.9013671875
911.865234375
1032.71484375
1150.81787109375
1262.51220703125
1346.74072265625
1337.58544921875
1237.79296875
1064.75830078125
883.48388671875
623.47412109375
510.8642578125
469.66552734375
429.38232421875
377.197265625
318.603515625
254.5166015625
259.09423828125
198.66943359375
145.56884765625
108.94775390625
105.28564453125
133.6669921875
108.0322265625
97.0458984375
80.56640625
92.46826171875
127.25830078125
175.78125
162.04833984375
168.45703125
167.54150390625
76.904296875
37.53662109375
18.310546875
56.7626953125
100.7080078125
86.0595703125
77.81982421875
86.0595703125
110.77880859375
103.45458984375
90.63720703125
59.50927734375
82.3974609375
115.3564453125
99.79248046875
91.552734375
65.00244140625
61.34033203125
47.607421875
56.7626953125
113.525390625
98.876953125
118.10302734375
119.0185546875
90.63720703125
101.62353515625
110.77880859375
122.6806640625
132.75146484375
139.16015625
128.173828125
118.10302734375
121.76513671875
140.9912109375
130.92041015625
139.16015625
152.89306640625
145.56884765625
184.02099609375
207.82470703125
160.21728515625
148.3154296875
177.6123046875
160.21728515625
133.6669921875
153.80859375
129.08935546875
139.16015625
198.66943359375
193.17626953125
205.99365234375
216.97998046875
192.2607421875
191.34521484375
199.5849609375
146.484375
161.1328125
223.388671875
240.78369140625
220.64208984375
249.0234375
244.44580078125
245.361328125
230.712890625
205.078125
219.7265625
259.09423828125
295.71533203125
298.4619140625
251.77001953125
285.64453125
323.18115234375
304.87060546875
314.94140625
334.16748046875
316.7724609375
296.630859375
333.251953125
367.12646484375
334.16748046875
338.7451171875
341.49169921875
328.67431640625
375.3662109375
393.6767578125
434.87548828125
430.2978515625
438.53759765625
421.142578125
430.2978515625
444.03076171875
456.84814453125
461.42578125
483.3984375
504.45556640625
469.66552734375
492.5537109375
483.3984375
458.67919921875
469.66552734375
480.65185546875
474.2431640625
436.70654296875
469.66552734375
470.5810546875
434.87548828125
427.55126953125
384.521484375
381.77490234375
357.0556640625
310.36376953125
277.40478515625
317.68798828125
312.19482421875
286.56005859375
237.12158203125
211.48681640625
191.34521484375
167.54150390625
166.6259765625
173.03466796875
151.9775390625
125.42724609375
127.25830078125
92.46826171875
109.86328125
81.48193359375
97.96142578125
90.63720703125
57.67822265625
48.52294921875
71.4111328125
63.17138671875
42.1142578125
67.7490234375
55.84716796875
43.02978515625
39.36767578125
23.8037109375
28.38134765625
38.4521484375
34.7900390625
43.02978515625
36.62109375
67.7490234375
62.255859375
64.0869140625
28.38134765625
28.38134765625
35.70556640625
13.73291015625
37.53662109375
89.7216796875
69.580078125
57.67822265625
13.73291015625
3.662109375
16.4794921875
46.69189453125
71.4111328125
67.7490234375
75.0732421875
83.31298828125
76.904296875
82.3974609375
63.17138671875
50.35400390625
21.05712890625
31.1279296875
39.36767578125
63.17138671875
76.904296875
83.31298828125
82.3974609375
67.7490234375
32.958984375
15.56396484375
20.1416015625
5.4931640625
13.73291015625
41.19873046875
38.4521484375
21.97265625
21.97265625
48.52294921875
72.32666015625
63.17138671875
41.19873046875
41.19873046875
38.4521484375
66.83349609375
85.14404296875
70.49560546875
37.53662109375
12.8173828125
22.88818359375
60.4248046875
47.607421875
32.04345703125
54.931640625
15.56396484375
57.67822265625
63.17138671875
66.83349609375
66.83349609375
38.4521484375
19.22607421875
38.4521484375
51.26953125
20.1416015625
33.87451171875
19.22607421875
28.38134765625
30.21240234375
27.4658203125
27.4658203125
42.1142578125
50.35400390625
60.4248046875
67.7490234375
56.7626953125
38.4521484375
-10.07080078125
-9.1552734375
-5.4931640625
3.662109375
17.39501953125
37.53662109375
42.1142578125
34.7900390625
9.1552734375
-1.8310546875
10.986328125
9.1552734375
26.55029296875
49.4384765625
56.7626953125
20.1416015625
15.56396484375
23.8037109375
27.4658203125
12.8173828125
16.4794921875
16.4794921875
21.05712890625
48.52294921875
44.86083984375
36.62109375
44.86083984375
21.97265625
13.73291015625
10.07080078125
33.87451171875
14.6484375
19.22607421875
10.986328125
12.8173828125
39.36767578125
57.67822265625
41.19873046875
39.36767578125
33.87451171875
33.87451171875
-15.56396484375
10.986328125
26.55029296875
25.634765625
53.1005859375
43.9453125
52.18505859375
21.97265625
0.91552734375
18.310546875
25.634765625
-21.97265625
-15.56396484375
6.40869140625
32.958984375
27.4658203125
21.97265625
17.39501953125
-0.91552734375
3.662109375
21.97265625
24.71923828125
20.1416015625
39.36767578125
26.55029296875
7.32421875
32.958984375
30.21240234375
9.1552734375
3.662109375
26.55029296875
51.26953125
58.59375
40.283203125
43.02978515625
46.69189453125
31.1279296875
68.66455078125
83.31298828125
49.4384765625
39.36767578125
55.84716796875
53.1005859375
68.66455078125
87.890625
69.580078125
74.15771484375
74.15771484375
80.56640625
75.0732421875
39.36767578125
35.70556640625
24.71923828125
58.59375
60.4248046875
69.580078125
72.32666015625
88.80615234375
67.7490234375
54.931640625
65.91796875
70.49560546875
69.580078125
32.958984375
48.52294921875
24.71923828125
21.05712890625
51.26953125
23.8037109375
24.71923828125
19.22607421875
18.310546875
-1.8310546875
-1.8310546875
19.22607421875
-4.57763671875
-16.4794921875
16.4794921875
10.07080078125
9.1552734375
6.40869140625
-2.74658203125
2.74658203125
9.1552734375
11.90185546875
7.32421875
5.4931640625
18.310546875
5.4931640625
0.91552734375
6.40869140625
21.05712890625
11.90185546875
22.88818359375
-5.4931640625
-13.73291015625
-10.986328125
0
39.36767578125
153.80859375
287.4755859375
422.9736328125
538.330078125
710.44921875
843.20068359375
991.51611328125
1132.50732421875
1251.52587890625
1340.33203125
1395.263671875
1349.4873046875
1221.3134765625
1068.42041015625
759.8876953125
559.38720703125
464.17236328125
397.3388671875
355.224609375
336.9140625
298.4619140625
266.41845703125
227.96630859375
195.00732421875
162.9638671875
119.93408203125
83.31298828125
100.7080078125
101.62353515625
109.86328125
155.6396484375
138.24462890625
145.56884765625
151.9775390625
142.822265625
142.822265625
133.6669921875
120.849609375
100.7080078125
110.77880859375
107.11669921875
100.7080078125
97.0458984375
105.28564453125
106.201171875
89.7216796875
97.0458984375
112.60986328125
106.201171875
108.0322265625
122.6806640625
109.86328125
105.28564453125
105.28564453125
104.3701171875
101.62353515625
109.86328125
120.849609375
134.58251953125
119.93408203125
131.8359375
147.39990234375
121.76513671875
136.41357421875
134.58251953125
152.89306640625
144.6533203125
137.3291015625
140.9912109375
130.92041015625
149.23095703125
140.07568359375
152.89306640625
140.07568359375
145.56884765625
163.87939453125
160.21728515625
153.80859375
181.2744140625
186.767578125
170.2880859375
178.52783203125
181.2744140625
193.17626953125
209.65576171875
180.35888671875
176.69677734375
194.091796875
191.34521484375
203.2470703125
210.5712890625
215.14892578125
212.40234375
220.64208984375
222.47314453125
205.99365234375
232.5439453125
241.69921875
242.61474609375
258.1787109375
264.58740234375
241.69921875
248.10791015625
256.34765625
272.8271484375
290.22216796875
280.1513671875
303.03955078125
307.6171875
315.85693359375
303.955078125
313.1103515625
314.02587890625
327.7587890625
337.82958984375
351.5625
361.63330078125
370.78857421875
368.95751953125
381.77490234375
395.5078125
417.48046875
398.25439453125
404.6630859375
414.73388671875
437.6220703125
437.6220703125
455.01708984375
468.75
455.01708984375
466.9189453125
476.07421875
494.384765625
491.63818359375
480.65185546875
503.5400390625
497.13134765625
497.13134765625
492.5537109375
484.31396484375
479.736328125
476.07421875
457.763671875
450.439453125
436.70654296875
422.9736328125
422.9736328125
395.5078125
372.61962890625
342.4072265625
334.16748046875
326.84326171875
315.85693359375
293.88427734375
265.5029296875
255.43212890625
249.0234375
221.5576171875
214.2333984375
181.2744140625
173.03466796875
163.87939453125
146.484375
135.498046875
129.08935546875
110.77880859375
107.11669921875
97.96142578125
103.45458984375
98.876953125
99.79248046875
98.876953125
76.904296875
68.66455078125
70.49560546875
65.00244140625
77.81982421875
76.904296875
76.904296875
54.01611328125
65.00244140625
61.34033203125
58.59375
64.0869140625
64.0869140625
60.4248046875
58.59375
67.7490234375
61.34033203125
56.7626953125
52.18505859375
55.84716796875
53.1005859375
56.7626953125
65.00244140625
59.50927734375
54.931640625
41.19873046875
45.7763671875
66.83349609375
46.69189453125
40.283203125
47.607421875
44.86083984375
60.4248046875
43.9453125
27.4658203125
51.26953125
55.84716796875
59.50927734375
49.4384765625
52.18505859375
45.7763671875
50.35400390625
44.86083984375
61.34033203125
43.02978515625
31.1279296875
50.35400390625
22.88818359375
32.04345703125
53.1005859375
48.52294921875
30.21240234375
21.97265625
42.1142578125
25.634765625
41.19873046875
39.36767578125
29.296875
29.296875
34.7900390625
32.04345703125
31.1279296875
19.22607421875
25.634765625
19.22607421875
21.05712890625
35.70556640625
31.1279296875
20.1416015625
13.73291015625
34.7900390625
12.8173828125
13.73291015625
18.310546875
8.23974609375
14.6484375
28.38134765625
29.296875
17.39501953125
11.90185546875
2.74658203125
25.634765625
10.07080078125
17.39501953125
2.74658203125
4.57763671875
15.56396484375
-0.91552734375
-0.91552734375
1.8310546875
5.4931640625
11.90185546875
21.97265625
0
1.8310546875
5.4931640625
11.90185546875
1.8310546875
6.40869140625
0
2.74658203125
-5.4931640625
6.40869140625
7.32421875
9.1552734375
0.91552734375
8.23974609375
1.8310546875
-13.73291015625
-12.8173828125
1.8310546875
10.986328125
-14.6484375
-15.56396484375
-5.4931640625
-1.8310546875
-6.40869140625
-4.57763671875
-2.74658203125
0
-2.74658203125
0
4.57763671875
4.57763671875
-4.57763671875
-8.23974609375
-7.32421875
-5.4931640625
-3.662109375
-10.986328125
-2.74658203125
-9.1552734375
3.662109375
0
-17.39501953125
-6.40869140625
-20.1416015625
-16.4794921875
-16.4794921875
-20.1416015625
-25.634765625
-20.1416015625
-14.6484375
-21.97265625
-25.634765625
-21.05712890625
-10.07080078125
-5.4931640625
-4.57763671875
-9.1552734375
-11.90185546875
-17.39501953125
-14.6484375
-28.38134765625
-23.8037109375
-2.74658203125
-10.986328125
-13.73291015625
-20.1416015625
-27.4658203125
-9.1552734375
-0.91552734375
-14.6484375
-7.32421875
-17.39501953125
-27.4658203125
-24.71923828125
-28.38134765625
-21.05712890625
-16.4794921875
-16.4794921875
-15.56396484375
-23.8037109375
-30.21240234375
-24.71923828125
-13.73291015625
-21.97265625
-27.4658203125
-7.32421875
-25.634765625
-26.55029296875
-25.634765625
-11.90185546875
-26.55029296875
-24.71923828125
-21.97265625
-20.1416015625
-27.4658203125
-33.87451171875
-20.1416015625
-32.04345703125
-20.1416015625
-14.6484375
-23.8037109375
-26.55029296875
-25.634765625
-30.21240234375
-30.21240234375
-25.634765625
-32.04345703125
-19.22607421875
-23.8037109375
-26.55029296875
-31.1279296875
-29.296875
-24.71923828125
-37.53662109375
-36.62109375
-34.7900390625
-44.86083984375
-36.62109375
-40.283203125
-31.1279296875
-30.21240234375
-38.4521484375
-44.86083984375
-32.958984375
-33.87451171875
-35.70556640625
-43.9453125
-32.04345703125
-20.1416015625
-26.55029296875
-22.88818359375
-35.70556640625
-25.634765625
-23.8037109375
-23.8037109375
-23.8037109375
-5.4931640625
-16.4794921875
0.91552734375
-5.4931640625
-10.986328125
-7.32421875
-11.90185546875
-9.1552734375
-0.91552734375
-3.662109375
-4.57763671875
-4.57763671875
-4.57763671875
-15.56396484375
1.8310546875
-5.4931640625
9.1552734375
16.4794921875
-0.91552734375
-0.91552734375
9.1552734375
-2.74658203125
13.73291015625
6.40869140625
-5.4931640625
-2.74658203125
0
7.32421875
11.90185546875
-6.40869140625
-5.4931640625
-7.32421875
-22.88818359375
-17.39501953125
-15.56396484375
-21.05712890625
-34.7900390625
-41.19873046875
-28.38134765625
-25.634765625
-32.958984375
-32.958984375
-46.69189453125
-46.69189453125
-45.7763671875
-35.70556640625
-46.69189453125
-27.4658203125
-23.8037109375
-28.38134765625
-40.283203125
-43.9453125
-42.1142578125
-33.87451171875
-28.38134765625
-33.87451171875
-29.296875
-23.8037109375
-25.634765625
-51.26953125
-57.67822265625
-64.0869140625
-66.83349609375
-32.04345703125
34.7900390625
142.822265625
289.306640625
399.169921875
548.40087890625
693.9697265625
844.1162109375
1001.5869140625
1127.01416015625
1243.2861328125
1334.8388671875
1345.8251953125
1292.724609375
1178.28369140625
972.2900390625
661.0107421875
506.28662109375
425.72021484375
326.84326171875
277.40478515625
242.61474609375
214.2333984375
171.20361328125
138.24462890625
107.11669921875
88.80615234375
43.9453125
53.1005859375
70.49560546875
65.91796875
69.580078125
80.56640625
95.21484375
100.7080078125
88.80615234375
76.904296875
88.80615234375
86.97509765625
75.98876953125
74.15771484375
51.26953125
50.35400390625
35.70556640625
43.02978515625
53.1005859375
57.67822265625
52.18505859375
59.50927734375
43.02978515625
55.84716796875
59.50927734375
52.18505859375
41.19873046875
61.34033203125
65.00244140625
53.1005859375
56.7626953125
72.32666015625
78.7353515625
81.48193359375
62.255859375
54.931640625
53.1005859375
62.255859375
86.0595703125
102.5390625
71.4111328125
82.3974609375
84.228515625
77.81982421875
84.228515625
100.7080078125
94.29931640625
101.62353515625
99.79248046875
97.0458984375
99.79248046875
99.79248046875
102.5390625
103.45458984375
106.201171875
121.76513671875
137.3291015625
142.822265625
121.76513671875
122.6806640625
123.59619140625
128.173828125
142.822265625
135.498046875
147.39990234375
148.3154296875
149.23095703125
156.55517578125
167.54150390625
153.80859375
166.6259765625
173.9501953125
189.51416015625
184.02099609375
196.83837890625
196.83837890625
200.50048828125
197.75390625
193.17626953125
196.83837890625
233.45947265625
232.5439453125
233.45947265625
237.12158203125
228.8818359375
253.60107421875
254.5166015625
260.92529296875
278.3203125
284.72900390625
277.40478515625
285.64453125
301.20849609375
312.19482421875
319.51904296875
329.58984375
348.81591796875
343.32275390625
356.14013671875
366.2109375
357.97119140625
368.0419921875
396.42333984375
405.57861328125
409.24072265625
410.15625
412.90283203125
435.791015625
444.03076171875
442.19970703125
444.03076171875
447.69287109375
457.763671875
449.52392578125
443.115234375
443.115234375
438.53759765625
445.86181640625
433.9599609375
413.818359375
397.3388671875
400.08544921875
379.94384765625
351.5625
328.67431640625
323.18115234375
294.7998046875
285.64453125
261.8408203125
246.27685546875
229.79736328125
202.33154296875
188.5986328125
173.9501953125
155.6396484375
142.822265625
146.484375
115.3564453125
100.7080078125
76.904296875
52.18505859375
50.35400390625
42.1142578125
29.296875
27.4658203125
51.26953125
26.55029296875
28.38134765625
17.39501953125
0
10.986328125
8.23974609375
-0.91552734375
-6.40869140625
2.74658203125
-6.40869140625
-8.23974609375
-1.8310546875
-9.1552734375
-28.38134765625
-15.56396484375
-16.4794921875
-33.87451171875
-16.4794921875
-8.23974609375
-12.8173828125
-19.22607421875
-21.05712890625
-22.88818359375
-30.21240234375
-12.8173828125
-16.4794921875
-22.88818359375
-25.634765625
-30.21240234375
-14.6484375
-17.39501953125
-11.90185546875
-11.90185546875
-12.8173828125
-17.39501953125
-7.32421875
-13.73291015625
-21.97265625
-29.296875
-19.22607421875
-19.22607421875
-19.22607421875
-24.71923828125
-19.22607421875
-16.4794921875
-17.39501953125
-23.8037109375
-14.6484375
-14.6484375
-21.97265625
-31.1279296875
-38.4521484375
-19.22607421875
-23.8037109375
-37.53662109375
-31.1279296875
-27.4658203125
-29.296875
-31.1279296875
-33.87451171875
-51.26953125
-26.55029296875
-23.8037109375
-36.62109375
-44.86083984375
-45.7763671875
-29.296875
-30.21240234375
-39.36767578125
-32.04345703125
-42.1142578125
-54.931640625
-59.50927734375
-43.9453125
-36.62109375
-39.36767578125
-49.4384765625
-60.4248046875
-60.4248046875
-47.607421875
-61.34033203125
-66.83349609375
-57.67822265625
-63.17138671875
-59.50927734375
-70.49560546875
-59.50927734375
-54.01611328125
-55.84716796875
-55.84716796875
-55.84716796875
-64.0869140625
-70.49560546875
-69.580078125
-64.0869140625
-63.17138671875
-57.67822265625
-66.83349609375
-69.580078125
-66.83349609375
-68.66455078125
-70.49560546875
-70.49560546875
-75.98876953125
-60.4248046875
-64.0869140625
-71.4111328125
-72.32666015625
-62.255859375
-71.4111328125
-70.49560546875
-77.81982421875
-70.49560546875
-76.904296875
-79.65087890625
-77.81982421875
-69.580078125
-73.2421875
-74.15771484375
-81.48193359375
-73.2421875
-74.15771484375
-79.65087890625
-70.49560546875
-69.580078125
-75.0732421875
-74.15771484375
-82.3974609375
-72.32666015625
-68.66455078125
-65.91796875
-70.49560546875
-79.65087890625
-78.7353515625
-73.2421875
-102.5390625
-78.7353515625
-65.91796875
-69.580078125
-80.56640625
-88.80615234375
-85.14404296875
-86.0595703125
-71.4111328125
-72.32666015625
-74.15771484375
-65.00244140625
-82.3974609375
-75.98876953125
-71.4111328125
-79.65087890625
-79.65087890625
-72.32666015625
-82.3974609375
-88.80615234375
-68.66455078125
-65.91796875
-68.66455078125
-88.80615234375
-88.80615234375
-79.65087890625
-79.65087890625
-65.91796875
-71.4111328125
-71.4111328125
-75.98876953125
-88.80615234375
-68.66455078125
-74.15771484375
-84.228515625
-73.2421875
-75.98876953125
-75.98876953125
-73.2421875
-94.29931640625
-92.46826171875
-98.876953125
-90.63720703125
-79.65087890625
-82.3974609375
-92.46826171875
-76.904296875
-75.0732421875
-75.98876953125
-76.904296875
-73.2421875
-96.13037109375
-85.14404296875
-81.48193359375
-81.48193359375
-66.83349609375
-76.904296875
-98.876953125
-86.0595703125
-85.14404296875
-91.552734375
-86.97509765625
-102.5390625
-84.228515625
-84.228515625
-84.228515625
-97.96142578125
-97.0458984375
-82.3974609375
-93.3837890625
-94.29931640625
-85.14404296875
-83.31298828125
-90.63720703125
-92.46826171875
-74.15771484375
-77.81982421875
-82.3974609375
-83.31298828125
-88.80615234375
-82.3974609375
-88.80615234375
-86.97509765625
-76.904296875
-85.14404296875
-80.56640625
-75.0732421875
-73.2421875
-70.49560546875
-70.49560546875
-63.17138671875
-57.67822265625
-54.01611328125
-58.59375
-63.17138671875
-54.931640625
-56.7626953125
-65.00244140625
-62.255859375
-58.59375
-60.4248046875
-62.255859375
-51.26953125
-44.86083984375
-43.02978515625
-49.4384765625
-64.0869140625
-57.67822265625
-54.931640625
-62.255859375
-51.26953125
-61.34033203125
-68.66455078125
-62.255859375
-71.4111328125
-86.97509765625
-61.34033203125
-63.17138671875
-57.67822265625
-60.4248046875
-65.91796875
-64.0869140625
-57.67822265625
-62.255859375
-79.65087890625
-91.552734375
-97.96142578125
-98.876953125
-96.13037109375
-104.3701171875
-98.876953125
-96.13037109375
-104.3701171875
-102.5390625
-98.876953125
-98.876953125
-110.77880859375
-95.21484375
-87.890625
-92.46826171875
-86.0595703125
-99.79248046875
-115.3564453125
-103.45458984375
-96.13037109375
-87.890625
-80.56640625
-94.29931640625
-104.3701171875
-104.3701171875
-126.3427734375
-147.39990234375
-128.173828125
-65.91796875
38.4521484375
171.20361328125
307.6171875
433.04443359375
573.1201171875
736.083984375
886.23046875
1020.81298828125
1153.564453125
1258.85009765625
1297.30224609375
1284.48486328125
1195.6787109375
1005.2490234375
716.85791015625
507.2021484375
397.3388671875
307.6171875
238.95263671875
191.34521484375
173.03466796875
122.6806640625
105.28564453125
79.65087890625
72.32666015625
42.1142578125
27.4658203125
22.88818359375
8.23974609375
22.88818359375
47.607421875
49.4384765625
25.634765625
67.7490234375
35.70556640625
9.1552734375
33.87451171875
31.1279296875
9.1552734375
-5.4931640625
4.57763671875
0.91552734375
1.8310546875
-4.57763671875
-9.1552734375
-3.662109375
-7.32421875
-18.310546875
9.1552734375
6.40869140625
1.8310546875
-2.74658203125
1.8310546875
-0.91552734375
4.57763671875
5.4931640625
9.1552734375
16.4794921875
16.4794921875
28.38134765625
14.6484375
9.1552734375
21.05712890625
22.88818359375
28.38134765625
24.71923828125
21.97265625
25.634765625
31.1279296875
32.04345703125
47.607421875
59.50927734375
48.52294921875
46.69189453125
54.931640625
55.84716796875
55.84716796875
64.0869140625
59.50927734375
57.67822265625
57.67822265625
75.0732421875
83.31298828125
79.65087890625
89.7216796875
84.228515625
86.0595703125
86.0595703125
89.7216796875
94.29931640625
90.63720703125
99.79248046875
97.96142578125
106.201171875
110.77880859375
116.27197265625
127.25830078125
130.92041015625
142.822265625
147.39990234375
149.23095703125
166.6259765625
173.9501953125
168.45703125
181.2744140625
184.9365234375
187.68310546875
189.51416015625
194.091796875
202.33154296875
216.97998046875
215.14892578125
222.47314453125
238.037109375
243.5302734375
258.1787109375
260.92529296875
273.74267578125
280.1513671875
283.8134765625
303.03955078125
314.02587890625
310.36376953125
331.4208984375
338.7451171875
347.900390625
357.97119140625
368.95751953125
367.12646484375
384.521484375
390.0146484375
396.42333984375
401.0009765625
417.48046875
424.8046875
424.8046875
430.2978515625
430.2978515625
426.6357421875
428.466796875
427.55126953125
437.6220703125
427.55126953125
429.38232421875
404.6630859375
376.28173828125
358.88671875
343.32275390625
326.84326171875
306.70166015625
284.72900390625
279.23583984375
265.5029296875
224.30419921875
200.50048828125
177.6123046875
179.443359375
150.146484375
129.08935546875
107.11669921875
92.46826171875
68.66455078125
54.01611328125
44.86083984375
26.55029296875
22.88818359375
9.1552734375
-3.662109375
-29.296875
-36.62109375
-32.958984375
-32.04345703125
-43.9453125
-51.26953125
-57.67822265625
-66.83349609375
-65.00244140625
-58.59375
-54.01611328125
-74.15771484375
-72.32666015625
-64.0869140625
-74.15771484375
-81.48193359375
-82.3974609375
-81.48193359375
-81.48193359375
-72.32666015625
-68.66455078125
-68.66455078125
-69.580078125
-68.66455078125
-75.0732421875
-95.21484375
-92.46826171875
-90.63720703125
-84.228515625
-70.49560546875
-86.0595703125
-95.21484375
-78.7353515625
-73.2421875
-74.15771484375
-74.15771484375
-72.32666015625
-67.7490234375
-79.65087890625
-83.31298828125
-70.49560546875
-68.66455078125
-70.49560546875
-83.31298828125
-83.31298828125
-77.81982421875
-66.83349609375
-76.904296875
-83.31298828125
-81.48193359375
-70.49560546875
-74.15771484375
-89.7216796875
-79.65087890625
-75.98876953125
-75.98876953125
-72.32666015625
-75.98876953125
-68.66455078125
-64.0869140625
-90.63720703125
-96.13037109375
-83.31298828125
-78.7353515625
-78.7353515625
-78.7353515625
-92.46826171875
-83.31298828125
-94.29931640625
-94.29931640625
-84.228515625
-97.0458984375
-105.28564453125
-94.29931640625
-90.63720703125
-104.3701171875
-88.80615234375
-90.63720703125
-88.80615234375
-91.552734375
-75.98876953125
-88.80615234375
-93.3837890625
-86.97509765625
-98.876953125
-100.7080078125
-93.3837890625
-101.62353515625
-89.7216796875
-83.31298828125
-85.14404296875
-91.552734375
-91.552734375
-86.97509765625
-91.552734375
-101.62353515625
-108.0322265625
-110.77880859375
-108.0322265625
-89.7216796875
-100.7080078125
-113.525390625
-104.3701171875
-88.80615234375
-94.29931640625
-97.0458984375
-104.3701171875
-93.3837890625
-82.3974609375
-87.890625
-103.45458984375
-97.0458984375
-109.86328125
-101.62353515625
-94.29931640625
-110.77880859375
-108.0322265625
-108.94775390625
-103.45458984375
-105.28564453125
-103.45458984375
-93.3837890625
-97.96142578125
-93.3837890625
-103.45458984375
-102.5390625
-100.7080078125
-97.96142578125
-99.79248046875
-102.5390625
-102.5390625
-92.46826171875
-107.11669921875
-110.77880859375
-112.60986328125
-100.7080078125
-103.45458984375
-93.3837890625
-103.45458984375
-91.552734375
-107.11669921875
-92.46826171875
-90.63720703125
-101.62353515625
-98.876953125
-93.3837890625
-115.3564453125
-105.28564453125
-95.21484375
-106.201171875
-98.876953125
-102.5390625
-105.28564453125
-112.60986328125
-95.21484375
-86.97509765625
-100.7080078125
-105.28564453125
-113.525390625
-107.11669921875
-108.94775390625
-101.62353515625
-117.1875
-107.11669921875
-115.3564453125
-107.11669921875
-107.11669921875
-89.7216796875
-97.0458984375
-99.79248046875
-103.45458984375
-104.3701171875
-105.28564453125
-96.13037109375
-106.201171875
-116.27197265625
-102.5390625
-110.77880859375
-110.77880859375
-105.28564453125
-111.6943359375
-118.10302734375
-110.77880859375
-112.60986328125
-101.62353515625
-96.13037109375
-101.62353515625
-102.5390625
-103.45458984375
-105.28564453125
-112.60986328125
-101.62353515625
-98.876953125
-115.3564453125
-113.525390625
-115.3564453125
-125.42724609375
-101.62353515625
-96.13037109375
-101.62353515625
-107.11669921875
-110.77880859375
-107.11669921875
-112.60986328125
-110.77880859375
-97.96142578125
-118.10302734375
-113.525390625
-110.77880859375
-104.3701171875
-101.62353515625
-117.1875
-97.96142578125
-88.80615234375
-97.0458984375
-110.77880859375
-113.525390625
-114.44091796875
-114.44091796875
-108.94775390625
-105.28564453125
-110.77880859375
-115.3564453125
-112.60986328125
-102.5390625
-101.62353515625
-108.94775390625
-113.525390625
-102.5390625
-99.79248046875
-109.86328125
-116.27197265625
-108.0322265625
-101.62353515625
-107.11669921875
-106.201171875
-114.44091796875
-108.94775390625
-97.96142578125
-97.0458984375
-103.45458984375
-113.525390625
-114.44091796875
-102.5390625
-106.201171875
-108.0322265625
-107.11669921875
-105.28564453125
-107.11669921875
-96.13037109375
-105.28564453125
-117.1875
-112.60986328125
-97.96142578125
-99.79248046875
-93.3837890625
-101.62353515625
-106.201171875
-108.0322265625
-93.3837890625
-96.13037109375
-106.201171875
-103.45458984375
-106.201171875
-100.7080078125
-105.28564453125
-97.96142578125
-110.77880859375
-111.6943359375
-116.27197265625
-112.60986328125
-99.79248046875
-98.876953125
-107.11669921875
-97.0458984375
-95.21484375
-99.79248046875
-106.201171875
-99.79248046875
-98.876953125
-91.552734375
-95.21484375
-101.62353515625
-107.11669921875
-105.28564453125
-87.890625
-77.81982421875
-86.0595703125
-79.65087890625
-75.98876953125
-77.81982421875
-84.228515625
-82.3974609375
-77.81982421875
-77.81982421875
-84.228515625
-88.80615234375
-85.14404296875
-78.7353515625
-81.48193359375
-74.15771484375
-77.81982421875
-58.59375
-56.7626953125
-70.49560546875
-78.7353515625
-83.31298828125
-80.56640625
-71.4111328125
-68.66455078125
-70.49560546875
-76.904296875
-80.56640625
-78.7353515625
-83.31298828125
-85.14404296875
-82.3974609375
-86.0595703125
-75.98876953125
-95.21484375
-90.63720703125
-85.14404296875
-98.876953125
-99.79248046875
-86.97509765625
-98.876953125
-115.3564453125
-119.93408203125
-120.849609375
-131.8359375
-128.173828125
-119.0185546875
-115.3564453125
-115.3564453125
-118.10302734375
-127.25830078125
-123.59619140625
-119.93408203125
-122.6806640625
-118.10302734375
-111.6943359375
-109.86328125
-102.5390625
-99.79248046875
-111.6943359375
-114.44091796875
-101.62353515625
-109.86328125
-125.42724609375
-153.80859375
-162.04833984375
-125.42724609375
-65.00244140625
42.1142578125
177.6123046875
297.54638671875
418.39599609375
583.19091796875
716.85791015625
880.7373046875
1019.8974609375
1163.63525390625
1272.5830078125
1318.359375
1284.48486328125
1168.212890625
968.6279296875
703.125
540.1611328125
433.9599609375
304.87060546875
218.81103515625
182.18994140625
144.6533203125
113.525390625
81.48193359375
76.904296875
74.15771484375
55.84716796875
44.86083984375
35.70556640625
33.87451171875
55.84716796875
51.26953125
51.26953125
43.9453125
32.04345703125
22.88818359375
8.23974609375
0
-4.57763671875
-5.4931640625
-10.07080078125
3.662109375
3.662109375
-8.23974609375
-18.310546875
-12.8173828125
-19.22607421875
-19.22607421875
-14.6484375
-9.1552734375
-6.40869140625
-6.40869140625
-5.4931640625
2.74658203125
0.91552734375
-8.23974609375
-1.8310546875
-1.8310546875
3.662109375
3.662109375
4.57763671875
10.986328125
21.97265625
7.32421875
8.23974609375
19.22607421875
20.1416015625
40.283203125
39.36767578125
22.88818359375
14.6484375
26.55029296875
34.7900390625
40.283203125
47.607421875
47.607421875
44.86083984375
49.4384765625
45.7763671875
43.02978515625
49.4384765625
54.931640625
62.255859375
67.7490234375
59.50927734375
66.83349609375
59.50927734375
82.3974609375
88.80615234375
83.31298828125
88.80615234375
90.63720703125
89.7216796875
103.45458984375
110.77880859375
112.60986328125
107.11669921875
111.6943359375
122.6806640625
132.75146484375
123.59619140625
121.76513671875
127.25830078125
140.9912109375
152.89306640625
162.9638671875
165.71044921875
171.20361328125
176.69677734375
179.443359375
191.34521484375
205.078125
199.5849609375
205.078125
223.388671875
230.712890625
233.45947265625
237.12158203125
259.09423828125
267.333984375
277.40478515625
270.99609375
275.57373046875
299.37744140625
313.1103515625
306.70166015625
319.51904296875
326.84326171875
337.82958984375
347.900390625
358.88671875
372.61962890625
382.6904296875
382.6904296875
386.3525390625
403.74755859375
410.15625
405.57861328125
430.2978515625
424.8046875
424.8046875
420.22705078125
424.8046875
426.6357421875
414.73388671875
410.15625
392.76123046875
390.93017578125
379.94384765625
348.81591796875
320.4345703125
306.70166015625
291.1376953125
276.4892578125
251.77001953125
233.45947265625
210.5712890625
185.85205078125
173.9501953125
147.39990234375
125.42724609375
107.11669921875
88.80615234375
71.4111328125
57.67822265625
32.958984375
27.4658203125
10.07080078125
-11.90185546875
-17.39501953125
-21.97265625
-35.70556640625
-47.607421875
-53.1005859375
-62.255859375
-61.34033203125
-73.2421875
-79.65087890625
-79.65087890625
-83.31298828125
-88.80615234375
-87.890625
-89.7216796875
-81.48193359375
-92.46826171875
-102.5390625
-89.7216796875
-90.63720703125
-93.3837890625
-99.79248046875
-86.97509765625
-99.79248046875
-97.96142578125
-94.29931640625
-93.3837890625
-99.79248046875
-91.552734375
-84.228515625
-93.3837890625
-98.876953125
-105.28564453125
-101.62353515625
-99.79248046875
-103.45458984375
-93.3837890625
-91.552734375
-107.11669921875
-102.5390625
-97.96142578125
-97.96142578125
-97.0458984375
-94.29931640625
-99.79248046875
-92.46826171875
-93.3837890625
-101.62353515625
-106.201171875
-111.6943359375
-104.3701171875
-97.96142578125
-107.11669921875
-104.3701171875
-108.0322265625
-103.45458984375
-106.201171875
-108.0322265625
-109.86328125
-109.86328125
-108.0322265625
-107.11669921875
-110.77880859375
-109.86328125
-108.94775390625
-121.76513671875
-108.0322265625
-111.6943359375
-120.849609375
-114.44091796875
-111.6943359375
-118.10302734375
-130.92041015625
-108.0322265625
-121.76513671875
-122.6806640625
-121.76513671875
-114.44091796875
-118.10302734375
-118.10302734375
-112.60986328125
-116.27197265625
-119.93408203125
-114.44091796875
-123.59619140625
-122.6806640625
-116.27197265625
-124.51171875
-124.51171875
-123.59619140625
-127.25830078125
-131.8359375
-127.25830078125
-128.173828125
-131.8359375
-128.173828125
-129.08935546875
-133.6669921875
-134.58251953125
-141.90673828125
-143.73779296875
-134.58251953125
-134.58251953125
-130.0048828125
-128.173828125
-135.498046875
-142.822265625
-139.16015625
-133.6669921875
-134.58251953125
-136.41357421875
-136.41357421875
-130.92041015625
-136.41357421875
-135.498046875
-126.3427734375
-138.24462890625
-140.9912109375
-140.07568359375
-140.07568359375
-148.3154296875
-147.39990234375
-140.9912109375
-140.9912109375
-140.9912109375
-137.3291015625
-143.73779296875
-149.23095703125
-150.146484375
-151.9775390625
-149.23095703125
-150.146484375
-157.470703125
-158.38623046875
-158.38623046875
-158.38623046875
-147.39990234375
-140.07568359375
-140.9912109375
-145.56884765625
-152.89306640625
-147.39990234375
-139.16015625
-146.484375
-152.89306640625
-147.39990234375
-142.822265625
-152.89306640625
-149.23095703125
-156.55517578125
-157.470703125
-153.80859375
-147.39990234375
-150.146484375
-146.484375
-157.470703125
-158.38623046875
-156.55517578125
-163.87939453125
-161.1328125
-160.21728515625
-151.9775390625
-151.9775390625
-145.56884765625
-147.39990234375
-152.89306640625
-151.06201171875
-160.21728515625
-159.3017578125
-163.87939453125
-153.80859375
-158.38623046875
-160.21728515625
-165.71044921875
-165.71044921875
-162.04833984375
-159.3017578125
-163.87939453125
-165.71044921875
-157.470703125
-162.04833984375
-162.04833984375
-162.9638671875
-170.2880859375
-167.54150390625
-162.04833984375
-166.6259765625
-172.119140625
-163.87939453125
-164.794921875
-174.86572265625
-173.9501953125
-184.02099609375
-169.37255859375
-171.20361328125
-179.443359375
-174.86572265625
-174.86572265625
-175.78125
-175.78125
-179.443359375
-170.2880859375
-174.86572265625
-167.54150390625
-173.9501953125
-166.6259765625
-165.71044921875
-169.37255859375
-176.69677734375
-173.9501953125
-168.45703125
-181.2744140625
-186.767578125
-181.2744140625
-177.6123046875
-183.10546875
-176.69677734375
-174.86572265625
-173.9501953125
-182.18994140625
-175.78125
-170.2880859375
-172.119140625
-172.119140625
-179.443359375
-179.443359375
-183.10546875
-171.20361328125
-181.2744140625
-176.69677734375
-188.5986328125
-185.85205078125
-183.10546875
-176.69677734375
-182.18994140625
-186.767578125
-178.52783203125
-176.69677734375
-182.18994140625
-178.52783203125
-184.9365234375
-179.443359375
-182.18994140625
-167.54150390625
-173.9501953125
-167.54150390625
-184.9365234375
-191.34521484375
-180.35888671875
-177.6123046875
-173.03466796875
-190.4296875
-185.85205078125
-182.18994140625
-182.18994140625
-178.52783203125
-173.9501953125
-176.69677734375
-174.86572265625
-172.119140625
-168.45703125
-165.71044921875
-168.45703125
-169.37255859375
-176.69677734375
-178.52783203125
-176.69677734375
-175.78125
-175.78125
-170.2880859375
-173.9501953125
-180.35888671875
-167.54150390625
-162.04833984375
-167.54150390625
-181.2744140625
-193.17626953125
-184.02099609375
-171.20361328125
-173.9501953125
-175.78125
-171.20361328125
-184.02099609375
-184.9365234375
-173.03466796875
-187.68310546875
-191.34521484375
-164.794921875
-168.45703125
-168.45703125
-169.37255859375
-182.18994140625
-175.78125
-175.78125
-179.443359375
-180.35888671875
-178.52783203125
-184.9365234375
-171.20361328125
-165.71044921875
-168.45703125
-170.2880859375
-181.2744140625
-179.443359375
-173.03466796875
-164.794921875
-169.37255859375
-162.04833984375
-151.9775390625
-159.3017578125
-157.470703125
-144.6533203125
-149.23095703125
-150.146484375
-148.3154296875
-140.9912109375
-152.89306640625
-158.38623046875
-169.37255859375
-158.38623046875
-151.9775390625
-158.38623046875
-155.6396484375
-147.39990234375
-140.07568359375
-143.73779296875
-154.72412109375
-152.89306640625
-151.9775390625
-149.23095703125
-138.24462890625
-149.23095703125
-156.55517578125
-153.80859375
-157.470703125
-161.1328125
-165.71044921875
-167.54150390625
-162.04833984375
-161.1328125
-168.45703125
-161.1328125
-155.6396484375
-155.6396484375
-175.78125
-173.03466796875
-177.6123046875
-173.9501953125
-176.69677734375
-192.2607421875
-195.00732421875
-198.66943359375
-203.2470703125
-206.9091796875
-199.5849609375
-191.34521484375
-195.9228515625
-196.83837890625
-195.9228515625
-196.83837890625
-195.9228515625
-197.75390625
-188.5986328125
-191.34521484375
-186.767578125
-186.767578125
-191.34521484375
-190.4296875
-192.2607421875
-211.48681640625
-234.375
-239.8681640625
-225.2197265625
-177.6123046875
-113.525390625
3.662109375
131.8359375
248.10791015625
384.521484375
547.4853515625
695.80078125
850.52490234375
994.2626953125
1134.33837890625
1211.24267578125
1228.6376953125
1159.97314453125
1023.5595703125
792.8466796875
585.02197265625
471.49658203125
360.7177734375
251.77001953125
184.9365234375
131.8359375
77.81982421875
43.9453125
9.1552734375
14.6484375
0.91552734375
-10.986328125
-44.86083984375
-48.52294921875
-33.87451171875
-24.71923828125
-21.97265625
-30.21240234375
-52.18505859375
-52.18505859375
-68.66455078125
-73.2421875
-83.31298828125
-92.46826171875
-97.0458984375
-97.0458984375
-96.13037109375
-97.0458984375
-97.96142578125
-100.7080078125
-93.3837890625
-98.876953125
-98.876953125
-96.13037109375
-97.0458984375
-103.45458984375
-98.876953125
-85.14404296875
-86.0595703125
-95.21484375
-86.0595703125
-75.0732421875
-79.65087890625
-83.31298828125
-73.2421875
-86.0595703125
-77.81982421875
-75.0732421875
-71.4111328125
-73.2421875
-76.904296875
-77.81982421875
-68.66455078125
-66.83349609375
-48.52294921875
-47.607421875
-54.01611328125
-50.35400390625
-43.9453125
-44.86083984375
-43.9453125
-44.86083984375
-40.283203125
-37.53662109375
-25.634765625
-26.55029296875
-20.1416015625
-16.4794921875
-10.07080078125
-12.8173828125
-10.07080078125
-1.8310546875
-2.74658203125
0
9.1552734375
11.90185546875
10.986328125
21.97265625
31.1279296875
26.55029296875
28.38134765625
38.4521484375
44.86083984375
54.01611328125
50.35400390625
51.26953125
62.255859375
55.84716796875
65.00244140625
65.00244140625
90.63720703125
93.3837890625
97.0458984375
108.94775390625
113.525390625
121.76513671875
127.25830078125
130.92041015625
141.90673828125
146.484375
151.9775390625
163.87939453125
179.443359375
180.35888671875
191.34521484375
199.5849609375
204.16259765625
209.65576171875
226.13525390625
238.037109375
243.5302734375
251.77001953125
267.333984375
282.89794921875
283.8134765625
294.7998046875
300.29296875
317.68798828125
325.927734375
333.251953125
337.82958984375
346.0693359375
358.88671875
365.29541015625
366.2109375
369.873046875
373.53515625
374.45068359375
364.3798828125
355.224609375
358.88671875
344.23828125
331.4208984375
301.20849609375
286.56005859375
283.8134765625
261.8408203125
248.10791015625
213.31787109375
193.17626953125
168.45703125
158.38623046875
130.92041015625
118.10302734375
97.0458984375
75.98876953125
49.4384765625
30.21240234375
9.1552734375
-11.90185546875
-21.05712890625
-38.4521484375
-51.26953125
-65.91796875
-74.15771484375
-82.3974609375
-99.79248046875
-108.94775390625
-114.44091796875
-121.76513671875
-124.51171875
-146.484375
-149.23095703125
-145.56884765625
-146.484375
-151.06201171875
-146.484375
-140.9912109375
-158.38623046875
-160.21728515625
-155.6396484375
-156.55517578125
-163.87939453125
-162.9638671875
-162.9638671875
-151.06201171875
-155.6396484375
-162.9638671875
-162.9638671875
-164.794921875
-158.38623046875
-154.72412109375
-156.55517578125
-164.794921875
-164.794921875
-163.87939453125
-159.3017578125
-162.04833984375
-159.3017578125
-159.3017578125
-151.9775390625
-156.55517578125
-160.21728515625
-161.1328125
-161.1328125
-169.37255859375
-157.470703125
-151.9775390625
-164.794921875
-166.6259765625
-175.78125
-166.6259765625
-169.37255859375
-162.9638671875
-179.443359375
-173.03466796875
-160.21728515625
-168.45703125
-174.86572265625
-160.21728515625
-156.55517578125
-169.37255859375
-173.03466796875
-176.69677734375
-173.9501953125
-171.20361328125
-177.6123046875
-181.2744140625
-178.52783203125
-180.35888671875
-182.18994140625
-167.54150390625
-178.52783203125
-174.86572265625
-182.18994140625
-190.4296875
-184.9365234375
-189.51416015625
-202.33154296875
-195.00732421875
-187.68310546875
-186.767578125
-197.75390625
-191.34521484375
-198.66943359375
-195.9228515625
-194.091796875
-198.66943359375
-195.00732421875
-199.5849609375
-197.75390625
-191.34521484375
-194.091796875
-204.16259765625
-205.99365234375
-210.5712890625
-199.5849609375
-205.078125
-208.740234375
-217.8955078125
-217.8955078125
-210.5712890625
-210.5712890625
-216.97998046875
-216.064453125
-210.5712890625
-215.14892578125
-205.078125
-212.40234375
-216.97998046875
-214.2333984375
-201.416015625
-209.65576171875
-211.48681640625
-215.14892578125
-224.30419921875
-216.97998046875
-216.97998046875
-227.05078125
-215.14892578125
-219.7265625
-217.8955078125
-220.64208984375
-223.388671875
-228.8818359375
-218.81103515625
-215.14892578125
-220.64208984375
-219.7265625
-222.47314453125
-214.2333984375
-219.7265625
-233.45947265625
-229.79736328125
-221.5576171875
-227.05078125
-229.79736328125
-237.12158203125
-235.29052734375
-222.47314453125
-218.81103515625
-210.5712890625
-223.388671875
-224.30419921875
-219.7265625
-222.47314453125
-220.64208984375
-233.45947265625
-232.5439453125
-228.8818359375
-224.30419921875
-228.8818359375
-226.13525390625
-222.47314453125
-230.712890625
-225.2197265625
-227.96630859375
-231.62841796875
-221.5576171875
-211.48681640625
-226.13525390625
-234.375
-223.388671875
-220.64208984375
-219.7265625
-222.47314453125
-232.5439453125
-226.13525390625
-227.05078125
-233.45947265625
-228.8818359375
-236.2060546875
-233.45947265625
-222.47314453125
-226.13525390625
-227.96630859375
-233.45947265625
-239.8681640625
-235.29052734375
-219.7265625
-235.29052734375
-235.29052734375
-230.712890625
-227.05078125
-231.62841796875
-228.8818359375
-229.79736328125
-235.29052734375
-232.5439453125
-228.8818359375
-219.7265625
-230.712890625
-227.96630859375
-222.47314453125
-235.29052734375
-228.8818359375
-220.64208984375
-227.05078125
-222.47314453125
-238.037109375
-231.62841796875
-234.375
-228.8818359375
-222.47314453125
-231.62841796875
-230.712890625
-223.388671875
-225.2197265625
-227.05078125
-227.96630859375
-226.13525390625
-227.96630859375
-228.8818359375
-234.375
-229.79736328125
-217.8955078125
-235.29052734375
-237.12158203125
-231.62841796875
-229.79736328125
-233.45947265625
-236.2060546875
-230.712890625
-227.96630859375
-227.05078125
-224.30419921875
-223.388671875
-218.81103515625
-228.8818359375
-228.8818359375
-223.388671875
-225.2197265625
-233.45947265625
-236.2060546875
-230.712890625
-232.5439453125
-232.5439453125
-228.8818359375
-230.712890625
-227.96630859375
-232.5439453125
-222.47314453125
-221.5576171875
-229.79736328125
-222.47314453125
-232.5439453125
-229.79736328125
-225.2197265625
-237.12158203125
-223.388671875
-225.2197265625
-227.96630859375
-226.13525390625
-228.8818359375
-226.13525390625
-230.712890625
-231.62841796875
-227.05078125
-220.64208984375
-229.79736328125
-230.712890625
-225.2197265625
-228.8818359375
-233.45947265625
-226.13525390625
-222.47314453125
-208.740234375
-220.64208984375
-229.79736328125
-230.712890625
-228.8818359375
-225.2197265625
-215.14892578125
-214.2333984375
-230.712890625
-223.388671875
-226.13525390625
-228.8818359375
-220.64208984375
-225.2197265625
-212.40234375
-216.97998046875
-221.5576171875
-223.388671875
-224.30419921875
-211.48681640625
-219.7265625
-227.05078125
-225.2197265625
-221.5576171875
-216.97998046875
-216.97998046875
-223.388671875
-227.05078125
-216.97998046875
-213.31787109375
-211.48681640625
-205.078125
-196.83837890625
-202.33154296875
-193.17626953125
-203.2470703125
-206.9091796875
-209.65576171875
-208.740234375
-201.416015625
-199.5849609375
-188.5986328125
-183.10546875
-168.45703125
-185.85205078125
-183.10546875
-173.03466796875
-174.86572265625
-184.02099609375
-187.68310546875
-184.02099609375
-195.9228515625
-190.4296875
-188.5986328125
-199.5849609375
-185.85205078125
-175.78125
-174.86572265625
-174.86572265625
-178.52783203125
-176.69677734375
-177.6123046875
-167.54150390625
-167.54150390625
-177.6123046875
-182.18994140625
-184.02099609375
-186.767578125
-193.17626953125
-197.75390625
-194.091796875
-182.18994140625
-184.9365234375
-189.51416015625
-186.767578125
-178.52783203125
-195.00732421875
-194.091796875
-197.75390625
-207.82470703125
-218.81103515625
-220.64208984375
-217.8955078125
-214.2333984375
-216.97998046875
-234.375
-233.45947265625
-233.45947265625
-227.05078125
-226.13525390625
-227.05078125
-226.13525390625
-216.064453125
-225.2197265625
-219.7265625
-209.65576171875
-216.064453125
-225.2197265625
-223.388671875
-225.2197265625
-229.79736328125
-236.2060546875
-253.60107421875
-262.75634765625
-244.44580078125
-206.9091796875
-131.8359375
-15.56396484375
120.849609375
242.61474609375
379.0283203125
535.58349609375
698.54736328125
834.9609375
986.9384765625
1119.68994140625
1188.3544921875
1203.0029296875
1128.84521484375
975.9521484375
751.64794921875
573.1201171875
467.83447265625
355.224609375
264.58740234375
202.33154296875
125.42724609375
69.580078125
25.634765625
6.40869140625
21.05712890625
-3.662109375
-43.02978515625
-63.17138671875
-43.9453125
-32.04345703125
-39.36767578125
-51.26953125
-53.1005859375
-65.91796875
-72.32666015625
-86.97509765625
-96.13037109375
-97.96142578125
-105.28564453125
-113.525390625
-111.6943359375
-110.77880859375
-124.51171875
-127.25830078125
-119.0185546875
-115.3564453125
-113.525390625
-120.849609375
-128.173828125
-123.59619140625
-115.3564453125
-114.44091796875
-114.44091796875
-113.525390625
-112.60986328125
-116.27197265625
-119.93408203125
-101.62353515625
-114.44091796875
-112.60986328125
-104.3701171875
-97.96142578125
-100.7080078125
-98.876953125
-94.29931640625
-90.63720703125
-88.80615234375
-85.14404296875
-87.890625
-79.65087890625
-83.31298828125
-93.3837890625
-88.80615234375
-71.4111328125
-77.81982421875
-71.4111328125
-55.84716796875
-55.84716796875
-58.59375
-49.4384765625
-49.4384765625
-54.01611328125
-60.4248046875
-41.19873046875
-39.36767578125
-35.70556640625
-40.283203125
-24.71923828125
-28.38134765625
-24.71923828125
-26.55029296875
-5.4931640625
-8.23974609375
-10.986328125
-4.57763671875
1.8310546875
8.23974609375
5.4931640625
11.90185546875
24.71923828125
23.8037109375
31.1279296875
37.53662109375
43.9453125
44.86083984375
60.4248046875
61.34033203125
55.84716796875
66.83349609375
68.66455078125
67.7490234375
86.97509765625
89.7216796875
97.0458984375
113.525390625
129.08935546875
134.58251953125
139.16015625
147.39990234375
152.89306640625
165.71044921875
171.20361328125
180.35888671875
184.9365234375
201.416015625
216.97998046875
222.47314453125
228.8818359375
245.361328125
258.1787109375
261.8408203125
270.08056640625
276.4892578125
290.22216796875
295.71533203125
303.955078125
321.35009765625
325.01220703125
332.33642578125
343.32275390625
334.16748046875
326.84326171875
320.4345703125
311.279296875
324.0966796875
322.265625
314.02587890625
291.1376953125
272.8271484375
258.1787109375
246.27685546875
214.2333984375
198.66943359375
174.86572265625
159.3017578125
136.41357421875
112.60986328125
89.7216796875
70.49560546875
54.931640625
32.958984375
12.8173828125
-7.32421875
-34.7900390625
-52.18505859375
-48.52294921875
-81.48193359375
-104.3701171875
-111.6943359375
-113.525390625
-130.92041015625
-139.16015625
-133.6669921875
-142.822265625
-155.6396484375
-163.87939453125
-175.78125
-174.86572265625
-191.34521484375
-192.2607421875
-198.66943359375
-197.75390625
-193.17626953125
-196.83837890625
-196.83837890625
-196.83837890625
-200.50048828125
-201.416015625
-195.00732421875
-186.767578125
-195.9228515625
-199.5849609375
-201.416015625
-222.47314453125
-213.31787109375
-202.33154296875
-192.2607421875
-209.65576171875
-199.5849609375
-195.9228515625
-211.48681640625
-201.416015625
-210.5712890625
-202.33154296875
-199.5849609375
-207.82470703125
-206.9091796875
-204.16259765625
-196.83837890625
-197.75390625
-199.5849609375
-199.5849609375
-198.66943359375
-205.99365234375
-206.9091796875
-215.14892578125
-207.82470703125
-205.99365234375
-218.81103515625
-216.97998046875
-212.40234375
-210.5712890625
-203.2470703125
-212.40234375
-207.82470703125
-201.416015625
-209.65576171875
-205.99365234375
-205.99365234375
-201.416015625
-208.740234375
-220.64208984375
-211.48681640625
-215.14892578125
-209.65576171875
-208.740234375
-207.82470703125
-213.31787109375
-219.7265625
-217.8955078125
-216.97998046875
-218.81103515625
-219.7265625
-219.7265625
-223.388671875
-207.82470703125
-216.97998046875
-227.96630859375
-221.5576171875
-227.96630859375
-222.47314453125
-223.388671875
-222.47314453125
-231.62841796875
-233.45947265625
-229.79736328125
-231.62841796875
-232.5439453125
-236.2060546875
-238.95263671875
-222.47314453125
-217.8955078125
-230.712890625
-230.712890625
-231.62841796875
-238.037109375
-240.78369140625
-238.95263671875
-240.78369140625
-235.29052734375
-240.78369140625
-243.5302734375
-234.375
-243.5302734375
-241.69921875
-240.78369140625
-242.61474609375
-232.5439453125
-233.45947265625
-237.12158203125
-223.388671875
-238.037109375
-248.10791015625
-263.671875
-256.34765625
-249.0234375
-247.1923828125
-238.037109375
-238.95263671875
-233.45947265625
-234.375
-243.5302734375
-242.61474609375
-246.27685546875
-249.93896484375
-248.10791015625
-242.61474609375
-242.61474609375
-248.10791015625
-249.0234375
-247.1923828125
-249.0234375
-256.34765625
-247.1923828125
-246.27685546875
-237.12158203125
-242.61474609375
-240.78369140625
-239.8681640625
-238.037109375
-241.69921875
-242.61474609375
-249.93896484375
-249.0234375
-249.93896484375
-249.0234375
-247.1923828125
-244.44580078125
-242.61474609375
-240.78369140625
-248.10791015625
-247.1923828125
-240.78369140625
-251.77001953125
-248.10791015625
-232.5439453125
-247.1923828125
-251.77001953125
-240.78369140625
-242.61474609375
-238.037109375
-238.95263671875
-253.60107421875
-248.10791015625
-245.361328125
-244.44580078125
-243.5302734375
-247.1923828125
-249.93896484375
-249.0234375
-247.1923828125
-246.27685546875
-240.78369140625
-233.45947265625
-229.79736328125
-234.375
-236.2060546875
-239.8681640625
-243.5302734375
-247.1923828125
-239.8681640625
-247.1923828125
-239.8681640625
-236.2060546875
-245.361328125
-243.5302734375
-240.78369140625
-245.361328125
-243.5302734375
-242.61474609375
-235.29052734375
-238.95263671875
-241.69921875
-238.037109375
-240.78369140625
-231.62841796875
-241.69921875
-234.375
-231.62841796875
-237.12158203125
-241.69921875
-239.8681640625
-238.037109375
-238.95263671875
-246.27685546875
-231.62841796875
-238.037109375
-238.95263671875
-230.712890625
-238.95263671875
-245.361328125
-245.361328125
-240.78369140625
-228.8818359375
-229.79736328125
-235.29052734375
-227.05078125
-221.5576171875
-231.62841796875
-228.8818359375
-240.78369140625
-244.44580078125
-244.44580078125
-242.61474609375
-238.95263671875
-231.62841796875
-224.30419921875
-239.8681640625
-246.27685546875
-245.361328125
-243.5302734375
-238.95263671875
-234.375
-237.12158203125
-236.2060546875
-235.29052734375
-237.12158203125
-234.375
-234.375
-238.95263671875
-233.45947265625
-227.05078125
-235.29052734375
-235.29052734375
-235.29052734375
-238.037109375
-237.12158203125
-229.79736328125
-235.29052734375
-230.712890625
-234.375
-234.375
-232.5439453125
-243.5302734375
-235.29052734375
-236.2060546875
-235.29052734375
-237.12158203125
-238.95263671875
-227.05078125
-234.375
-243.5302734375
-238.037109375
-235.29052734375
-229.79736328125
-238.037109375
-238.037109375
-233.45947265625
-233.45947265625
-235.29052734375
-233.45947265625
-239.8681640625
-237.12158203125
-238.95263671875
-235.29052734375
-227.96630859375
-237.12158203125
-235.29052734375
-228.8818359375
-229.79736328125
-229.79736328125
-217.8955078125
-213.31787109375
-212.40234375
-211.48681640625
-205.078125
-202.33154296875
-202.33154296875
-195.00732421875
-203.2470703125
-203.2470703125
-198.66943359375
-204.16259765625
-210.5712890625
-208.740234375
-209.65576171875
-218.81103515625
-208.740234375
-187.68310546875
-184.02099609375
-189.51416015625
-195.00732421875
-196.83837890625
-195.9228515625
-201.416015625
-197.75390625
-201.416015625
-198.66943359375
-202.33154296875
-208.740234375
-193.17626953125
-196.83837890625
-206.9091796875
-211.48681640625
-211.48681640625
-215.14892578125
-219.7265625
-221.5576171875
-228.8818359375
-214.2333984375
-217.8955078125
-228.8818359375
-229.79736328125
-237.12158203125
-249.93896484375
-245.361328125
-245.361328125
-238.037109375
-247.1923828125
-241.69921875
-249.0234375
-243.5302734375
-237.12158203125
-237.12158203125
-240.78369140625
-240.78369140625
-234.375
-227.96630859375
-234.375
-237.12158203125
-232.5439453125
-231.62841796875
-238.037109375
-253.60107421875
-272.8271484375
-274.658203125
-253.60107421875
-216.064453125
-133.6669921875
-21.97265625
101.62353515625
223.388671875
370.78857421875
516.357421875
679.3212890625
839.53857421875
978.69873046875
1093.1396484375
1165.46630859375
1170.0439453125
1099.54833984375
963.134765625
736.99951171875
562.1337890625
455.9326171875
349.7314453125
273.74267578125
209.65576171875
134.58251953125
75.98876953125
38.4521484375
24.71923828125
8.23974609375
-12.8173828125
-49.4384765625
-74.15771484375
-54.931640625
-47.607421875
-64.0869140625
-65.91796875
-76.904296875
-86.0595703125
-95.21484375
-102.5390625
-118.10302734375
-126.3427734375
-127.25830078125
-128.173828125
-130.92041015625
-132.75146484375
-137.3291015625
-132.75146484375
-130.0048828125
-137.3291015625
-140.07568359375
-146.484375
-155.6396484375
-156.55517578125
-137.3291015625
-134.58251953125
-130.92041015625
-130.0048828125
-139.16015625
-128.173828125
-119.0185546875
-123.59619140625
-128.173828125
-123.59619140625
-127.25830078125
-121.76513671875
-108.0322265625
-121.76513671875
-120.849609375
-113.525390625
-109.86328125
-114.44091796875
-107.11669921875
-104.3701171875
-97.0458984375
-107.11669921875
-96.13037109375
-88.80615234375
-82.3974609375
-87.890625
-91.552734375
-81.48193359375
-75.98876953125
-68.66455078125
-77.81982421875
-73.2421875
-65.00244140625
-64.0869140625
-56.7626953125
-56.7626953125
-54.931640625
-55.84716796875
-55.84716796875
-39.36767578125
-36.62109375
-36.62109375
-29.296875
-30.21240234375
-27.4658203125
-24.71923828125
-16.4794921875
-8.23974609375
-4.57763671875
-3.662109375
6.40869140625
10.986328125
3.662109375
12.8173828125
22.88818359375
25.634765625
33.87451171875
44.86083984375
46.69189453125
53.1005859375
62.255859375
75.98876953125
72.32666015625
74.15771484375
78.7353515625
88.80615234375
101.62353515625
109.86328125
118.10302734375
128.173828125
126.3427734375
135.498046875
141.90673828125
166.6259765625
174.86572265625
175.78125
187.68310546875
193.17626953125
204.16259765625
222.47314453125
226.13525390625
228.8818359375
256.34765625
264.58740234375
270.99609375
272.8271484375
282.89794921875
290.22216796875
298.4619140625
304.87060546875
293.88427734375
291.1376953125
294.7998046875
299.37744140625
294.7998046875
284.72900390625
267.333984375
257.26318359375
236.2060546875
217.8955078125
214.2333984375
186.767578125
174.86572265625
151.9775390625
130.92041015625
105.28564453125
92.46826171875
65.91796875
43.9453125
17.39501953125
-1.8310546875
-19.22607421875
-41.19873046875
-60.4248046875
-74.15771484375
-102.5390625
-115.3564453125
-120.849609375
-130.92041015625
-137.3291015625
-150.146484375
-165.71044921875
-169.37255859375
-176.69677734375
-184.9365234375
-201.416015625
-208.740234375
-197.75390625
-203.2470703125
-215.14892578125
-213.31787109375
-212.40234375
-210.5712890625
-217.8955078125
-216.97998046875
-222.47314453125
-220.64208984375
-220.64208984375
-220.64208984375
-218.81103515625
-212.40234375
-217.8955078125
-227.05078125
-219.7265625
-214.2333984375
-226.13525390625
-223.388671875
-217.8955078125
-218.81103515625
-216.97998046875
-216.97998046875
-215.14892578125
-216.064453125
-209.65576171875
-220.64208984375
-219.7265625
-208.740234375
-226.13525390625
-233.45947265625
-224.30419921875
-218.81103515625
-221.5576171875
-223.388671875
-217.8955078125
-214.2333984375
-215.14892578125
-215.14892578125
-216.064453125
-209.65576171875
-206.9091796875
-223.388671875
-221.5576171875
-223.388671875
-219.7265625
-214.2333984375
-215.14892578125
-213.31787109375
-221.5576171875
-223.388671875
-226.13525390625
-222.47314453125
-220.64208984375
-218.81103515625
-225.2197265625
-234.375
-240.78369140625
-243.5302734375
-227.05078125
-228.8818359375
-229.79736328125
-230.712890625
-231.62841796875
-227.05078125
-224.30419921875
-224.30419921875
-233.45947265625
-224.30419921875
-238.95263671875
-244.44580078125
-239.8681640625
-241.69921875
-245.361328125
-236.2060546875
-244.44580078125
-242.61474609375
-238.95263671875
-245.361328125
-238.037109375
-237.12158203125
-244.44580078125
-250.8544921875
-246.27685546875
-249.0234375
-243.5302734375
-241.69921875
-247.1923828125
-246.27685546875
-243.5302734375
-243.5302734375
-252.685546875
-255.43212890625
-250.8544921875
-258.1787109375
-251.77001953125
-249.93896484375
-256.34765625
-259.09423828125
-249.93896484375
-249.93896484375
-249.0234375
-248.10791015625
-256.34765625
-251.77001953125
-249.0234375
-246.27685546875
-249.0234375
-268.24951171875
-263.671875
-258.1787109375
-259.09423828125
-246.27685546875
-255.43212890625
-252.685546875
-263.671875
-255.43212890625
-257.26318359375
-260.009765625
-251.77001953125
-259.09423828125
-257.26318359375
-253.60107421875
-253.60107421875
-249.0234375
-252.685546875
-255.43212890625
-259.09423828125
-252.685546875
-255.43212890625
-256.34765625
-251.77001953125
-260.92529296875
-254.5166015625
-261.8408203125
-258.1787109375
-258.1787109375
-252.685546875
-254.5166015625
-249.93896484375
-250.8544921875
-251.77001953125
-257.26318359375
-255.43212890625
-259.09423828125
-251.77001953125
-239.8681640625
-251.77001953125
-255.43212890625
-252.685546875
-256.34765625
-259.09423828125
-257.26318359375
-264.58740234375
-263.671875
-265.5029296875
-258.1787109375
-243.5302734375
-250.8544921875
-253.60107421875
-241.69921875
-244.44580078125
-248.10791015625
-242.61474609375
-241.69921875
-239.8681640625
-249.0234375
-250.8544921875
-256.34765625
-257.26318359375
-250.8544921875
-252.685546875
-251.77001953125
-250.8544921875
-246.27685546875
-238.95263671875
-250.8544921875
-249.93896484375
-258.1787109375
-252.685546875
-246.27685546875
-253.60107421875
-258.1787109375
-255.43212890625
-244.44580078125
-247.1923828125
-253.60107421875
-252.685546875
-249.93896484375
-261.8408203125
-256.34765625
-249.0234375
-250.8544921875
-248.10791015625
-244.44580078125
-244.44580078125
-248.10791015625
-252.685546875
-256.34765625
-250.8544921875
-250.8544921875
-248.10791015625
-250.8544921875
-251.77001953125
-238.95263671875
-238.95263671875
-250.8544921875
-242.61474609375
-245.361328125
-241.69921875
-238.95263671875
-239.8681640625
-251.77001953125
-245.361328125
-247.1923828125
-242.61474609375
-242.61474609375
-245.361328125
-250.8544921875
-247.1923828125
-252.685546875
-240.78369140625
-233.45947265625
-237.12158203125
-247.1923828125
-240.78369140625
-243.5302734375
-239.8681640625
-240.78369140625
-246.27685546875
-238.95263671875
-238.95263671875
-227.05078125
-235.29052734375
-227.05078125
-234.375
-238.037109375
-238.95263671875
-240.78369140625
-236.2060546875
-221.5576171875
-222.47314453125
-212.40234375
-205.99365234375
-209.65576171875
-222.47314453125
-216.064453125
-197.75390625
-207.82470703125
-212.40234375
-214.2333984375
-200.50048828125
-209.65576171875
-207.82470703125
-204.16259765625
-204.16259765625
-201.416015625
-195.00732421875
-200.50048828125
-204.16259765625
-205.078125
-195.00732421875
-191.34521484375
-198.66943359375
-202.33154296875
-199.5849609375
-203.2470703125
-206.9091796875
-214.2333984375
-211.48681640625
-209.65576171875
-208.740234375
-208.740234375
-212.40234375
-208.740234375
-214.2333984375
-229.79736328125
-226.13525390625
-224.30419921875
-238.037109375
-240.78369140625
-234.375
-249.93896484375
-253.60107421875
-249.0234375
-248.10791015625
-244.44580078125
-238.95263671875
-243.5302734375
-239.8681640625
-240.78369140625
-230.712890625
-227.05078125
-222.47314453125
-233.45947265625
-223.388671875
-219.7265625
-228.8818359375
-217.8955078125
-220.64208984375
-230.712890625
-242.61474609375
-261.8408203125
-267.333984375
-256.34765625
-211.48681640625
-127.25830078125
-10.986328125
120.849609375
245.361328125
393.6767578125
562.1337890625
719.6044921875
882.568359375
1010.7421875
1139.83154296875
1189.27001953125
1182.861328125
1108.70361328125
952.1484375
737.9150390625
569.4580078125
456.84814453125
355.224609375
264.58740234375
194.091796875
140.9912109375
87.890625
37.53662109375
34.7900390625
15.56396484375
-12.8173828125
-49.4384765625
-61.34033203125
-56.7626953125
-43.02978515625
-41.19873046875
-46.69189453125
-48.52294921875
-57.67822265625
-73.2421875
-78.7353515625
-85.14404296875
-89.7216796875
-99.79248046875
-100.7080078125
-108.94775390625
-103.45458984375
-106.201171875
-95.21484375
-100.7080078125
-97.0458984375
-106.201171875
-108.94775390625
-105.28564453125
-99.79248046875
-98.876953125
-99.79248046875
-91.552734375
-83.31298828125
-98.876953125
-86.0595703125
-77.81982421875
-86.0595703125
-84.228515625
-89.7216796875
-86.0595703125
-77.81982421875
-66.83349609375
-78.7353515625
-75.0732421875
-75.98876953125
-67.7490234375
-65.91796875
-58.59375
-63.17138671875
-58.59375
-50.35400390625
-53.1005859375
-43.9453125
-41.19873046875
-32.958984375
-38.4521484375
-30.21240234375
-16.4794921875
-18.310546875
-21.97265625
-24.71923828125
-11.90185546875
-7.32421875
-0.91552734375
-2.74658203125
8.23974609375
9.1552734375
12.8173828125
15.56396484375
18.310546875
33.87451171875
33.87451171875
37.53662109375
43.9453125
59.50927734375
50.35400390625
64.0869140625
62.255859375
70.49560546875
69.580078125
69.580078125
93.3837890625
92.46826171875
97.96142578125
99.79248046875
98.876953125
113.525390625
124.51171875
129.08935546875
132.75146484375
143.73779296875
151.06201171875
160.21728515625
165.71044921875
179.443359375
195.9228515625
195.00732421875
199.5849609375
205.99365234375
220.64208984375
226.13525390625
231.62841796875
245.361328125
251.77001953125
260.009765625
273.74267578125
278.3203125
292.05322265625
303.955078125
325.927734375
331.4208984375
336.9140625
349.7314453125
362.548828125
364.3798828125
366.2109375
365.29541015625
373.53515625
389.09912109375
383.60595703125
373.53515625
377.197265625
377.197265625
368.95751953125
370.78857421875
349.7314453125
330.50537109375
327.7587890625
314.02587890625
299.37744140625
277.40478515625
253.60107421875
238.037109375
212.40234375
190.4296875
174.86572265625
152.89306640625
127.25830078125
102.5390625
88.80615234375
70.49560546875
60.4248046875
34.7900390625
10.07080078125
3.662109375
-13.73291015625
-19.22607421875
-26.55029296875
-37.53662109375
-43.02978515625
-58.59375
-68.66455078125
-66.83349609375
-71.4111328125
-70.49560546875
-63.17138671875
-79.65087890625
-85.14404296875
-87.890625
-89.7216796875
-94.29931640625
-92.46826171875
-90.63720703125
-92.46826171875
-102.5390625
-104.3701171875
-94.29931640625
-94.29931640625
-99.79248046875
-91.552734375
-90.63720703125
-100.7080078125
-86.97509765625
-91.552734375
-89.7216796875
-81.48193359375
-76.904296875
-75.98876953125
-88.80615234375
-86.97509765625
-83.31298828125
-74.15771484375
-79.65087890625
-79.65087890625
-78.7353515625
-79.65087890625
-74.15771484375
-77.81982421875
-75.0732421875
-70.49560546875
-67.7490234375
-55.84716796875
-64.0869140625
-57.67822265625
-58.59375
-65.00244140625
-59.50927734375
-60.4248046875
-59.50927734375
-61.34033203125
-54.01611328125
-45.7763671875
-47.607421875
-50.35400390625
-56.7626953125
-65.91796875
-63.17138671875
-60.4248046875
-73.2421875
-58.59375
-60.4248046875
-61.34033203125
-54.01611328125
-48.52294921875
-51.26953125
-48.52294921875
-53.1005859375
-69.580078125
-58.59375
-61.34033203125
-52.18505859375
-56.7626953125
-51.26953125
-52.18505859375
-50.35400390625
-54.931640625
-50.35400390625
-53.1005859375
-52.18505859375
-47.607421875
-44.86083984375
-46.69189453125
-44.86083984375
-43.02978515625
-47.607421875
-42.1142578125
-45.7763671875
-51.26953125
-43.02978515625
-36.62109375
-35.70556640625
-37.53662109375
-40.283203125
-43.02978515625
-35.70556640625
-27.4658203125
-29.296875
-27.4658203125
-34.7900390625
-30.21240234375
-32.04345703125
-26.55029296875
-28.38134765625
-21.97265625
-16.4794921875
-18.310546875
-20.1416015625
-21.05712890625
-21.05712890625
-14.6484375
-11.90185546875
-19.22607421875
-15.56396484375
-14.6484375
-11.90185546875
-10.986328125
-4.57763671875
-6.40869140625
-5.4931640625
0.91552734375
-3.662109375
-2.74658203125
-2.74658203125
2.74658203125
-3.662109375
0
5.4931640625
10.07080078125
10.07080078125
15.56396484375
15.56396484375
16.4794921875
11.90185546875
17.39501953125
18.310546875
24.71923828125
23.8037109375
30.21240234375
21.97265625
23.8037109375
22.88818359375
28.38134765625
38.4521484375
30.21240234375
31.1279296875
32.958984375
32.958984375
39.36767578125
42.1142578125
40.283203125
39.36767578125
43.02978515625
36.62109375
47.607421875
54.01611328125
52.18505859375
45.7763671875
49.4384765625
54.931640625
55.84716796875
60.4248046875
65.00244140625
53.1005859375
63.17138671875
63.17138671875
66.83349609375
64.0869140625
71.4111328125
76.904296875
77.81982421875
74.15771484375
75.0732421875
68.66455078125
69.580078125
71.4111328125
76.904296875
80.56640625
78.7353515625
76.904296875
81.48193359375
86.97509765625
87.890625
86.97509765625
97.0458984375
100.7080078125
97.96142578125
103.45458984375
105.28564453125
99.79248046875
105.28564453125
117.1875
125.42724609375
131.8359375
137.3291015625
146.484375
153.80859375
135.498046875
137.3291015625
134.58251953125
133.6669921875
144.6533203125
143.73779296875
145.56884765625
151.06201171875
155.6396484375
164.794921875
176.69677734375
170.2880859375
163.87939453125
158.38623046875
162.04833984375
167.54150390625
172.119140625
172.119140625
167.54150390625
169.37255859375
163.87939453125
164.794921875
160.21728515625
158.38623046875
155.6396484375
152.89306640625
142.822265625
154.72412109375
154.72412109375
149.23095703125
147.39990234375
157.470703125
141.90673828125
140.9912109375
128.173828125
120.849609375
121.76513671875
117.1875
119.0185546875
121.76513671875
123.59619140625
127.25830078125
128.173828125
130.0048828125
132.75146484375
135.498046875
136.41357421875
143.73779296875
144.6533203125
152.89306640625
158.38623046875
154.72412109375
156.55517578125
154.72412109375
146.484375
125.42724609375
100.7080078125
87.890625
110.77880859375
148.3154296875
236.2060546875
356.14013671875
496.2158203125
629.8828125
770.8740234375
935.6689453125
1123.35205078125
1295.47119140625
1423.64501953125
1546.32568359375
1600.341796875
1602.1728515625
1527.099609375
1377.86865234375
1134.33837890625
909.11865234375
791.93115234375
689.39208984375
593.26171875
509.94873046875
466.9189453125
427.55126953125
399.169921875
370.78857421875
363.46435546875
345.15380859375
330.50537109375
318.603515625
311.279296875
322.265625
338.7451171875
344.23828125
348.81591796875
334.16748046875
327.7587890625
315.85693359375
305.7861328125
308.53271484375
306.70166015625
300.29296875
296.630859375
303.03955078125
305.7861328125
303.955078125
307.6171875
308.53271484375
303.955078125
304.87060546875
303.955078125
313.1103515625
306.70166015625
315.85693359375
325.01220703125
319.51904296875
323.18115234375
318.603515625
324.0966796875
333.251953125
336.9140625
337.82958984375
335.99853515625
333.251953125
341.49169921875
346.98486328125
351.5625
346.98486328125
356.14013671875
353.3935546875
361.63330078125
364.3798828125
362.548828125
369.873046875
366.2109375
379.94384765625
383.60595703125
384.521484375
389.09912109375
393.6767578125
398.25439453125
398.25439453125
401.91650390625
407.40966796875
417.48046875
421.142578125
431.21337890625
430.2978515625
427.55126953125
435.791015625
438.53759765625
441.2841796875
446.77734375
449.52392578125
460.51025390625
466.9189453125
466.9189453125
473.32763671875
483.3984375
484.31396484375
487.97607421875
487.97607421875
494.384765625
501.708984375
516.357421875
520.01953125
514.5263671875
516.357421875
524.59716796875
534.66796875
544.73876953125
564.88037109375
564.88037109375
563.96484375
572.20458984375
576.7822265625
588.68408203125
596.00830078125
600.5859375
616.14990234375
621.64306640625
629.8828125
643.61572265625
648.193359375
663.75732421875
671.9970703125
676.57470703125
682.9833984375
697.6318359375
712.2802734375
722.35107421875
736.99951171875
736.083984375
742.49267578125
757.14111328125
758.97216796875
769.95849609375
776.3671875
787.353515625
781.8603515625
790.10009765625
787.353515625
781.8603515625
782.77587890625
783.69140625
772.705078125
758.97216796875
749.81689453125
745.2392578125
727.84423828125
708.6181640625
688.4765625
665.58837890625
650.0244140625
628.96728515625
613.4033203125
585.02197265625
562.1337890625
542.90771484375
513.61083984375
500.79345703125
486.14501953125
467.83447265625
448.6083984375
432.12890625
416.56494140625
401.0009765625
390.0146484375
379.0283203125
366.2109375
355.224609375
347.900390625
336.9140625
334.16748046875
328.67431640625
319.51904296875
322.265625
314.02587890625
304.87060546875
303.955078125
301.20849609375
302.1240234375
300.29296875
293.88427734375
298.4619140625
301.20849609375
297.54638671875
302.1240234375
305.7861328125
294.7998046875
292.96875
300.29296875
301.20849609375
305.7861328125
304.87060546875
301.20849609375
303.03955078125
301.20849609375
311.279296875
306.70166015625
308.53271484375
301.20849609375
303.955078125
307.6171875
309.4482421875
310.36376953125
303.955078125
312.19482421875
314.02587890625
325.01220703125
318.603515625
306.70166015625
311.279296875
313.1103515625
308.53271484375
308.53271484375
307.6171875
303.955078125
311.279296875
305.7861328125
305.7861328125
303.955078125
307.6171875
309.4482421875
324.0966796875
312.19482421875
303.955078125
305.7861328125
313.1103515625
310.36376953125
305.7861328125
298.4619140625
302.1240234375
303.03955078125
296.630859375
298.4619140625
300.29296875
299.37744140625
305.7861328125
304.87060546875
303.03955078125
302.1240234375
301.20849609375
300.29296875
301.20849609375
295.71533203125
293.88427734375
301.20849609375
301.20849609375
294.7998046875
290.22216796875
288.39111328125
287.4755859375
289.306640625
298.4619140625
288.39111328125
291.1376953125
285.64453125
290.22216796875
296.630859375
303.03955078125
304.87060546875
292.96875
290.22216796875
291.1376953125
288.39111328125
281.982421875
285.64453125
290.22216796875
281.06689453125
282.89794921875
290.22216796875
284.72900390625
289.306640625
284.72900390625
283.8134765625
289.306640625
292.96875
285.64453125
286.56005859375
286.56005859375
287.4755859375
285.64453125
289.306640625
292.05322265625
284.72900390625
284.72900390625
283.8134765625
284.72900390625
279.23583984375
286.56005859375
281.982421875
284.72900390625
296.630859375
287.4755859375
282.89794921875
280.1513671875
286.56005859375
293.88427734375
289.306640625
273.74267578125
282.89794921875
284.72900390625
292.05322265625
284.72900390625
288.39111328125
283.8134765625
287.4755859375
289.306640625
281.06689453125
276.4892578125
281.982421875
282.89794921875
283.8134765625
287.4755859375
288.39111328125
284.72900390625
281.06689453125
282.89794921875
283.8134765625
277.40478515625
278.3203125
294.7998046875
293.88427734375
296.630859375
300.29296875
299.37744140625
305.7861328125
310.36376953125
308.53271484375
317.68798828125
323.18115234375
324.0966796875
316.7724609375
334.16748046875
346.0693359375
345.15380859375
337.82958984375
340.576171875
339.66064453125
334.16748046875
335.99853515625
339.66064453125
340.576171875
339.66064453125
341.49169921875
342.4072265625
351.5625
347.900390625
341.49169921875
335.0830078125
340.576171875
338.7451171875
352.47802734375
344.23828125
335.99853515625
340.576171875
332.33642578125
335.0830078125
326.84326171875
316.7724609375
315.85693359375
321.35009765625
309.4482421875
311.279296875
317.68798828125
320.4345703125
301.20849609375
309.4482421875
302.1240234375
291.1376953125
289.306640625
284.72900390625
273.74267578125
277.40478515625
289.306640625
281.06689453125
278.3203125
277.40478515625
279.23583984375
285.64453125
277.40478515625
279.23583984375
295.71533203125
287.4755859375
289.306640625
290.22216796875
288.39111328125
288.39111328125
295.71533203125
296.630859375
299.37744140625
283.8134765625
266.41845703125
252.685546875
244.44580078125
252.685546875
288.39111328125
371.7041015625
482.48291015625
620.7275390625
751.64794921875
888.0615234375
1051.025390625
1232.2998046875
1397.0947265625
1535.33935546875
1656.18896484375
1716.61376953125
1706.54296875
1640.625
1492.3095703125
1272.5830078125
1076.66015625
961.3037109375
867.00439453125
780.94482421875
718.68896484375
649.10888671875
597.83935546875
554.8095703125
530.09033203125
511.77978515625
476.07421875
461.42578125
436.70654296875
438.53759765625
454.1015625
464.17236328125
462.34130859375
446.77734375
444.03076171875
431.21337890625
420.22705078125
415.6494140625
403.74755859375
397.3388671875
392.76123046875
392.76123046875
391.845703125
385.43701171875
391.845703125
390.0146484375
390.0146484375
389.09912109375
382.6904296875
388.18359375
390.93017578125
390.0146484375
389.09912109375
386.3525390625
390.0146484375
393.6767578125
393.6767578125
397.3388671875
401.0009765625
399.169921875
403.74755859375
401.0009765625
403.74755859375
418.39599609375
415.6494140625
412.90283203125
413.818359375
416.56494140625
422.9736328125
419.3115234375
422.9736328125
433.04443359375
436.70654296875
435.791015625
439.453125
446.77734375
454.1015625
447.69287109375
452.2705078125
455.9326171875
457.763671875
460.51025390625
459.5947265625
469.66552734375
470.5810546875
469.66552734375
474.2431640625
476.98974609375
480.65185546875
482.48291015625
491.63818359375
501.708984375
498.046875
498.046875
511.77978515625
512.6953125
513.61083984375
516.357421875
525.5126953125
526.42822265625
529.1748046875
534.66796875
547.4853515625
550.23193359375
547.4853515625
559.38720703125
565.7958984375
568.54248046875
580.4443359375
594.17724609375
596.923828125
598.7548828125
606.0791015625
610.65673828125
625.30517578125
627.13623046875
637.20703125
640.869140625
647.27783203125
660.09521484375
664.6728515625
680.23681640625
687.56103515625
691.22314453125
691.22314453125
702.20947265625
717.7734375
731.50634765625
732.421875
749.81689453125
752.5634765625
764.46533203125
772.705078125
774.5361328125
781.8603515625
780.029296875
793.76220703125
801.08642578125
799.25537109375
802.001953125
803.8330078125
800.1708984375
795.59326171875
789.1845703125
773.62060546875
756.2255859375
754.39453125
739.74609375
706.787109375
694.88525390625
682.06787109375
661.0107421875
631.7138671875
615.234375
600.5859375
568.54248046875
554.8095703125
531.005859375
509.033203125
488.8916015625
462.34130859375
445.86181640625
431.21337890625
416.56494140625
404.6630859375
392.76123046875
384.521484375
363.46435546875
349.7314453125
347.900390625
331.4208984375
318.603515625
312.19482421875
312.19482421875
313.1103515625
304.87060546875
303.03955078125
300.29296875
294.7998046875
295.71533203125
289.306640625
285.64453125
289.306640625
286.56005859375
285.64453125
282.89794921875
280.1513671875
285.64453125
284.72900390625
282.89794921875
291.1376953125
289.306640625
285.64453125
285.64453125
287.4755859375
278.3203125
282.89794921875
279.23583984375
283.8134765625
278.3203125
281.06689453125
279.23583984375
287.4755859375
285.64453125
286.56005859375
282.89794921875
276.4892578125
280.1513671875
281.982421875
286.56005859375
283.8134765625
282.89794921875
284.72900390625
280.1513671875
274.658203125
272.8271484375
281.06689453125
277.40478515625
278.3203125
276.4892578125
271.91162109375
269.1650390625
276.4892578125
268.24951171875
276.4892578125
276.4892578125
270.08056640625
273.74267578125
267.333984375
262.75634765625
257.26318359375
263.671875
268.24951171875
259.09423828125
262.75634765625
260.92529296875
257.26318359375
262.75634765625
262.75634765625
251.77001953125
252.685546875
249.0234375
256.34765625
261.8408203125
258.1787109375
241.69921875
238.95263671875
243.5302734375
247.1923828125
244.44580078125
245.361328125
245.361328125
246.27685546875
248.10791015625
243.5302734375
241.69921875
238.037109375
246.27685546875
244.44580078125
238.037109375
238.037109375
234.375
232.5439453125
233.45947265625
238.95263671875
244.44580078125
235.29052734375
237.12158203125
232.5439453125
232.5439453125
233.45947265625
234.375
230.712890625
231.62841796875
230.712890625
228.8818359375
229.79736328125
232.5439453125
234.375
232.5439453125
236.2060546875
232.5439453125
232.5439453125
224.30419921875
222.47314453125
227.96630859375
223.388671875
223.388671875
220.64208984375
219.7265625
220.64208984375
224.30419921875
219.7265625
225.2197265625
221.5576171875
226.13525390625
227.96630859375
221.5576171875
224.30419921875
220.64208984375
219.7265625
208.740234375
211.48681640625
220.64208984375
211.48681640625
216.97998046875
216.064453125
215.14892578125
213.31787109375
216.064453125
219.7265625
217.8955078125
217.8955078125
221.5576171875
216.064453125
206.9091796875
211.48681640625
212.40234375
202.33154296875
216.064453125
216.97998046875
215.14892578125
213.31787109375
214.2333984375
218.81103515625
222.47314453125
221.5576171875
228.8818359375
234.375
236.2060546875
242.61474609375
251.77001953125
258.1787109375
259.09423828125
263.671875
267.333984375
255.43212890625
244.44580078125
249.93896484375
251.77001953125
254.5166015625
263.671875
258.1787109375
251.77001953125
251.77001953125
256.34765625
264.58740234375
261.8408203125
252.685546875
257.26318359375
253.60107421875
250.8544921875
250.8544921875
245.361328125
252.685546875
243.5302734375
239.8681640625
229.79736328125
229.79736328125
232.5439453125
231.62841796875
219.7265625
218.81103515625
213.31787109375
207.82470703125
210.5712890625
216.97998046875
212.40234375
200.50048828125
189.51416015625
192.2607421875
181.2744140625
183.10546875
184.02099609375
184.02099609375
176.69677734375
186.767578125
184.02099609375
184.9365234375
189.51416015625
184.9365234375
189.51416015625
194.091796875
187.68310546875
191.34521484375
189.51416015625
184.9365234375
194.091796875
202.33154296875
196.83837890625
191.34521484375
174.86572265625
165.71044921875
140.9912109375
149.23095703125
176.69677734375
232.5439453125
345.15380859375
466.9189453125
596.923828125
725.09765625
882.568359375
1065.673828125
1232.2998046875
1377.86865234375
1506.9580078125
1591.1865234375
1613.1591796875
1560.05859375
1438.29345703125
1239.6240234375
1018.98193359375
894.47021484375
792.8466796875
690.3076171875
614.31884765625
556.640625
500.79345703125
454.1015625
420.22705078125
403.74755859375
374.45068359375
346.0693359375
331.4208984375
319.51904296875
334.16748046875
339.66064453125
339.66064453125
336.9140625
332.33642578125
320.4345703125
309.4482421875
301.20849609375
292.05322265625
284.72900390625
280.1513671875
281.982421875
271.91162109375
270.08056640625
274.658203125
270.99609375
272.8271484375
282.89794921875
275.57373046875
271.91162109375
266.41845703125
269.1650390625
278.3203125
273.74267578125
277.40478515625
280.1513671875
275.57373046875
281.06689453125
276.4892578125
281.06689453125
279.23583984375
280.1513671875
290.22216796875
290.22216796875
287.4755859375
283.8134765625
287.4755859375
296.630859375
299.37744140625
298.4619140625
305.7861328125
319.51904296875
311.279296875
314.94140625
309.4482421875
314.94140625
319.51904296875
327.7587890625
327.7587890625
335.99853515625
338.7451171875
337.82958984375
339.66064453125
337.82958984375
347.900390625
356.14013671875
356.14013671875
360.7177734375
361.63330078125
369.873046875
373.53515625
379.0283203125
382.6904296875
380.859375
381.77490234375
385.43701171875
396.42333984375
405.57861328125
411.07177734375
399.169921875
412.90283203125
414.73388671875
411.07177734375
419.3115234375
432.12890625
431.21337890625
444.03076171875
456.84814453125
448.6083984375
461.42578125
466.00341796875
469.66552734375
482.48291015625
481.5673828125
492.5537109375
497.13134765625
505.37109375
518.1884765625
521.8505859375
529.1748046875
531.005859375
547.4853515625
552.978515625
561.21826171875
570.37353515625
581.35986328125
591.4306640625
600.5859375
600.5859375
613.4033203125
618.896484375
636.29150390625
649.10888671875
643.61572265625
657.3486328125
669.25048828125
670.166015625
667.41943359375
673.828125
679.3212890625
672.91259765625
669.25048828125
663.75732421875
660.09521484375
650.93994140625
641.78466796875
630.79833984375
611.572265625
592.34619140625
582.275390625
560.302734375
537.41455078125
522.76611328125
492.5537109375
465.087890625
444.03076171875
428.466796875
408.3251953125
381.77490234375
367.12646484375
354.30908203125
338.7451171875
319.51904296875
301.20849609375
276.4892578125
262.75634765625
246.27685546875
234.375
226.13525390625
216.064453125
211.48681640625
207.82470703125
198.66943359375
193.17626953125
192.2607421875
180.35888671875
175.78125
167.54150390625
172.119140625
168.45703125
166.6259765625
161.1328125
168.45703125
167.54150390625
151.9775390625
151.06201171875
153.80859375
152.89306640625
162.04833984375
161.1328125
152.89306640625
153.80859375
158.38623046875
159.3017578125
161.1328125
155.6396484375
148.3154296875
149.23095703125
153.80859375
151.06201171875
152.89306640625
151.06201171875
147.39990234375
151.9775390625
159.3017578125
151.9775390625
154.72412109375
151.06201171875
153.80859375
160.21728515625
145.56884765625
145.56884765625
151.9775390625
155.6396484375
151.9775390625
151.9775390625
144.6533203125
149.23095703125
143.73779296875
145.56884765625
133.6669921875
134.58251953125
137.3291015625
142.822265625
138.24462890625
143.73779296875
151.06201171875
148.3154296875
138.24462890625
131.8359375
130.92041015625
138.24462890625
132.75146484375
131.8359375
144.6533203125
137.3291015625
133.6669921875
132.75146484375
134.58251953125
128.173828125
129.08935546875
128.173828125
127.25830078125
127.25830078125
122.6806640625
120.849609375
121.76513671875
121.76513671875
124.51171875
114.44091796875
119.93408203125
121.76513671875
115.3564453125
119.93408203125
123.59619140625
118.10302734375
108.94775390625
114.44091796875
107.11669921875
106.201171875
100.7080078125
105.28564453125
110.77880859375
111.6943359375
106.201171875
108.94775390625
108.94775390625
108.0322265625
103.45458984375
108.0322265625
109.86328125
111.6943359375
108.0322265625
101.62353515625
101.62353515625
98.876953125
106.201171875
108.0322265625
102.5390625
92.46826171875
101.62353515625
107.11669921875
102.5390625
101.62353515625
100.7080078125
106.201171875
99.79248046875
102.5390625
105.28564453125
100.7080078125
99.79248046875
97.0458984375
88.80615234375
93.3837890625
89.7216796875
85.14404296875
88.80615234375
92.46826171875
88.80615234375
91.552734375
99.79248046875
94.29931640625
85.14404296875
84.228515625
91.552734375
94.29931640625
92.46826171875
96.13037109375
96.13037109375
83.31298828125
94.29931640625
97.0458984375
96.13037109375
104.3701171875
92.46826171875
97.96142578125
101.62353515625
98.876953125
101.62353515625
106.201171875
105.28564453125
114.44091796875
119.0185546875
123.59619140625
128.173828125
132.75146484375
131.8359375
140.9912109375
135.498046875
130.0048828125
122.6806640625
130.92041015625
142.822265625
135.498046875
132.75146484375
133.6669921875
139.16015625
144.6533203125
141.90673828125
126.3427734375
123.59619140625
130.0048828125
133.6669921875
147.39990234375
132.75146484375
129.08935546875
126.3427734375
114.44091796875
114.44091796875
119.93408203125
113.525390625
114.44091796875
109.86328125
103.45458984375
97.0458984375
97.0458984375
91.552734375
92.46826171875
100.7080078125
83.31298828125
84.228515625
77.81982421875
66.83349609375
64.0869140625
65.91796875
60.4248046875
60.4248046875
61.34033203125
58.59375
65.91796875
60.4248046875
62.255859375
70.49560546875
65.91796875
67.7490234375
75.0732421875
85.14404296875
68.66455078125
75.0732421875
74.15771484375
78.7353515625
85.14404296875
82.3974609375
75.0732421875
65.00244140625
33.87451171875
8.23974609375
21.05712890625
48.52294921875
109.86328125
218.81103515625
353.3935546875
486.14501953125
619.81201171875
779.11376953125
955.810546875
1142.578125
1279.9072265625
1397.0947265625
1464.84375
1485.90087890625
1433.7158203125
1304.62646484375
1075.74462890625
830.38330078125
684.814453125
580.4443359375
487.060546875
407.40966796875
357.0556640625
317.68798828125
284.72900390625
261.8408203125
247.1923828125
212.40234375
195.00732421875
195.9228515625
186.767578125
176.69677734375
191.34521484375
207.82470703125
216.97998046875
212.40234375
205.99365234375
191.34521484375
187.68310546875
177.6123046875
166.6259765625
164.794921875
152.89306640625
156.55517578125
161.1328125
151.9775390625
147.39990234375
148.3154296875
152.89306640625
161.1328125
158.38623046875
154.72412109375
155.6396484375
153.80859375
158.38623046875
157.470703125
162.04833984375
163.87939453125
165.71044921875
166.6259765625
172.119140625
170.2880859375
181.2744140625
172.119140625
172.119140625
182.18994140625
185.85205078125
185.85205078125
187.68310546875
190.4296875
184.9365234375
192.2607421875
197.75390625
196.83837890625
203.2470703125
208.740234375
201.416015625
205.078125
212.40234375
220.64208984375
227.96630859375
235.29052734375
223.388671875
231.62841796875
240.78369140625
239.8681640625
232.5439453125
240.78369140625
244.44580078125
256.34765625
257.26318359375
262.75634765625
266.41845703125
269.1650390625
268.24951171875
270.99609375
281.982421875
292.05322265625
285.64453125
292.96875
299.37744140625
304.87060546875
308.53271484375
309.4482421875
317.68798828125
324.0966796875
324.0966796875
332.33642578125
335.99853515625
344.23828125
348.81591796875
359.80224609375
363.46435546875
371.7041015625
371.7041015625
382.6904296875
390.0146484375
401.0009765625
403.74755859375
411.9873046875
420.22705078125
426.6357421875
432.12890625
447.69287109375
458.67919921875
455.9326171875
461.42578125
468.75
480.65185546875
497.13134765625
499.8779296875
515.44189453125
516.357421875
522.76611328125
532.8369140625
534.66796875
546.56982421875
547.4853515625
554.8095703125
557.55615234375
549.31640625
551.1474609375
545.654296875
542.90771484375
533.75244140625
531.005859375
510.8642578125
492.5537109375
478.82080078125
460.51025390625
448.6083984375
427.55126953125
408.3251953125
388.18359375
357.0556640625
338.7451171875
320.4345703125
295.71533203125
279.23583984375
261.8408203125
241.69921875
222.47314453125
202.33154296875
194.091796875
176.69677734375
156.55517578125
140.9912109375
131.8359375
120.849609375
119.0185546875
103.45458984375
87.890625
91.552734375
84.228515625
94.29931640625
73.2421875
65.91796875
66.83349609375
66.83349609375
63.17138671875
56.7626953125
63.17138671875
59.50927734375
62.255859375
60.4248046875
57.67822265625
60.4248046875
47.607421875
53.1005859375
51.26953125
50.35400390625
51.26953125
54.931640625
53.1005859375
56.7626953125
57.67822265625
50.35400390625
54.01611328125
56.7626953125
51.26953125
54.01611328125
54.931640625
53.1005859375
51.26953125
47.607421875
48.52294921875
56.7626953125
47.607421875
49.4384765625
51.26953125
59.50927734375
52.18505859375
49.4384765625
42.1142578125
42.1142578125
57.67822265625
49.4384765625
44.86083984375
43.9453125
48.52294921875
36.62109375
43.02978515625
47.607421875
44.86083984375
43.02978515625
44.86083984375
50.35400390625
38.4521484375
36.62109375
35.70556640625
32.958984375
41.19873046875
34.7900390625
34.7900390625
33.87451171875
35.70556640625
35.70556640625
28.38134765625
25.634765625
28.38134765625
34.7900390625
28.38134765625
24.71923828125
23.8037109375
31.1279296875
21.97265625
20.1416015625
12.8173828125
12.8173828125
14.6484375
26.55029296875
17.39501953125
17.39501953125
16.4794921875
21.05712890625
11.90185546875
13.73291015625
6.40869140625
3.662109375
3.662109375
6.40869140625
14.6484375
6.40869140625
3.662109375
10.07080078125
1.8310546875
0
0.91552734375
-0.91552734375
-7.32421875
-3.662109375
0.91552734375
7.32421875
-0.91552734375
-1.8310546875
-2.74658203125
-6.40869140625
-0.91552734375
4.57763671875
-4.57763671875
-6.40869140625
-0.91552734375
-5.4931640625
-11.90185546875
-10.07080078125
-7.32421875
-8.23974609375
-10.986328125
-6.40869140625
-6.40869140625
-3.662109375
-0.91552734375
-10.07080078125
-5.4931640625
-10.07080078125
-10.986328125
-7.32421875
-7.32421875
-10.07080078125
-10.07080078125
-10.986328125
-11.90185546875
-10.986328125
-10.986328125
-10.986328125
-6.40869140625
-10.986328125
-13.73291015625
-16.4794921875
-10.986328125
-5.4931640625
-18.310546875
-20.1416015625
-16.4794921875
-20.1416015625
-21.05712890625
-21.97265625
-12.8173828125
-12.8173828125
-15.56396484375
-13.73291015625
-20.1416015625
-13.73291015625
-14.6484375
-22.88818359375
-14.6484375
-17.39501953125
-21.05712890625
-19.22607421875
-18.310546875
-18.310546875
-18.310546875
-19.22607421875
-13.73291015625
-21.05712890625
-21.05712890625
-17.39501953125
-21.05712890625
-19.22607421875
-22.88818359375
-20.1416015625
-24.71923828125
-32.04345703125
-25.634765625
-15.56396484375
-28.38134765625
-18.310546875
-20.1416015625
-24.71923828125
-16.4794921875
-21.05712890625
-24.71923828125
-17.39501953125
-20.1416015625
-18.310546875
-20.1416015625
-12.8173828125
-6.40869140625
-3.662109375
-10.986328125
-10.07080078125
-7.32421875
1.8310546875
7.32421875
21.97265625
23.8037109375
33.87451171875
30.21240234375
32.958984375
21.97265625
17.39501953125
15.56396484375
19.22607421875
21.97265625
19.22607421875
26.55029296875
16.4794921875
12.8173828125
22.88818359375
32.958984375
23.8037109375
20.1416015625
14.6484375
12.8173828125
21.97265625
24.71923828125
15.56396484375
10.07080078125
8.23974609375
3.662109375
2.74658203125
0.91552734375
0
-2.74658203125
-10.07080078125
-11.90185546875
-10.986328125
-13.73291015625
-19.22607421875
-13.73291015625
-16.4794921875
-25.634765625
-28.38134765625
-38.4521484375
-50.35400390625
-41.19873046875
-42.1142578125
-35.70556640625
-44.86083984375
-42.1142578125
-40.283203125
-47.607421875
-44.86083984375
-43.9453125
-45.7763671875
-40.283203125
-47.607421875
-37.53662109375
-32.958984375
-33.87451171875
-37.53662109375
-27.4658203125
-23.8037109375
-35.70556640625
-33.87451171875
-43.02978515625
-64.0869140625
-85.14404296875
-76.904296875
-52.18505859375
-9.1552734375
85.14404296875
212.40234375
349.7314453125
466.00341796875
620.7275390625
788.26904296875
964.9658203125
1118.7744140625
1256.103515625
1354.98046875
1381.53076171875
1344.90966796875
1241.455078125
1044.61669921875
816.650390625
665.58837890625
567.626953125
469.66552734375
383.60595703125
332.33642578125
273.74267578125
231.62841796875
196.83837890625
177.6123046875
158.38623046875
125.42724609375
107.11669921875
97.0458984375
104.3701171875
130.0048828125
122.6806640625
119.93408203125
120.849609375
103.45458984375
91.552734375
83.31298828125
75.98876953125
69.580078125
61.34033203125
65.91796875
64.0869140625
62.255859375
54.931640625
60.4248046875
57.67822265625
58.59375
58.59375
57.67822265625
56.7626953125
64.0869140625
62.255859375
54.01611328125
59.50927734375
60.4248046875
65.00244140625
73.2421875
63.17138671875
67.7490234375
71.4111328125
75.0732421875
75.98876953125
81.48193359375
83.31298828125
86.97509765625
78.7353515625
84.228515625
96.13037109375
90.63720703125
85.14404296875
96.13037109375
98.876953125
102.5390625
108.0322265625
111.6943359375
113.525390625
110.77880859375
118.10302734375
117.1875
126.3427734375
128.173828125
129.08935546875
138.24462890625
135.498046875
135.498046875
140.9912109375
151.06201171875
148.3154296875
151.9775390625
150.146484375
161.1328125
169.37255859375
172.119140625
171.20361328125
174.86572265625
193.17626953125
184.02099609375
184.9365234375
191.34521484375
200.50048828125
201.416015625
211.48681640625
213.31787109375
216.97998046875
223.388671875
227.96630859375
232.5439453125
238.95263671875
243.5302734375
250.8544921875
260.92529296875
263.671875
270.99609375
281.06689453125
291.1376953125
289.306640625
295.71533203125
303.03955078125
318.603515625
329.58984375
335.0830078125
346.98486328125
352.47802734375
351.5625
360.7177734375
378.11279296875
378.11279296875
387.26806640625
401.0009765625
411.9873046875
415.6494140625
425.72021484375
438.53759765625
445.86181640625
437.6220703125
454.1015625
457.763671875
463.2568359375
465.087890625
465.087890625
469.66552734375
463.2568359375
453.18603515625
450.439453125
440.36865234375
422.9736328125
414.73388671875
395.5078125
384.521484375
364.3798828125
344.23828125
333.251953125
314.02587890625
288.39111328125
258.1787109375
239.8681640625
220.64208984375
195.00732421875
178.52783203125
162.9638671875
149.23095703125
119.93408203125
96.13037109375
89.7216796875
75.0732421875
67.7490234375
52.18505859375
39.36767578125
32.958984375
22.88818359375
10.986328125
7.32421875
-1.8310546875
-3.662109375
-18.310546875
-25.634765625
-17.39501953125
-22.88818359375
-34.7900390625
-31.1279296875
-32.04345703125
-32.958984375
-31.1279296875
-36.62109375
-45.7763671875
-50.35400390625
-49.4384765625
-41.19873046875
-34.7900390625
-43.02978515625
-44.86083984375
-40.283203125
-41.19873046875
-40.283203125
-42.1142578125
-45.7763671875
-37.53662109375
-46.69189453125
-46.69189453125
-42.1142578125
-43.9453125
-44.86083984375
-40.283203125
-47.607421875
-52.18505859375
-49.4384765625
-44.86083984375
-43.02978515625
-39.36767578125
-45.7763671875
-49.4384765625
-44.86083984375
-48.52294921875
-45.7763671875
-42.1142578125
-47.607421875
-48.52294921875
-46.69189453125
-50.35400390625
-47.607421875
-52.18505859375
-54.01611328125
-62.255859375
-58.59375
-61.34033203125
-54.01611328125
-52.18505859375
-61.34033203125
-63.17138671875
-60.4248046875
-47.607421875
-46.69189453125
-51.26953125
-54.931640625
-63.17138671875
-70.49560546875
-64.0869140625
-63.17138671875
-68.66455078125
-65.91796875
-75.98876953125
-75.98876953125
-75.98876953125
-79.65087890625
-83.31298828125
-81.48193359375
-72.32666015625
-80.56640625
-82.3974609375
-84.228515625
-86.97509765625
-74.15771484375
-90.63720703125
-90.63720703125
-91.552734375
-86.0595703125
-85.14404296875
-85.14404296875
-90.63720703125
-92.46826171875
-89.7216796875
-96.13037109375
-97.96142578125
-93.3837890625
-96.13037109375
-97.96142578125
-101.62353515625
-93.3837890625
-106.201171875
-105.28564453125
-102.5390625
-104.3701171875
-103.45458984375
-108.94775390625
-101.62353515625
-100.7080078125
-111.6943359375
-109.86328125
-109.86328125
-106.201171875
-104.3701171875
-109.86328125
-113.525390625
-105.28564453125
-109.86328125
-108.0322265625
-106.201171875
-107.11669921875
-115.3564453125
-115.3564453125
-110.77880859375
-108.0322265625
-112.60986328125
-119.93408203125
-117.1875
-112.60986328125
-115.3564453125
-116.27197265625
-113.525390625
-117.1875
-114.44091796875
-117.1875
-114.44091796875
-119.0185546875
-123.59619140625
-113.525390625
-119.93408203125
-127.25830078125
-123.59619140625
-125.42724609375
-117.1875
-118.10302734375
-116.27197265625
-125.42724609375
-122.6806640625
-123.59619140625
-115.3564453125
-116.27197265625
-119.0185546875
-119.93408203125
-119.93408203125
-124.51171875
-130.0048828125
-121.76513671875
-123.59619140625
-120.849609375
-116.27197265625
-125.42724609375
-122.6806640625
-126.3427734375
-122.6806640625
-124.51171875
-120.849609375
-124.51171875
-124.51171875
-122.6806640625
-124.51171875
-127.25830078125
-116.27197265625
-123.59619140625
-127.25830078125
-124.51171875
-126.3427734375
-123.59619140625
-119.0185546875
-124.51171875
-134.58251953125
-124.51171875
-125.42724609375
-121.76513671875
-121.76513671875
-126.3427734375
-127.25830078125
-131.8359375
-124.51171875
-127.25830078125
-125.42724609375
-125.42724609375
-125.42724609375
-128.173828125
-125.42724609375
-127.25830078125
-123.59619140625
-125.42724609375
-125.42724609375
-132.75146484375
-133.6669921875
-129.08935546875
-131.8359375
-139.16015625
-130.0048828125
-129.08935546875
-127.25830078125
-124.51171875
-130.0048828125
-130.92041015625
-133.6669921875
-133.6669921875
-132.75146484375
-133.6669921875
-131.8359375
-132.75146484375
-129.08935546875
-118.10302734375
-133.6669921875
-129.08935546875
-129.08935546875
-134.58251953125
-129.08935546875
-125.42724609375
-121.76513671875
-132.75146484375
-135.498046875
-122.6806640625
-127.25830078125
-130.0048828125
-139.16015625
-132.75146484375
-129.08935546875
-130.0048828125
-130.0048828125
-127.25830078125
-132.75146484375
-128.173828125
-127.25830078125
-128.173828125
-125.42724609375
-126.3427734375
-117.1875
-121.76513671875
-113.525390625
-106.201171875
-99.79248046875
-97.96142578125
-97.0458984375
-86.97509765625
-91.552734375
-89.7216796875
-86.97509765625
-95.21484375
-92.46826171875
-89.7216796875
-91.552734375
-88.80615234375
-96.13037109375
-96.13037109375
-98.876953125
-95.21484375
-87.890625
-82.3974609375
-86.97509765625
-103.45458984375
-103.45458984375
-96.13037109375
-86.97509765625
-87.890625
-86.97509765625
-105.28564453125
-102.5390625
-104.3701171875
-110.77880859375
-111.6943359375
-109.86328125
-115.3564453125
-121.76513671875
-120.849609375
-127.25830078125
-131.8359375
-125.42724609375
-120.849609375
-130.0048828125
-133.6669921875
-140.9912109375
-151.06201171875
-147.39990234375
-154.72412109375
-160.21728515625
-162.9638671875
-158.38623046875
-153.80859375
-151.06201171875
-150.146484375
-148.3154296875
-151.9775390625
-159.3017578125
-153.80859375
-152.89306640625
-153.80859375
-139.16015625
-144.6533203125
-144.6533203125
-143.73779296875
-133.6669921875
-132.75146484375
-134.58251953125
-148.3154296875
-166.6259765625
-188.5986328125
-202.33154296875
-173.9501953125
-133.6669921875
-55.84716796875
65.00244140625
200.50048828125
320.4345703125
466.9189453125
631.7138671875
807.4951171875
970.458984375
1094.970703125
1214.90478515625
1268.9208984375
1257.9345703125
1178.28369140625
992.431640625
771.78955078125
602.4169921875
504.45556640625
392.76123046875
303.03955078125
239.8681640625
185.85205078125
141.90673828125
97.0458984375
80.56640625
65.91796875
39.36767578125
13.73291015625
-14.6484375
-10.986328125
10.07080078125
24.71923828125
24.71923828125
13.73291015625
6.40869140625
-8.23974609375
-19.22607421875
-36.62109375
-38.4521484375
-43.02978515625
-43.02978515625
-49.4384765625
-48.52294921875
-48.52294921875
-49.4384765625
-47.607421875
-49.4384765625
-46.69189453125
-47.607421875
-53.1005859375
-47.607421875
-47.607421875
-50.35400390625
-51.26953125
-45.7763671875
-45.7763671875
-49.4384765625
-43.9453125
-42.1142578125
-43.9453125
-37.53662109375
-36.62109375
-30.21240234375
-32.04345703125
-23.8037109375
-23.8037109375
-24.71923828125
-24.71923828125
-19.22607421875
-18.310546875
-10.986328125
-19.22607421875
-12.8173828125
-15.56396484375
-11.90185546875
-5.4931640625
3.662109375
10.07080078125
10.07080078125
18.310546875
18.310546875
26.55029296875
29.296875
32.958984375
24.71923828125
32.958984375
35.70556640625
41.19873046875
43.02978515625
47.607421875
54.931640625
55.84716796875
63.17138671875
64.0869140625
74.15771484375
67.7490234375
67.7490234375
75.98876953125
75.98876953125
89.7216796875
90.63720703125
98.876953125
104.3701171875
109.86328125
110.77880859375
112.60986328125
123.59619140625
133.6669921875
144.6533203125
134.58251953125
139.16015625
149.23095703125
163.87939453125
173.03466796875
178.52783203125
180.35888671875
192.2607421875
195.00732421875
204.16259765625
216.064453125
230.712890625
227.05078125
238.037109375
252.685546875
256.34765625
261.8408203125
270.08056640625
278.3203125
291.1376953125
298.4619140625
311.279296875
318.603515625
329.58984375
336.9140625
342.4072265625
342.4072265625
356.14013671875
368.0419921875
357.0556640625
361.63330078125
374.45068359375
372.61962890625
359.80224609375
350.64697265625
349.7314453125
346.0693359375
332.33642578125
327.7587890625
309.4482421875
293.88427734375
270.99609375
256.34765625
234.375
213.31787109375
197.75390625
184.02099609375
158.38623046875
130.0048828125
105.28564453125
91.552734375
66.83349609375
51.26953125
37.53662109375
16.4794921875
-2.74658203125
-20.1416015625
-37.53662109375
-44.86083984375
-54.01611328125
-60.4248046875
-72.32666015625
-77.81982421875
-90.63720703125
-93.3837890625
-104.3701171875
-109.86328125
-119.0185546875
-120.849609375
-123.59619140625
-128.173828125
-126.3427734375
-130.0048828125
-138.24462890625
-132.75146484375
-124.51171875
-134.58251953125
-143.73779296875
-135.498046875
-140.9912109375
-140.07568359375
-139.16015625
-137.3291015625
-144.6533203125
-138.24462890625
-142.822265625
-147.39990234375
-139.16015625
-134.58251953125
-140.07568359375
-140.07568359375
-137.3291015625
-127.25830078125
-148.3154296875
-139.16015625
-136.41357421875
-136.41357421875
-135.498046875
-134.58251953125
-136.41357421875
-135.498046875
-138.24462890625
-140.9912109375
-139.16015625
-133.6669921875
-140.9912109375
-136.41357421875
-136.41357421875
-142.822265625
-143.73779296875
-140.07568359375
-140.07568359375
-140.9912109375
-133.6669921875
-139.16015625
-141.90673828125
-147.39990234375
-145.56884765625
-147.39990234375
-147.39990234375
-150.146484375
-144.6533203125
-148.3154296875
-153.80859375
-160.21728515625
-152.89306640625
-151.9775390625
-158.38623046875
-159.3017578125
-154.72412109375
-154.72412109375
-157.470703125
-160.21728515625
-156.55517578125
-154.72412109375
-162.9638671875
-170.2880859375
-166.6259765625
-166.6259765625
-164.794921875
-167.54150390625
-171.20361328125
-171.20361328125
-177.6123046875
-170.2880859375
-176.69677734375
-174.86572265625
-175.78125
-176.69677734375
-180.35888671875
-176.69677734375
-169.37255859375
-175.78125
-179.443359375
-184.02099609375
-173.9501953125
-177.6123046875
-179.443359375
-176.69677734375
-183.10546875
-180.35888671875
-183.10546875
-178.52783203125
-183.10546875
-185.85205078125
-185.85205078125
-184.02099609375
-184.02099609375
-175.78125
-181.2744140625
-186.767578125
-186.767578125
-190.4296875
-195.00732421875
-182.18994140625
-193.17626953125
-188.5986328125
-186.767578125
-185.85205078125
-189.51416015625
-184.9365234375
-187.68310546875
-183.10546875
-184.9365234375
-195.9228515625
-195.9228515625
-200.50048828125
-188.5986328125
-195.00732421875
-197.75390625
-195.9228515625
-194.091796875
-185.85205078125
-187.68310546875
-192.2607421875
-195.00732421875
-195.9228515625
-195.00732421875
-196.83837890625
-196.83837890625
-196.83837890625
-198.66943359375
-193.17626953125
-190.4296875
-195.00732421875
-194.091796875
-201.416015625
-196.83837890625
-191.34521484375
-205.99365234375
-199.5849609375
-196.83837890625
-197.75390625
-199.5849609375
-201.416015625
-190.4296875
-200.50048828125
-202.33154296875
-200.50048828125
-200.50048828125
-203.2470703125
-202.33154296875
-209.65576171875
-212.40234375
-211.48681640625
-201.416015625
-209.65576171875
-208.740234375
-205.078125
-209.65576171875
-201.416015625
-193.17626953125
-212.40234375
-209.65576171875
-217.8955078125
-212.40234375
-209.65576171875
-212.40234375
-209.65576171875
-199.5849609375
-199.5849609375
-209.65576171875
-209.65576171875
-208.740234375
-206.9091796875
-201.416015625
-207.82470703125
-212.40234375
-205.99365234375
-207.82470703125
-222.47314453125
-213.31787109375
-221.5576171875
-219.7265625
-212.40234375
-212.40234375
-212.40234375
-202.33154296875
-205.99365234375
-218.81103515625
-219.7265625
-205.078125
-213.31787109375
-216.064453125
-211.48681640625
-211.48681640625
-212.40234375
-215.14892578125
-216.064453125
-218.81103515625
-220.64208984375
-217.8955078125
-214.2333984375
-217.8955078125
-211.48681640625
-216.064453125
-216.97998046875
-222.47314453125
-216.97998046875
-212.40234375
-217.8955078125
-210.5712890625
-215.14892578125
-215.14892578125
-216.064453125
-225.2197265625
-232.5439453125
-226.13525390625
-216.97998046875
-215.14892578125
-214.2333984375
-216.064453125
-220.64208984375
-216.064453125
-219.7265625
-216.064453125
-220.64208984375
-216.97998046875
-217.8955078125
-216.97998046875
-210.5712890625
-219.7265625
-227.05078125
-213.31787109375
-210.5712890625
-210.5712890625
-216.064453125
-219.7265625
-214.2333984375
-217.8955078125
-213.31787109375
-216.97998046875
-217.8955078125
-210.5712890625
-205.078125
-214.2333984375
-216.97998046875
-217.8955078125
-221.5576171875
-221.5576171875
-216.97998046875
-206.9091796875
-208.740234375
-214.2333984375
-211.48681640625
-205.99365234375
-205.078125
-204.16259765625
-197.75390625
-201.416015625
-200.50048828125
-205.078125
-199.5849609375
-194.091796875
-186.767578125
-182.18994140625
-175.78125
-169.37255859375
-178.52783203125
-173.9501953125
-180.35888671875
-183.10546875
-184.9365234375
-184.9365234375
-195.00732421875
-194.091796875
-185.85205078125
-178.52783203125
-191.34521484375
-185.85205078125
-175.78125
-169.37255859375
-165.71044921875
-172.119140625
-177.6123046875
-178.52783203125
-172.119140625
-166.6259765625
-162.04833984375
-177.6123046875
-187.68310546875
-184.9365234375
-186.767578125
-192.2607421875
-194.091796875
-191.34521484375
-193.17626953125
-193.17626953125
-195.00732421875
-202.33154296875
-210.5712890625
-195.9228515625
-200.50048828125
-208.740234375
-216.97998046875
-227.05078125
-225.2197265625
-224.30419921875
-223.388671875
-228.8818359375
-228.8818359375
-227.96630859375
-227.96630859375
-232.5439453125
-223.388671875
-227.05078125
-218.81103515625
-219.7265625
-209.65576171875
-218.81103515625
-215.14892578125
-219.7265625
-228.8818359375
-212.40234375
-210.5712890625
-201.416015625
-208.740234375
-216.064453125
-228.8818359375
-241.69921875
-258.1787109375
-253.60107421875
-239.8681640625
-196.83837890625
-96.13037109375
25.634765625
159.3017578125
281.982421875
439.453125
605.16357421875
779.11376953125
931.09130859375
1059.26513671875
1158.14208984375
1200.25634765625
1165.46630859375
1070.25146484375
870.66650390625
654.60205078125
513.61083984375
417.48046875
310.36376953125
217.8955078125
162.9638671875
101.62353515625
59.50927734375
23.8037109375
21.05712890625
-7.32421875
-41.19873046875
-59.50927734375
-72.32666015625
-65.91796875
-46.69189453125
-48.52294921875
-43.9453125
-54.01611328125
-67.7490234375
-81.48193359375
-94.29931640625
-102.5390625
-107.11669921875
-108.94775390625
-101.62353515625
-109.86328125
-110.77880859375
-115.3564453125
-115.3564453125
-103.45458984375
-116.27197265625
-125.42724609375
-119.0185546875
-120.849609375
-105.28564453125
-109.86328125
-115.3564453125
-105.28564453125
-109.86328125
-106.201171875
-106.201171875
-101.62353515625
-99.79248046875
-97.96142578125
-97.0458984375
-95.21484375
-94.29931640625
-83.31298828125
-86.0595703125
-86.0595703125
-86.97509765625
-86.0595703125
-78.7353515625
-77.81982421875
-75.0732421875
-72.32666015625
-69.580078125
-63.17138671875
-50.35400390625
-75.98876953125
-60.4248046875
-54.01611328125
-44.86083984375
-46.69189453125
-43.02978515625
-40.283203125
-34.7900390625
-31.1279296875
-28.38134765625
-28.38134765625
-26.55029296875
-18.310546875
-13.73291015625
-9.1552734375
-4.57763671875
3.662109375
-3.662109375
-2.74658203125
9.1552734375
15.56396484375
10.986328125
16.4794921875
26.55029296875
32.04345703125
46.69189453125
41.19873046875
47.607421875
54.01611328125
55.84716796875
61.34033203125
69.580078125
78.7353515625
78.7353515625
88.80615234375
88.80615234375
100.7080078125
115.3564453125
117.1875
117.1875
129.08935546875
137.3291015625
146.484375
155.6396484375
178.52783203125
176.69677734375
178.52783203125
191.34521484375
202.33154296875
208.740234375
216.064453125
225.2197265625
224.30419921875
229.79736328125
249.93896484375
261.8408203125
266.41845703125
270.08056640625
283.8134765625
292.05322265625
303.03955078125
309.4482421875
306.70166015625
313.1103515625
321.35009765625
314.94140625
315.85693359375
312.19482421875
310.36376953125
305.7861328125
296.630859375
283.8134765625
267.333984375
250.8544921875
231.62841796875
217.8955078125
208.740234375
185.85205078125
157.470703125
136.41357421875
122.6806640625
102.5390625
74.15771484375
53.1005859375
30.21240234375
10.07080078125
-4.57763671875
-25.634765625
-38.4521484375
-51.26953125
-74.15771484375
-88.80615234375
-97.96142578125
-119.93408203125
-126.3427734375
-140.07568359375
-143.73779296875
-155.6396484375
-160.21728515625
-161.1328125
-167.54150390625
-175.78125
-175.78125
-181.2744140625
-193.17626953125
-203.2470703125
-195.9228515625
-200.50048828125
-205.078125
-202.33154296875
-201.416015625
-208.740234375
-205.99365234375
-203.2470703125
-203.2470703125
-205.078125
-207.82470703125
-197.75390625
-195.9228515625
-192.2607421875
-202.33154296875
-201.416015625
-204.16259765625
-201.416015625
-199.5849609375
-200.50048828125
-203.2470703125
-206.9091796875
-201.416015625
-203.2470703125
-204.16259765625
-200.50048828125
-197.75390625
-201.416015625
-207.82470703125
-201.416015625
-204.16259765625
-207.82470703125
-205.99365234375
-206.9091796875
-203.2470703125
-206.9091796875
-211.48681640625
-205.99365234375
-200.50048828125
-204.16259765625
-200.50048828125
-211.48681640625
-207.82470703125
-201.416015625
-205.078125
-212.40234375
-205.99365234375
-216.97998046875
-212.40234375
-209.65576171875
-216.064453125
-210.5712890625
-214.2333984375
-211.48681640625
-215.14892578125
-217.8955078125
-217.8955078125
-209.65576171875
-216.97998046875
-220.64208984375
-219.7265625
-222.47314453125
-223.388671875
-221.5576171875
-224.30419921875
-230.712890625
-217.8955078125
-227.96630859375
-231.62841796875
-226.13525390625
-229.79736328125
-233.45947265625
-234.375
-228.8818359375
-229.79736328125
-241.69921875
-237.12158203125
-234.375
-233.45947265625
-240.78369140625
-236.2060546875
-238.037109375
-236.2060546875
-238.037109375
-238.95263671875
-238.95263671875
-243.5302734375
-238.037109375
-230.712890625
-243.5302734375
-249.0234375
-244.44580078125
-248.10791015625
-247.1923828125
-245.361328125
-245.361328125
-247.1923828125
-243.5302734375
-241.69921875
-247.1923828125
-243.5302734375
-244.44580078125
-248.10791015625
-245.361328125
-254.5166015625
-253.60107421875
-248.10791015625
-238.95263671875
-250.8544921875
-252.685546875
-254.5166015625
-250.8544921875
-254.5166015625
-253.60107421875
-254.5166015625
-250.8544921875
-249.93896484375
-255.43212890625
-252.685546875
-251.77001953125
-250.8544921875
-256.34765625
-259.09423828125
-255.43212890625
-253.60107421875
-255.43212890625
-257.26318359375
-251.77001953125
-259.09423828125
-260.009765625
-255.43212890625
-253.60107421875
-252.685546875
-249.0234375
-258.1787109375
-261.8408203125
-247.1923828125
-254.5166015625
-260.009765625
-261.8408203125
-261.8408203125
-258.1787109375
-259.09423828125
-261.8408203125
-254.5166015625
-255.43212890625
-258.1787109375
-261.8408203125
-253.60107421875
-253.60107421875
-257.26318359375
-249.0234375
-264.58740234375
-267.333984375
-260.92529296875
-245.361328125
-261.8408203125
-258.1787109375
-254.5166015625
-254.5166015625
-266.41845703125
-264.58740234375
-255.43212890625
-256.34765625
-257.26318359375
-254.5166015625
-260.009765625
-261.8408203125
-262.75634765625
-263.671875
-262.75634765625
-261.8408203125
-255.43212890625
-258.1787109375
-261.8408203125
-260.009765625
-260.92529296875
-259.09423828125
-260.009765625
-262.75634765625
-265.5029296875
-261.8408203125
-264.58740234375
-255.43212890625
-260.92529296875
-270.08056640625
-266.41845703125
-257.26318359375
-262.75634765625
-266.41845703125
-260.92529296875
-266.41845703125
-261.8408203125
-266.41845703125
-271.91162109375
-266.41845703125
-258.1787109375
-260.009765625
-260.009765625
-254.5166015625
-253.60107421875
-265.5029296875
-260.009765625
-260.92529296875
-261.8408203125
-259.09423828125
-263.671875
-263.671875
-253.60107421875
-264.58740234375
-264.58740234375
-268.24951171875
-264.58740234375
-260.009765625
-261.8408203125
-265.5029296875
-259.09423828125
-254.5166015625
-269.1650390625
-267.333984375
-259.09423828125
-254.5166015625
-263.671875
-258.1787109375
-262.75634765625
-253.60107421875
-259.09423828125
-261.8408203125
-257.26318359375
-257.26318359375
-260.92529296875
-256.34765625
-261.8408203125
-257.26318359375
-265.5029296875
-255.43212890625
-265.5029296875
-264.58740234375
-261.8408203125
-263.671875
-260.92529296875
-254.5166015625
-261.8408203125
-263.671875
-263.671875
-260.009765625
-260.009765625
-253.60107421875
-255.43212890625
-255.43212890625
-250.8544921875
-248.10791015625
-249.93896484375
-247.1923828125
-249.0234375
-239.8681640625
-238.037109375
-237.12158203125
-234.375
-218.81103515625
-215.14892578125
-212.40234375
-211.48681640625
-219.7265625
-209.65576171875
-214.2333984375
-220.64208984375
-222.47314453125
-224.30419921875
-231.62841796875
-234.375
-238.037109375
-225.2197265625
-221.5576171875
-226.13525390625
-225.2197265625
-214.2333984375
-210.5712890625
-210.5712890625
-217.8955078125
-220.64208984375
-204.16259765625
-205.078125
-207.82470703125
-212.40234375
-216.97998046875
-211.48681640625
-230.712890625
-221.5576171875
-220.64208984375
-223.388671875
-231.62841796875
-232.5439453125
-231.62841796875
-238.95263671875
-240.78369140625
-240.78369140625
-237.12158203125
-238.037109375
-248.10791015625
-257.26318359375
-260.92529296875
-263.671875
-267.333984375
-262.75634765625
-262.75634765625
-266.41845703125
-266.41845703125
-270.08056640625
-267.333984375
-257.26318359375
-262.75634765625
-259.09423828125
-250.8544921875
-257.26318359375
-259.09423828125
-258.1787109375
-256.34765625
-256.34765625
-248.10791015625
-252.685546875
-245.361328125
-242.61474609375
-253.60107421875
-271.91162109375
-290.22216796875
-297.54638671875
-272.8271484375
-231.62841796875
-147.39990234375
-32.04345703125
103.45458984375
224.30419921875
374.45068359375
532.8369140625
710.44921875
876.15966796875
1006.16455078125
1118.7744140625
1173.7060546875
1154.47998046875
1065.673828125
879.82177734375
657.3486328125
493.46923828125
385.43701171875
281.06689453125
189.51416015625
130.92041015625
78.7353515625
32.04345703125
-7.32421875
-32.958984375
-42.1142578125
-70.49560546875
-83.31298828125
-99.79248046875
-98.876953125
-81.48193359375
-74.15771484375
-79.65087890625
-75.98876953125
-97.96142578125
-102.5390625
-112.60986328125
-121.76513671875
-131.8359375
-130.0048828125
-124.51171875
-134.58251953125
-135.498046875
-141.90673828125
-140.9912109375
-141.90673828125
-137.3291015625
-146.484375
-142.822265625
-134.58251953125
-143.73779296875
-142.822265625
-142.822265625
-138.24462890625
-130.0048828125
-130.0048828125
-131.8359375
-127.25830078125
-136.41357421875
-130.0048828125
-121.76513671875
-123.59619140625
-119.0185546875
-117.1875
-114.44091796875
-115.3564453125
-110.77880859375
-99.79248046875
-88.80615234375
-94.29931640625
-99.79248046875
-88.80615234375
-90.63720703125
-86.0595703125
-81.48193359375
-73.2421875
-74.15771484375
-73.2421875
-69.580078125
-66.83349609375
-58.59375
-52.18505859375
-54.931640625
-44.86083984375
-41.19873046875
-41.19873046875
-42.1142578125
-35.70556640625
-32.04345703125
-26.55029296875
-20.1416015625
-30.21240234375
-21.05712890625
-11.90185546875
-4.57763671875
0
-0.91552734375
10.07080078125
20.1416015625
