ECG
-51.26953125
-61.34033203125
-56.7626953125
-54.931640625
-71.4111328125
-79.65087890625
-75.0732421875
-72.32666015625
-68.66455078125
-61.34033203125
-50.35400390625
-50.35400390625
-54.01611328125
-57.67822265625
-58.59375
-51.26953125
-53.1005859375
-55.84716796875
-62.255859375
-64.0869140625
-56.7626953125
-54.931640625
-55.84716796875
-58.59375
-58.59375
-62.255859375
-65.91796875
-69.580078125
-67.7490234375
-67.7490234375
-67.7490234375
-61.34033203125
-55.84716796875
-45.7763671875
-33.87451171875
-21.05712890625
-13.73291015625
-16.4794921875
-19.22607421875
-21.97265625
-20.1416015625
-10.986328125
-8.23974609375
-10.07080078125
0
20.1416015625
24.71923828125
19.22607421875
21.05712890625
9.1552734375
3.662109375
-5.4931640625
-5.4931640625
-2.74658203125
0
-1.8310546875
0.91552734375
5.4931640625
-10.986328125
-23.8037109375
-30.21240234375
-29.296875
-40.283203125
-42.1142578125
-41.19873046875
-51.26953125
-67.7490234375
-65.91796875
-62.255859375
-70.49560546875
-70.49560546875
-73.2421875
-73.2421875
-69.580078125
-87.890625
-105.28564453125
-86.97509765625
-65.91796875
-56.7626953125
-60.4248046875
-59.50927734375
-54.931640625
-56.7626953125
-60.4248046875
-68.66455078125
-79.65087890625
-85.14404296875
-79.65087890625
-75.0732421875
-76.904296875
-76.904296875
-75.0732421875
-74.15771484375
-70.49560546875
-68.66455078125
-69.580078125
-67.7490234375
-72.32666015625
-61.34033203125
-66.83349609375
-74.15771484375
-74.15771484375
-73.2421875
-85.14404296875
-103.45458984375
-110.77880859375
-113.525390625
-117.1875
-99.79248046875
-51.26953125
7.32421875
86.0595703125
193.17626953125
297.54638671875
420.22705078125
543.8232421875
655.517578125
768.12744140625
882.568359375
999.755859375
1126.0986328125
1191.10107421875
1189.27001953125
1111.4501953125
890.80810546875
566.71142578125
302.1240234375
63.17138671875
-49.4384765625
-58.59375
-43.02978515625
-31.1279296875
-14.6484375
10.07080078125
29.296875
33.87451171875
39.36767578125
21.97265625
10.07080078125
3.662109375
-5.4931640625
-7.32421875
-13.73291015625
-14.6484375
-16.4794921875
-29.296875
-32.958984375
-38.4521484375
-32.958984375
-29.296875
-31.1279296875
-26.55029296875
-21.05712890625
-18.310546875
-34.7900390625
-50.35400390625
-36.62109375
-33.87451171875
-33.87451171875
-31.1279296875
-31.1279296875
-26.55029296875
-36.62109375
-32.04345703125
-39.36767578125
-41.19873046875
-29.296875
-33.87451171875
-32.04345703125
-34.7900390625
-33.87451171875
-33.87451171875
-26.55029296875
-31.1279296875
-26.55029296875
-25.634765625
-24.71923828125
-20.1416015625
-15.56396484375
-22.88818359375
-23.8037109375
-21.05712890625
-15.56396484375
-6.40869140625
-12.8173828125
-8.23974609375
-8.23974609375
-17.39501953125
-21.97265625
-17.39501953125
-19.22607421875
-21.97265625
-20.1416015625
-10.07080078125
-7.32421875
3.662109375
9.1552734375
1.8310546875
-0.91552734375
-5.4931640625
-6.40869140625
-4.57763671875
4.57763671875
3.662109375
0.91552734375
0.91552734375
-2.74658203125
0
8.23974609375
11.90185546875
10.986328125
20.1416015625
19.22607421875
24.71923828125
13.73291015625
4.57763671875
19.22607421875
33.87451171875
35.70556640625
35.70556640625
32.958984375
35.70556640625
49.4384765625
47.607421875
42.1142578125
50.35400390625
52.18505859375
69.580078125
73.2421875
73.2421875
63.17138671875
64.0869140625
66.83349609375
75.98876953125
88.80615234375
87.890625
94.29931640625
93.3837890625
99.79248046875
97.96142578125
99.79248046875
104.3701171875
108.94775390625
106.201171875
115.3564453125
117.1875
123.59619140625
124.51171875
119.93408203125
118.10302734375
126.3427734375
126.3427734375
138.24462890625
137.3291015625
135.498046875
127.25830078125
121.76513671875
122.6806640625
108.0322265625
101.62353515625
108.94775390625
109.86328125
97.96142578125
86.97509765625
80.56640625
66.83349609375
60.4248046875
52.18505859375
49.4384765625
43.02978515625
41.19873046875
30.21240234375
16.4794921875
15.56396484375
15.56396484375
10.07080078125
-1.8310546875
-6.40869140625
-6.40869140625
-13.73291015625
-21.05712890625
-18.310546875
-17.39501953125
-27.4658203125
-27.4658203125
-28.38134765625
-28.38134765625
-32.958984375
-36.62109375
-39.36767578125
-36.62109375
-36.62109375
-38.4521484375
-36.62109375
-36.62109375
-35.70556640625
-33.87451171875
-29.296875
-31.1279296875
-34.7900390625
-43.02978515625
-43.9453125
-51.26953125
-47.607421875
-49.4384765625
-43.02978515625
-45.7763671875
-41.19873046875
-42.1142578125
-42.1142578125
-55.84716796875
-51.26953125
-38.4521484375
-43.9453125
-42.1142578125
-45.7763671875
-40.283203125
-34.7900390625
-28.38134765625
-22.88818359375
-27.4658203125
-30.21240234375
-35.70556640625
-43.02978515625
-43.02978515625
-38.4521484375
-37.53662109375
-40.283203125
-33.87451171875
-30.21240234375
-28.38134765625
-22.88818359375
-18.310546875
-19.22607421875
-23.8037109375
-23.8037109375
-22.88818359375
-23.8037109375
-25.634765625
-32.04345703125
-36.62109375
-36.62109375
-32.958984375
-32.958984375
-33.87451171875
-32.04345703125
-33.87451171875
-40.283203125
-43.9453125
-37.53662109375
-27.4658203125
-36.62109375
-50.35400390625
-54.01611328125
-54.01611328125
-49.4384765625
-43.9453125
-35.70556640625
-30.21240234375
-41.19873046875
-49.4384765625
-46.69189453125
-37.53662109375
-25.634765625
-27.4658203125
-40.283203125
-47.607421875
-43.02978515625
-49.4384765625
-42.1142578125
-40.283203125
-43.02978515625
-41.19873046875
-32.958984375
-41.19873046875
-48.52294921875
-54.01611328125
-57.67822265625
-48.52294921875
-49.4384765625
-56.7626953125
-54.931640625
-50.35400390625
-55.84716796875
-57.67822265625
-52.18505859375
-54.01611328125
-54.01611328125
-54.01611328125
-58.59375
-58.59375
-57.67822265625
-62.255859375
-62.255859375
-65.00244140625
-68.66455078125
-65.00244140625
-58.59375
-64.0869140625
-65.00244140625
-63.17138671875
-54.01611328125
-52.18505859375
-54.01611328125
-53.1005859375
-51.26953125
-48.52294921875
-50.35400390625
-58.59375
-59.50927734375
-60.4248046875
-60.4248046875
-56.7626953125
-64.0869140625
-65.00244140625
-64.0869140625
-62.255859375
-65.91796875
-72.32666015625
-69.580078125
-63.17138671875
-64.0869140625
-58.59375
-64.0869140625
-72.32666015625
-78.7353515625
-90.63720703125
-80.56640625
-79.65087890625
-75.98876953125
-86.0595703125
-80.56640625
-61.34033203125
-56.7626953125
-59.50927734375
-54.01611328125
-52.18505859375
-55.84716796875
-53.1005859375
-53.1005859375
-54.931640625
-52.18505859375
-42.1142578125
-55.84716796875
-69.580078125
-73.2421875
-73.2421875
-71.4111328125
-68.66455078125
-70.49560546875
-76.904296875
-83.31298828125
-77.81982421875
-68.66455078125
-66.83349609375
-70.49560546875
-61.34033203125
-64.0869140625
-73.2421875
-65.91796875
-68.66455078125
-73.2421875
-68.66455078125
-66.83349609375
-67.7490234375
-69.580078125
-65.00244140625
-65.00244140625
-65.91796875
-61.34033203125
-65.00244140625
-70.49560546875
-66.83349609375
-71.4111328125
-75.0732421875
-64.0869140625
-43.9453125
-31.1279296875
-26.55029296875
-21.05712890625
-23.8037109375
-34.7900390625
-43.9453125
-31.1279296875
-22.88818359375
-18.310546875
-11.90185546875
3.662109375
5.4931640625
10.07080078125
14.6484375
7.32421875
10.07080078125
3.662109375
-5.4931640625
-4.57763671875
-4.57763671875
-4.57763671875
-7.32421875
-18.310546875
-27.4658203125
-29.296875
-39.36767578125
-36.62109375
-40.283203125
-44.86083984375
-54.01611328125
-63.17138671875
-62.255859375
-74.15771484375
-77.81982421875
-76.904296875
-78.7353515625
-77.81982421875
-81.48193359375
-78.7353515625
-80.56640625
-79.65087890625
-74.15771484375
-81.48193359375
-78.7353515625
-82.3974609375
-76.904296875
-77.81982421875
-82.3974609375
-89.7216796875
-86.0595703125
-85.14404296875
-90.63720703125
-78.7353515625
-85.14404296875
-89.7216796875
-91.552734375
-84.228515625
-84.228515625
-87.890625
-83.31298828125
-82.3974609375
-90.63720703125
-90.63720703125
-80.56640625
-69.580078125
-76.904296875
-80.56640625
-79.65087890625
-68.66455078125
-67.7490234375
-68.66455078125
-82.3974609375
-93.3837890625
-100.7080078125
-86.97509765625
-64.0869140625
-19.22607421875
46.69189453125
147.39990234375
268.24951171875
388.18359375
529.1748046875
651.85546875
752.5634765625
863.34228515625
979.6142578125
1113.28125
1210.3271484375
1236.87744140625
1206.6650390625
1041.8701171875
724.18212890625
406.494140625
141.90673828125
-57.67822265625
-81.48193359375
-65.91796875
-43.9453125
-43.9453125
-31.1279296875
-6.40869140625
18.310546875
15.56396484375
11.90185546875
9.1552734375
-1.8310546875
-8.23974609375
-13.73291015625
-24.71923828125
-40.283203125
-45.7763671875
-41.19873046875
-32.958984375
-32.04345703125
-42.1142578125
-41.19873046875
-38.4521484375
-41.19873046875
-46.69189453125
-49.4384765625
-33.87451171875
-28.38134765625
-45.7763671875
-51.26953125
-49.4384765625
-32.04345703125
-28.38134765625
-41.19873046875
-37.53662109375
-39.36767578125
-43.9453125
-32.958984375
-44.86083984375
-45.7763671875
-37.53662109375
-29.296875
-16.4794921875
-17.39501953125
-12.8173828125
-13.73291015625
-15.56396484375
-15.56396484375
-14.6484375
-20.1416015625
-16.4794921875
-24.71923828125
-20.1416015625
-13.73291015625
-21.97265625
-21.97265625
-16.4794921875
-15.56396484375
-15.56396484375
-22.88818359375
-36.62109375
-31.1279296875
-25.634765625
-22.88818359375
-17.39501953125
-25.634765625
-21.97265625
-21.97265625
-13.73291015625
-20.1416015625
-11.90185546875
-2.74658203125
-6.40869140625
-4.57763671875
-10.986328125
-0.91552734375
1.8310546875
8.23974609375
10.986328125
10.07080078125
15.56396484375
17.39501953125
18.310546875
20.1416015625
21.05712890625
20.1416015625
14.6484375
15.56396484375
19.22607421875
15.56396484375
11.90185546875
12.8173828125
21.05712890625
33.87451171875
40.283203125
36.62109375
33.87451171875
49.4384765625
54.931640625
57.67822265625
66.83349609375
59.50927734375
58.59375
66.83349609375
75.98876953125
81.48193359375
73.2421875
79.65087890625
81.48193359375
76.904296875
89.7216796875
96.13037109375
94.29931640625
87.890625
90.63720703125
88.80615234375
91.552734375
97.96142578125
110.77880859375
108.94775390625
103.45458984375
109.86328125
112.60986328125
119.0185546875
124.51171875
124.51171875
123.59619140625
116.27197265625
109.86328125
119.0185546875
120.849609375
113.525390625
109.86328125
97.96142578125
93.3837890625
74.15771484375
65.91796875
56.7626953125
56.7626953125
54.01611328125
52.18505859375
48.52294921875
39.36767578125
37.53662109375
37.53662109375
32.958984375
17.39501953125
14.6484375
7.32421875
0
0.91552734375
-15.56396484375
-20.1416015625
-11.90185546875
-8.23974609375
-10.986328125
-10.07080078125
-21.97265625
-34.7900390625
-31.1279296875
-29.296875
-29.296875
-33.87451171875
-40.283203125
-32.958984375
-34.7900390625
-37.53662109375
-40.283203125
-34.7900390625
-25.634765625
-24.71923828125
-32.04345703125
-35.70556640625
-44.86083984375
-43.9453125
-38.4521484375
-32.04345703125
-21.05712890625
-29.296875
-32.04345703125
-20.1416015625
-22.88818359375
-32.04345703125
-37.53662109375
-27.4658203125
-25.634765625
-33.87451171875
-31.1279296875
-30.21240234375
-29.296875
-17.39501953125
-8.23974609375
-19.22607421875
-22.88818359375
-30.21240234375
-43.9453125
-50.35400390625
-34.7900390625
-34.7900390625
-35.70556640625
-25.634765625
-26.55029296875
-24.71923828125
-17.39501953125
-10.986328125
-16.4794921875
-22.88818359375
-29.296875
-41.19873046875
-40.283203125
-29.296875
-18.310546875
-22.88818359375
-12.8173828125
-21.97265625
-22.88818359375
-15.56396484375
-20.1416015625
-12.8173828125
-13.73291015625
-10.07080078125
-7.32421875
-16.4794921875
-22.88818359375
-18.310546875
-14.6484375
-17.39501953125
-13.73291015625
-8.23974609375
-7.32421875
-17.39501953125
-31.1279296875
-36.62109375
-27.4658203125
-20.1416015625
-18.310546875
-20.1416015625
-27.4658203125
-28.38134765625
-28.38134765625
-23.8037109375
-25.634765625
-21.97265625
-16.4794921875
-28.38134765625
-32.04345703125
-41.19873046875
-43.02978515625
-38.4521484375
-36.62109375
-27.4658203125
-33.87451171875
-38.4521484375
-33.87451171875
-32.04345703125
-27.4658203125
-29.296875
-33.87451171875
-39.36767578125
-47.607421875
-41.19873046875
-40.283203125
-34.7900390625
-35.70556640625
-45.7763671875
-40.283203125
-44.86083984375
-48.52294921875
-48.52294921875
-51.26953125
-50.35400390625
-47.607421875
-41.19873046875
-43.02978515625
-39.36767578125
-30.21240234375
-42.1142578125
-43.9453125
-48.52294921875
-51.26953125
-40.283203125
-48.52294921875
-53.1005859375
-64.0869140625
-71.4111328125
-64.0869140625
-49.4384765625
-41.19873046875
-38.4521484375
-49.4384765625
-50.35400390625
-45.7763671875
-41.19873046875
-40.283203125
-42.1142578125
-48.52294921875
-49.4384765625
-44.86083984375
-44.86083984375
-52.18505859375
-50.35400390625
-49.4384765625
-52.18505859375
-54.931640625
-51.26953125
-57.67822265625
-54.931640625
-48.52294921875
-50.35400390625
-73.2421875
-77.81982421875
-76.904296875
-72.32666015625
-66.83349609375
-57.67822265625
-54.01611328125
-52.18505859375
-42.1142578125
-39.36767578125
-36.62109375
-25.634765625
-21.97265625
-31.1279296875
-28.38134765625
-23.8037109375
-25.634765625
-22.88818359375
-11.90185546875
-2.74658203125
2.74658203125
9.1552734375
13.73291015625
19.22607421875
23.8037109375
18.310546875
9.1552734375
9.1552734375
12.8173828125
8.23974609375
11.90185546875
9.1552734375
3.662109375
8.23974609375
-6.40869140625
-27.4658203125
-32.958984375
-35.70556640625
-35.70556640625
-41.19873046875
-39.36767578125
-46.69189453125
-43.02978515625
-55.84716796875
-66.83349609375
-65.00244140625
-62.255859375
-65.00244140625
-76.904296875
-83.31298828125
-81.48193359375
-65.91796875
-66.83349609375
-66.83349609375
-71.4111328125
-75.0732421875
-73.2421875
-71.4111328125
-74.15771484375
-77.81982421875
-86.0595703125
-71.4111328125
-73.2421875
-56.7626953125
-56.7626953125
-67.7490234375
-79.65087890625
-75.0732421875
-73.2421875
-71.4111328125
-60.4248046875
-58.59375
-63.17138671875
-59.50927734375
-69.580078125
-68.66455078125
-79.65087890625
-77.81982421875
-81.48193359375
-82.3974609375
-75.98876953125
-86.0595703125
-96.13037109375
-109.86328125
-112.60986328125
-96.13037109375
-69.580078125
-25.634765625
25.634765625
108.94775390625
239.8681640625
359.80224609375
489.80712890625
626.220703125
740.66162109375
834.9609375
935.6689453125
1081.23779296875
1187.43896484375
1230.46875
1209.41162109375
1095.88623046875
816.650390625
473.32763671875
184.02099609375
-25.634765625
-80.56640625
-61.34033203125
-21.05712890625
-31.1279296875
-29.296875
8.23974609375
13.73291015625
20.1416015625
13.73291015625
12.8173828125
14.6484375
3.662109375
-10.07080078125
-22.88818359375
-21.97265625
-6.40869140625
-7.32421875
1.8310546875
-3.662109375
-14.6484375
-33.87451171875
-30.21240234375
-14.6484375
-11.90185546875
-42.1142578125
-55.84716796875
-32.04345703125
-33.87451171875
-38.4521484375
-32.958984375
-24.71923828125
-39.36767578125
-21.97265625
-10.986328125
-8.23974609375
-9.1552734375
-14.6484375
-16.4794921875
-23.8037109375
-27.4658203125
-21.97265625
-40.283203125
-30.21240234375
-22.88818359375
-40.283203125
-21.97265625
-13.73291015625
-15.56396484375
-16.4794921875
-12.8173828125
-11.90185546875
-19.22607421875
-16.4794921875
-13.73291015625
-22.88818359375
0
-9.1552734375
-14.6484375
-16.4794921875
-15.56396484375
-13.73291015625
-7.32421875
-8.23974609375
-0.91552734375
-3.662109375
-12.8173828125
-5.4931640625
1.8310546875
0
-5.4931640625
-19.22607421875
-20.1416015625
1.8310546875
5.4931640625
8.23974609375
9.1552734375
-0.91552734375
7.32421875
14.6484375
4.57763671875
6.40869140625
-2.74658203125
0
15.56396484375
21.97265625
24.71923828125
30.21240234375
33.87451171875
35.70556640625
30.21240234375
44.86083984375
38.4521484375
29.296875
32.958984375
42.1142578125
42.1142578125
47.607421875
45.7763671875
47.607421875
41.19873046875
45.7763671875
58.59375
72.32666015625
64.0869140625
66.83349609375
67.7490234375
54.931640625
56.7626953125
61.34033203125
71.4111328125
73.2421875
73.2421875
76.904296875
82.3974609375
79.65087890625
71.4111328125
72.32666015625
54.931640625
61.34033203125
88.80615234375
93.3837890625
103.45458984375
97.0458984375
91.552734375
92.46826171875
89.7216796875
76.904296875
56.7626953125
72.32666015625
77.81982421875
72.32666015625
68.66455078125
60.4248046875
44.86083984375
43.9453125
32.04345703125
29.296875
38.4521484375
24.71923828125
11.90185546875
1.8310546875
1.8310546875
-10.986328125
-21.05712890625
-18.310546875
-20.1416015625
-13.73291015625
-24.71923828125
-34.7900390625
-29.296875
-36.62109375
-57.67822265625
-45.7763671875
-31.1279296875
-45.7763671875
-52.18505859375
-58.59375
-58.59375
-32.958984375
-65.00244140625
-68.66455078125
-59.50927734375
-65.91796875
-65.91796875
-66.83349609375
-66.83349609375
-68.66455078125
-58.59375
-58.59375
-65.91796875
-65.00244140625
-55.84716796875
-68.66455078125
-72.32666015625
-70.49560546875
-64.0869140625
-76.904296875
-86.97509765625
-86.97509765625
-60.4248046875
-59.50927734375
-71.4111328125
-77.81982421875
-67.7490234375
-53.1005859375
-51.26953125
-60.4248046875
-67.7490234375
-58.59375
-63.17138671875
-63.17138671875
-62.255859375
-58.59375
-61.34033203125
-54.931640625
-58.59375
-59.50927734375
-65.91796875
-69.580078125
-65.00244140625
-65.91796875
-66.83349609375
-76.904296875
-63.17138671875
-64.0869140625
-64.0869140625
-77.81982421875
-58.59375
-62.255859375
-49.4384765625
-56.7626953125
-51.26953125
-51.26953125
-48.52294921875
-49.4384765625
-57.67822265625
-50.35400390625
-52.18505859375
-58.59375
-63.17138671875
-58.59375
-57.67822265625
-62.255859375
-58.59375
-59.50927734375
-60.4248046875
-69.580078125
-64.0869140625
-68.66455078125
-65.00244140625
-54.931640625
-63.17138671875
-74.15771484375
-72.32666015625
-81.48193359375
-65.91796875
-66.83349609375
-65.00244140625
-65.00244140625
-70.49560546875
-67.7490234375
-72.32666015625
-80.56640625
-82.3974609375
-82.3974609375
-76.904296875
-84.228515625
-78.7353515625
-76.904296875
-79.65087890625
-86.0595703125
-96.13037109375
-100.7080078125
-100.7080078125
-101.62353515625
-103.45458984375
-97.96142578125
-97.0458984375
-95.21484375
-91.552734375
-85.14404296875
-87.890625
-108.0322265625
-113.525390625
-97.96142578125
-95.21484375
-98.876953125
-99.79248046875
-96.13037109375
-93.3837890625
-86.0595703125
-98.876953125
-105.28564453125
-97.0458984375
-97.0458984375
-93.3837890625
-89.7216796875
-96.13037109375
-93.3837890625
-99.79248046875
-100.7080078125
-98.876953125
-104.3701171875
-102.5390625
-92.46826171875
-99.79248046875
-108.0322265625
-118.10302734375
-111.6943359375
-104.3701171875
-106.201171875
-104.3701171875
-103.45458984375
-104.3701171875
-98.876953125
-101.62353515625
-112.60986328125
-112.60986328125
-110.77880859375
-115.3564453125
-118.10302734375
-121.76513671875
-106.201171875
-107.11669921875
-112.60986328125
-109.86328125
-106.201171875
-112.60986328125
-111.6943359375
-108.0322265625
-108.94775390625
-106.201171875
-108.0322265625
-117.1875
-119.93408203125
-114.44091796875
-111.6943359375
-124.51171875
-112.60986328125
-104.3701171875
-109.86328125
-99.79248046875
-109.86328125
-114.44091796875
-117.1875
-128.173828125
-125.42724609375
-127.25830078125
-117.1875
-114.44091796875
-114.44091796875
-105.28564453125
-89.7216796875
-87.890625
-81.48193359375
-76.904296875
-66.83349609375
-64.0869140625
-56.7626953125
-31.1279296875
-20.1416015625
-18.310546875
-25.634765625
-17.39501953125
-28.38134765625
-41.19873046875
-18.310546875
-8.23974609375
-9.1552734375
-6.40869140625
0.91552734375
11.90185546875
6.40869140625
0
-15.56396484375
-21.05712890625
-25.634765625
-24.71923828125
-12.8173828125
-10.986328125
-17.39501953125
-23.8037109375
-31.1279296875
-43.02978515625
-44.86083984375
-52.18505859375
-55.84716796875
-44.86083984375
-52.18505859375
-61.34033203125
-70.49560546875
-75.98876953125
-78.7353515625
-91.552734375
-94.29931640625
-106.201171875
-101.62353515625
-87.890625
-74.15771484375
-87.890625
-97.96142578125
-96.13037109375
-97.0458984375
-102.5390625
-112.60986328125
-105.28564453125
-107.11669921875
-111.6943359375
-110.77880859375
-105.28564453125
-99.79248046875
-104.3701171875
-108.94775390625
-108.0322265625
-98.876953125
-95.21484375
-97.96142578125
-86.97509765625
-79.65087890625
-78.7353515625
-75.98876953125
-61.34033203125
-67.7490234375
-86.0595703125
-92.46826171875
-94.29931640625
-97.96142578125
-103.45458984375
-109.86328125
-104.3701171875
-108.94775390625
-123.59619140625
-119.93408203125
-102.5390625
-65.91796875
-10.07080078125
80.56640625
192.2607421875
299.37744140625
411.9873046875
538.330078125
638.12255859375
719.6044921875
819.39697265625
932.0068359375
1050.10986328125
1099.54833984375
1099.54833984375
1014.404296875
791.015625
476.98974609375
227.96630859375
11.90185546875
-91.552734375
-97.0458984375
-73.2421875
-63.17138671875
-39.36767578125
-11.90185546875
11.90185546875
21.97265625
9.1552734375
-9.1552734375
-11.90185546875
-13.73291015625
-33.87451171875
-46.69189453125
-35.70556640625
-48.52294921875
-48.52294921875
-34.7900390625
-38.4521484375
-43.02978515625
-36.62109375
-50.35400390625
-49.4384765625
-50.35400390625
-38.4521484375
-33.87451171875
-51.26953125
-49.4384765625
-65.91796875
-81.48193359375
-75.0732421875
-69.580078125
-63.17138671875
-65.91796875
-73.2421875
-61.34033203125
-61.34033203125
-61.34033203125
-58.59375
-73.2421875
-76.904296875
-77.81982421875
-69.580078125
-66.83349609375
-65.00244140625
-48.52294921875
-37.53662109375
-40.283203125
-32.04345703125
-25.634765625
-32.04345703125
-45.7763671875
-41.19873046875
-50.35400390625
-65.00244140625
-72.32666015625
-61.34033203125
-58.59375
-51.26953125
-37.53662109375
-27.4658203125
-32.958984375
-37.53662109375
-24.71923828125
-22.88818359375
-40.283203125
-44.86083984375
-20.1416015625
-26.55029296875
-22.88818359375
-26.55029296875
-29.296875
-20.1416015625
-14.6484375
-21.05712890625
-23.8037109375
-21.97265625
-20.1416015625
-15.56396484375
-15.56396484375
-9.1552734375
-9.1552734375
-8.23974609375
-25.634765625
-21.05712890625
-3.662109375
-5.4931640625
-2.74658203125
8.23974609375
13.73291015625
23.8037109375
26.55029296875
38.4521484375
36.62109375
36.62109375
28.38134765625
16.4794921875
4.57763671875
9.1552734375
17.39501953125
29.296875
49.4384765625
67.7490234375
54.931640625
39.36767578125
53.1005859375
61.34033203125
54.931640625
65.91796875
78.7353515625
82.3974609375
84.228515625
92.46826171875
88.80615234375
85.14404296875
82.3974609375
84.228515625
86.97509765625
92.46826171875
101.62353515625
106.201171875
104.3701171875
98.876953125
106.201171875
106.201171875
103.45458984375
100.7080078125
107.11669921875
102.5390625
98.876953125
91.552734375
83.31298828125
78.7353515625
75.0732421875
71.4111328125
55.84716796875
41.19873046875
30.21240234375
28.38134765625
18.310546875
16.4794921875
10.986328125
20.1416015625
13.73291015625
0.91552734375
-14.6484375
-21.05712890625
-14.6484375
-12.8173828125
-21.05712890625
-22.88818359375
-29.296875
-35.70556640625
-39.36767578125
-34.7900390625
-43.9453125
-56.7626953125
-56.7626953125
-54.931640625
-58.59375
-56.7626953125
-58.59375
-60.4248046875
-59.50927734375
-59.50927734375
-55.84716796875
-63.17138671875
-64.0869140625
-66.83349609375
-70.49560546875
-53.1005859375
-50.35400390625
-61.34033203125
-73.2421875
-73.2421875
-65.00244140625
-61.34033203125
-55.84716796875
-63.17138671875
-59.50927734375
-65.91796875
-61.34033203125
-69.580078125
-73.2421875
-77.81982421875
-72.32666015625
-63.17138671875
-64.0869140625
-69.580078125
-56.7626953125
-55.84716796875
-61.34033203125
-59.50927734375
-47.607421875
-34.7900390625
-43.02978515625
-59.50927734375
-62.255859375
-50.35400390625
-46.69189453125
-54.01611328125
-44.86083984375
-34.7900390625
-36.62109375
-43.9453125
-45.7763671875
-58.59375
-64.0869140625
-67.7490234375
-75.0732421875
-67.7490234375
-58.59375
-59.50927734375
-43.9453125
-51.26953125
-55.84716796875
-56.7626953125
-46.69189453125
-38.4521484375
-43.02978515625
-56.7626953125
-58.59375
-70.49560546875
-55.84716796875
-56.7626953125
-62.255859375
-66.83349609375
-62.255859375
-66.83349609375
-67.7490234375
-67.7490234375
-72.32666015625
-79.65087890625
-75.98876953125
-74.15771484375
-75.0732421875
-68.66455078125
-69.580078125
-73.2421875
-76.904296875
-71.4111328125
-62.255859375
-60.4248046875
-68.66455078125
-71.4111328125
-74.15771484375
-77.81982421875
-77.81982421875
-69.580078125
-67.7490234375
-73.2421875
-79.65087890625
-66.83349609375
-70.49560546875
-79.65087890625
-93.3837890625
-97.0458984375
-95.21484375
-85.14404296875
-87.890625
-87.890625
-76.904296875
-75.0732421875
-76.904296875
-92.46826171875
-108.94775390625
-108.94775390625
-99.79248046875
-89.7216796875
-90.63720703125
-90.63720703125
-81.48193359375
-95.21484375
-93.3837890625
-105.28564453125
-99.79248046875
-89.7216796875
-92.46826171875
-84.228515625
-75.98876953125
-76.904296875
-85.14404296875
-79.65087890625
-83.31298828125
-86.0595703125
-95.21484375
-86.97509765625
-86.0595703125
-95.21484375
-96.13037109375
-88.80615234375
-88.80615234375
-93.3837890625
-93.3837890625
-85.14404296875
-93.3837890625
-107.11669921875
-99.79248046875
-97.0458984375
-90.63720703125
-88.80615234375
-90.63720703125
-91.552734375
-97.96142578125
-103.45458984375
-98.876953125
-96.13037109375
-94.29931640625
-100.7080078125
-92.46826171875
-92.46826171875
-93.3837890625
-86.97509765625
-92.46826171875
-98.876953125
-93.3837890625
-79.65087890625
-87.890625
-98.876953125
-106.201171875
-96.13037109375
-94.29931640625
-100.7080078125
-103.45458984375
-95.21484375
-96.13037109375
-94.29931640625
-86.0595703125
-94.29931640625
-98.876953125
-95.21484375
-95.21484375
-100.7080078125
-100.7080078125
-101.62353515625
-105.28564453125
-108.0322265625
-106.201171875
-100.7080078125
-97.0458984375
-90.63720703125
-93.3837890625
-87.890625
-77.81982421875
-69.580078125
-59.50927734375
-57.67822265625
-41.19873046875
-37.53662109375
-43.9453125
-51.26953125
-54.931640625
-48.52294921875
-49.4384765625
-43.9453125
-40.283203125
-26.55029296875
-10.986328125
-17.39501953125
-23.8037109375
-23.8037109375
-26.55029296875
-29.296875
-26.55029296875
-13.73291015625
-21.05712890625
-30.21240234375
-30.21240234375
-32.958984375
-39.36767578125
-55.84716796875
-65.00244140625
-67.7490234375
-71.4111328125
-73.2421875
-86.97509765625
-94.29931640625
-96.13037109375
-97.96142578125
-104.3701171875
-108.94775390625
-112.60986328125
-113.525390625
-113.525390625
-106.201171875
-108.94775390625
-98.876953125
-94.29931640625
-104.3701171875
-112.60986328125
-111.6943359375
-116.27197265625
-127.25830078125
-128.173828125
-112.60986328125
-81.48193359375
-87.890625
-111.6943359375
-120.849609375
-135.498046875
-129.08935546875
-112.60986328125
-106.201171875
-99.79248046875
-97.0458984375
-104.3701171875
-111.6943359375
-113.525390625
-115.3564453125
-115.3564453125
-115.3564453125
-107.11669921875
-96.13037109375
-99.79248046875
-124.51171875
-134.58251953125
-145.56884765625
-146.484375
-142.822265625
-124.51171875
-95.21484375
-55.84716796875
6.40869140625
109.86328125
221.5576171875
330.50537109375
462.34130859375
573.1201171875
658.26416015625
760.80322265625
890.80810546875
1026.30615234375
1116.943359375
1138.00048828125
1098.6328125
923.76708984375
606.99462890625
317.68798828125
76.904296875
-70.49560546875
-94.29931640625
-86.0595703125
-70.49560546875
-61.34033203125
-34.7900390625
-16.4794921875
-3.662109375
-7.32421875
0
-16.4794921875
-32.04345703125
-35.70556640625
-37.53662109375
-49.4384765625
-56.7626953125
-65.00244140625
-65.00244140625
-54.931640625
-45.7763671875
-47.607421875
-51.26953125
-53.1005859375
-51.26953125
-45.7763671875
-58.59375
-65.91796875
-71.4111328125
-74.15771484375
-75.0732421875
-71.4111328125
-66.83349609375
-69.580078125
-63.17138671875
-65.91796875
-59.50927734375
-54.01611328125
-54.01611328125
-62.255859375
-68.66455078125
-62.255859375
-61.34033203125
-62.255859375
-60.4248046875
-54.931640625
-54.931640625
-59.50927734375
-54.01611328125
-72.32666015625
-67.7490234375
-65.91796875
-54.931640625
-42.1142578125
-60.4248046875
-75.98876953125
-74.15771484375
-66.83349609375
-60.4248046875
-41.19873046875
-12.8173828125
-5.4931640625
-2.74658203125
-10.986328125
-37.53662109375
-58.59375
-49.4384765625
-41.19873046875
-40.283203125
-37.53662109375
-32.04345703125
-32.958984375
-32.04345703125
-14.6484375
-21.97265625
-23.8037109375
-24.71923828125
-24.71923828125
-26.55029296875
-21.97265625
-17.39501953125
-10.07080078125
-10.986328125
-8.23974609375
-10.986328125
-10.986328125
-3.662109375
-7.32421875
-7.32421875
1.8310546875
13.73291015625
10.986328125
1.8310546875
6.40869140625
11.90185546875
9.1552734375
16.4794921875
11.90185546875
21.97265625
32.04345703125
35.70556640625
36.62109375
30.21240234375
34.7900390625
44.86083984375
47.607421875
52.18505859375
54.931640625
62.255859375
69.580078125
76.904296875
81.48193359375
77.81982421875
85.14404296875
78.7353515625
75.0732421875
86.0595703125
75.98876953125
80.56640625
90.63720703125
90.63720703125
95.21484375
99.79248046875
100.7080078125
108.0322265625
106.201171875
113.525390625
106.201171875
93.3837890625
89.7216796875
89.7216796875
82.3974609375
83.31298828125
85.14404296875
83.31298828125
70.49560546875
54.931640625
53.1005859375
58.59375
50.35400390625
32.958984375
25.634765625
19.22607421875
-0.91552734375
0
0
-6.40869140625
-10.07080078125
-16.4794921875
-24.71923828125
-23.8037109375
-22.88818359375
-30.21240234375
-45.7763671875
-43.02978515625
-40.283203125
-34.7900390625
-36.62109375
-41.19873046875
-43.02978515625
-42.1142578125
-45.7763671875
-52.18505859375
-52.18505859375
-50.35400390625
-46.69189453125
-55.84716796875
-62.255859375
-62.255859375
-56.7626953125
-60.4248046875
-60.4248046875
-63.17138671875
-65.91796875
-64.0869140625
-61.34033203125
-55.84716796875
-53.1005859375
-47.607421875
-54.01611328125
-55.84716796875
-56.7626953125
-48.52294921875
-43.9453125
-47.607421875
-54.931640625
-49.4384765625
-52.18505859375
-51.26953125
-45.7763671875
-45.7763671875
-48.52294921875
-43.02978515625
-42.1142578125
-47.607421875
-44.86083984375
-35.70556640625
-31.1279296875
-42.1142578125
-37.53662109375
-29.296875
-32.04345703125
-36.62109375
-43.9453125
-38.4521484375
-35.70556640625
-35.70556640625
-40.283203125
-35.70556640625
-30.21240234375
-38.4521484375
-41.19873046875
-38.4521484375
-29.296875
-40.283203125
-49.4384765625
-41.19873046875
-34.7900390625
-35.70556640625
-26.55029296875
-23.8037109375
-29.296875
-36.62109375
-31.1279296875
-35.70556640625
-40.283203125
-43.02978515625
-32.04345703125
-35.70556640625
-36.62109375
-33.87451171875
-54.931640625
-51.26953125
-33.87451171875
-25.634765625
-36.62109375
-36.62109375
-38.4521484375
-34.7900390625
-41.19873046875
-31.1279296875
-34.7900390625
-43.02978515625
-47.607421875
-48.52294921875
-43.9453125
-47.607421875
-48.52294921875
-35.70556640625
-31.1279296875
-37.53662109375
-36.62109375
-40.283203125
-37.53662109375
-25.634765625
-46.69189453125
-46.69189453125
-43.9453125
-22.88818359375
-26.55029296875
-28.38134765625
-44.86083984375
-54.931640625
-45.7763671875
-53.1005859375
-57.67822265625
-63.17138671875
-47.607421875
-50.35400390625
-45.7763671875
-56.7626953125
-52.18505859375
-54.01611328125
-64.0869140625
-62.255859375
-61.34033203125
-47.607421875
-49.4384765625
-54.01611328125
-35.70556640625
-75.0732421875
-66.83349609375
-45.7763671875
-42.1142578125
-45.7763671875
-38.4521484375
-38.4521484375
-24.71923828125
-37.53662109375
-54.01611328125
-55.84716796875
-37.53662109375
-47.607421875
-54.01611328125
-57.67822265625
-66.83349609375
-69.580078125
-55.84716796875
-51.26953125
-44.86083984375
-51.26953125
-53.1005859375
-53.1005859375
-55.84716796875
-49.4384765625
-52.18505859375
-60.4248046875
-64.0869140625
-62.255859375
-58.59375
-64.0869140625
-62.255859375
-61.34033203125
-76.904296875
-76.904296875
-65.91796875
-65.00244140625
-64.0869140625
-68.66455078125
-67.7490234375
-54.01611328125
-49.4384765625
-51.26953125
-55.84716796875
-56.7626953125
-58.59375
-62.255859375
-67.7490234375
-63.17138671875
-67.7490234375
-73.2421875
-75.98876953125
-73.2421875
-65.91796875
-70.49560546875
-61.34033203125
-53.1005859375
-45.7763671875
-43.9453125
-42.1142578125
-28.38134765625
-21.05712890625
-26.55029296875
-17.39501953125
-13.73291015625
-7.32421875
3.662109375
8.23974609375
10.986328125
12.8173828125
18.310546875
17.39501953125
10.07080078125
12.8173828125
8.23974609375
3.662109375
9.1552734375
9.1552734375
-0.91552734375
-4.57763671875
-13.73291015625
-24.71923828125
-35.70556640625
-42.1142578125
-42.1142578125
-31.1279296875
-28.38134765625
-31.1279296875
-39.36767578125
-52.18505859375
-65.00244140625
-71.4111328125
-71.4111328125
-71.4111328125
-69.580078125
-67.7490234375
-65.91796875
-63.17138671875
-60.4248046875
-59.50927734375
-65.00244140625
-71.4111328125
-65.91796875
-59.50927734375
-65.00244140625
-68.66455078125
-70.49560546875
-76.904296875
-84.228515625
-85.14404296875
-75.98876953125
-67.7490234375
-58.59375
-63.17138671875
-66.83349609375
-75.0732421875
-69.580078125
-57.67822265625
-70.49560546875
-72.32666015625
-80.56640625
-72.32666015625
-64.0869140625
-71.4111328125
-74.15771484375
-88.80615234375
-106.201171875
-108.94775390625
-108.0322265625
-98.876953125
-73.2421875
-46.69189453125
-14.6484375
60.4248046875
159.3017578125
285.64453125
412.90283203125
541.07666015625
671.08154296875
781.8603515625
868.83544921875
979.6142578125
1116.02783203125
1190.185546875
1190.185546875
1155.3955078125
984.19189453125
662.841796875
327.7587890625
77.81982421875
-69.580078125
-74.15771484375
-40.283203125
-17.39501953125
-28.38134765625
-36.62109375
-6.40869140625
18.310546875
24.71923828125
34.7900390625
32.958984375
16.4794921875
-7.32421875
-19.22607421875
-26.55029296875
-14.6484375
-4.57763671875
-2.74658203125
-12.8173828125
-15.56396484375
-8.23974609375
-6.40869140625
-11.90185546875
-29.296875
-31.1279296875
-28.38134765625
-31.1279296875
-22.88818359375
-24.71923828125
-30.21240234375
-33.87451171875
-25.634765625
-33.87451171875
-40.283203125
-33.87451171875
-40.283203125
-35.70556640625
-31.1279296875
-17.39501953125
-32.04345703125
-20.1416015625
-21.97265625
-14.6484375
-11.90185546875
-5.4931640625
-9.1552734375
-10.07080078125
-21.97265625
-35.70556640625
-34.7900390625
-38.4521484375
-22.88818359375
-3.662109375
-0.91552734375
-9.1552734375
-5.4931640625
-2.74658203125
-8.23974609375
-18.310546875
-5.4931640625
-5.4931640625
-24.71923828125
-26.55029296875
-12.8173828125
-10.986328125
-17.39501953125
-23.8037109375
-21.05712890625
-10.07080078125
-8.23974609375
-7.32421875
-16.4794921875
-29.296875
0
1.8310546875
-24.71923828125
-15.56396484375
22.88818359375
10.07080078125
10.07080078125
0.91552734375
2.74658203125
3.662109375
-2.74658203125
-5.4931640625
4.57763671875
27.4658203125
23.8037109375
9.1552734375
25.634765625
29.296875
26.55029296875
41.19873046875
43.9453125
43.02978515625
42.1142578125
43.9453125
43.02978515625
44.86083984375
40.283203125
41.19873046875
49.4384765625
50.35400390625
59.50927734375
53.1005859375
56.7626953125
62.255859375
60.4248046875
58.59375
59.50927734375
72.32666015625
78.7353515625
80.56640625
84.228515625
68.66455078125
73.2421875
79.65087890625
68.66455078125
70.49560546875
74.15771484375
88.80615234375
86.97509765625
79.65087890625
78.7353515625
80.56640625
81.48193359375
78.7353515625
84.228515625
84.228515625
80.56640625
75.98876953125
67.7490234375
62.255859375
61.34033203125
56.7626953125
42.1142578125
49.4384765625
52.18505859375
29.296875
18.310546875
4.57763671875
-0.91552734375
-1.8310546875
0.91552734375
4.57763671875
10.986328125
10.986328125
-0.91552734375
-11.90185546875
-17.39501953125
-14.6484375
-24.71923828125
-21.05712890625
-21.05712890625
-22.88818359375
-30.21240234375
-28.38134765625
-34.7900390625
-49.4384765625
-45.7763671875
-48.52294921875
-56.7626953125
-50.35400390625
-44.86083984375
-47.607421875
-40.283203125
-42.1142578125
-49.4384765625
-48.52294921875
-48.52294921875
-53.1005859375
-43.9453125
-40.283203125
-30.21240234375
-33.87451171875
-38.4521484375
-43.02978515625
-38.4521484375
-39.36767578125
-38.4521484375
-46.69189453125
-37.53662109375
-29.296875
-33.87451171875
-38.4521484375
-40.283203125
-43.02978515625
-43.02978515625
-41.19873046875
-36.62109375
-33.87451171875
-36.62109375
-37.53662109375
-27.4658203125
-22.88818359375
-33.87451171875
-32.958984375
-32.958984375
-28.38134765625
-32.958984375
-44.86083984375
-43.9453125
-40.283203125
-27.4658203125
-29.296875
-29.296875
-32.958984375
-31.1279296875
-32.04345703125
-23.8037109375
-23.8037109375
-26.55029296875
-29.296875
-30.21240234375
-32.04345703125
-37.53662109375
-40.283203125
-35.70556640625
-25.634765625
-26.55029296875
-27.4658203125
-22.88818359375
-27.4658203125
-32.04345703125
-28.38134765625
-26.55029296875
-27.4658203125
-34.7900390625
-38.4521484375
-39.36767578125
-35.70556640625
-43.9453125
-53.1005859375
-51.26953125
-50.35400390625
-34.7900390625
-29.296875
-31.1279296875
-49.4384765625
-54.01611328125
-52.18505859375
-39.36767578125
-45.7763671875
-39.36767578125
-42.1142578125
-35.70556640625
-41.19873046875
-47.607421875
-49.4384765625
-50.35400390625
-49.4384765625
-44.86083984375
-48.52294921875
-50.35400390625
-49.4384765625
-41.19873046875
-47.607421875
-54.931640625
-54.01611328125
-45.7763671875
-42.1142578125
-45.7763671875
-37.53662109375
-45.7763671875
-46.69189453125
-42.1142578125
-37.53662109375
-37.53662109375
-39.36767578125
-51.26953125
-65.91796875
-65.91796875
-60.4248046875
-50.35400390625
-48.52294921875
-56.7626953125
-59.50927734375
-57.67822265625
-54.01611328125
-51.26953125
-56.7626953125
-52.18505859375
-50.35400390625
-59.50927734375
-56.7626953125
-62.255859375
-65.91796875
-58.59375
-53.1005859375
-57.67822265625
-64.0869140625
-64.0869140625
-62.255859375
-64.0869140625
-61.34033203125
-57.67822265625
-65.91796875
-68.66455078125
-58.59375
-52.18505859375
-51.26953125
-52.18505859375
-54.01611328125
-51.26953125
-43.9453125
-48.52294921875
-50.35400390625
-51.26953125
-53.1005859375
-52.18505859375
-51.26953125
-60.4248046875
-57.67822265625
-54.01611328125
-57.67822265625
-56.7626953125
-61.34033203125
-59.50927734375
-59.50927734375
-65.00244140625
-65.00244140625
-68.66455078125
-71.4111328125
-64.0869140625
-63.17138671875
-60.4248046875
-58.59375
-54.931640625
-44.86083984375
-46.69189453125
-50.35400390625
-36.62109375
-8.23974609375
-4.57763671875
-10.07080078125
-17.39501953125
-21.97265625
-21.05712890625
-25.634765625
-9.1552734375
-6.40869140625
0.91552734375
20.1416015625
30.21240234375
24.71923828125
21.97265625
16.4794921875
5.4931640625
-5.4931640625
0.91552734375
12.8173828125
9.1552734375
-1.8310546875
0
-3.662109375
-8.23974609375
-17.39501953125
-24.71923828125
-36.62109375
-48.52294921875
-55.84716796875
-66.83349609375
-74.15771484375
-76.904296875
-78.7353515625
-80.56640625
-78.7353515625
-75.98876953125
-76.904296875
-82.3974609375
-82.3974609375
-86.97509765625
-81.48193359375
-74.15771484375
-75.0732421875
-78.7353515625
-86.0595703125
-82.3974609375
-93.3837890625
-84.228515625
-87.890625
-92.46826171875
-98.876953125
-97.96142578125
-92.46826171875
-101.62353515625
-97.0458984375
-91.552734375
-68.66455078125
-65.91796875
-80.56640625
-84.228515625
-86.97509765625
-89.7216796875
-92.46826171875
-93.3837890625
-91.552734375
-86.97509765625
-92.46826171875
-93.3837890625
-101.62353515625
-116.27197265625
-123.59619140625
-112.60986328125
-85.14404296875
-47.607421875
10.986328125
95.21484375
200.50048828125
321.35009765625
445.86181640625
564.88037109375
662.841796875
771.78955078125
887.14599609375
1007.99560546875
1083.984375
1115.1123046875
1109.619140625
991.51611328125
694.88525390625
369.873046875
139.16015625
-48.52294921875
-77.81982421875
-75.0732421875
-64.0869140625
-53.1005859375
-16.4794921875
13.73291015625
22.88818359375
14.6484375
12.8173828125
3.662109375
-11.90185546875
-20.1416015625
-37.53662109375
-46.69189453125
-49.4384765625
-43.02978515625
-33.87451171875
-31.1279296875
-46.69189453125
-51.26953125
-54.931640625
-50.35400390625
-47.607421875
-47.607421875
-54.931640625
-51.26953125
-61.34033203125
-59.50927734375
-64.0869140625
-74.15771484375
-69.580078125
-66.83349609375
-59.50927734375
-49.4384765625
-45.7763671875
-54.931640625
-54.01611328125
-56.7626953125
-50.35400390625
-50.35400390625
-58.59375
-52.18505859375
-62.255859375
-72.32666015625
-62.255859375
-65.00244140625
-56.7626953125
-58.59375
-48.52294921875
-50.35400390625
-54.01611328125
-65.91796875
-63.17138671875
-69.580078125
-53.1005859375
-39.36767578125
-36.62109375
-42.1142578125
-43.02978515625
-26.55029296875
-17.39501953125
-25.634765625
-24.71923828125
-24.71923828125
-32.04345703125
-27.4658203125
-35.70556640625
-33.87451171875
-36.62109375
-49.4384765625
-39.36767578125
-13.73291015625
-24.71923828125
-39.36767578125
-62.255859375
-40.283203125
-21.97265625
-2.74658203125
-20.1416015625
-62.255859375
-89.7216796875
-78.7353515625
-1.8310546875
-10.07080078125
-12.8173828125
-0.91552734375
3.662109375
10.07080078125
27.4658203125
52.18505859375
40.283203125
25.634765625
30.21240234375
30.21240234375
23.8037109375
28.38134765625
32.958984375
40.283203125
46.69189453125
47.607421875
49.4384765625
35.70556640625
36.62109375
47.607421875
54.01611328125
49.4384765625
57.67822265625
75.98876953125
59.50927734375
53.1005859375
60.4248046875
77.81982421875
73.2421875
76.904296875
94.29931640625
109.86328125
97.96142578125
84.228515625
84.228515625
89.7216796875
90.63720703125
81.48193359375
69.580078125
82.3974609375
91.552734375
83.31298828125
92.46826171875
87.890625
80.56640625
71.4111328125
60.4248046875
61.34033203125
64.0869140625
63.17138671875
52.18505859375
46.69189453125
33.87451171875
37.53662109375
44.86083984375
37.53662109375
18.310546875
9.1552734375
-7.32421875
-12.8173828125
-21.05712890625
-32.04345703125
-25.634765625
-23.8037109375
-30.21240234375
-32.04345703125
-32.958984375
-36.62109375
-43.9453125
-42.1142578125
-37.53662109375
-25.634765625
-12.8173828125
-13.73291015625
-27.4658203125
-61.34033203125
-64.0869140625
-60.4248046875
-58.59375
-65.00244140625
-68.66455078125
-65.91796875
-69.580078125
-72.32666015625
-64.0869140625
-68.66455078125
-65.91796875
-66.83349609375
-62.255859375
-69.580078125
-75.0732421875
-73.2421875
-74.15771484375
-73.2421875
-64.0869140625
-69.580078125
-65.00244140625
-64.0869140625
-66.83349609375
-65.00244140625
-55.84716796875
-55.84716796875
-61.34033203125
-66.83349609375
-78.7353515625
-78.7353515625
-62.255859375
-54.01611328125
-65.91796875
-70.49560546875
-64.0869140625
-64.0869140625
-66.83349609375
-51.26953125
-58.59375
-57.67822265625
-50.35400390625
-58.59375
-54.01611328125
-44.86083984375
-66.83349609375
-68.66455078125
-68.66455078125
-67.7490234375
-67.7490234375
-57.67822265625
-51.26953125
-59.50927734375
-63.17138671875
-54.931640625
-56.7626953125
-65.91796875
-60.4248046875
-43.9453125
-51.26953125
-65.91796875
-53.1005859375
-27.4658203125
-25.634765625
-32.04345703125
-34.7900390625
-42.1142578125
-50.35400390625
-45.7763671875
-48.52294921875
-48.52294921875
-46.69189453125
-43.9453125
-54.931640625
-49.4384765625
-50.35400390625
-48.52294921875
-54.931640625
-56.7626953125
-62.255859375
-65.91796875
-57.67822265625
-58.59375
-71.4111328125
-65.91796875
-54.01611328125
-61.34033203125
-65.00244140625
-68.66455078125
-69.580078125
-72.32666015625
-74.15771484375
-79.65087890625
-78.7353515625
-77.81982421875
-73.2421875
-67.7490234375
-61.34033203125
-68.66455078125
-79.65087890625
-84.228515625
-79.65087890625
-86.0595703125
-84.228515625
-80.56640625
-77.81982421875
-79.65087890625
-79.65087890625
-75.0732421875
-71.4111328125
-75.0732421875
-75.98876953125
-72.32666015625
-70.49560546875
-67.7490234375
-57.67822265625
-66.83349609375
-60.4248046875
-61.34033203125
-61.34033203125
-64.0869140625
-61.34033203125
-54.01611328125
-56.7626953125
-66.83349609375
-67.7490234375
-56.7626953125
-57.67822265625
-65.00244140625
-59.50927734375
-55.84716796875
-60.4248046875
-60.4248046875
-60.4248046875
-59.50927734375
-59.50927734375
-62.255859375
-61.34033203125
-58.59375
-64.0869140625
-75.98876953125
-75.0732421875
-75.98876953125
-78.7353515625
-75.98876953125
-71.4111328125
-71.4111328125
-78.7353515625
-79.65087890625
-90.63720703125
-94.29931640625
-84.228515625
-97.96142578125
-101.62353515625
-77.81982421875
-64.0869140625
-68.66455078125
-77.81982421875
-53.1005859375
-55.84716796875
-66.83349609375
-67.7490234375
-55.84716796875
-58.59375
-55.84716796875
-65.91796875
-62.255859375
-69.580078125
-86.0595703125
-47.607421875
-55.84716796875
-55.84716796875
-55.84716796875
-47.607421875
-37.53662109375
-48.52294921875
-32.04345703125
-8.23974609375
1.8310546875
2.74658203125
6.40869140625
9.1552734375
7.32421875
15.56396484375
16.4794921875
1.8310546875
6.40869140625
7.32421875
10.07080078125
13.73291015625
13.73291015625
6.40869140625
-15.56396484375
-23.8037109375
-26.55029296875
-37.53662109375
-43.02978515625
-45.7763671875
-42.1142578125
-48.52294921875
-54.01611328125
-67.7490234375
-65.91796875
-64.0869140625
-67.7490234375
-80.56640625
-88.80615234375
-89.7216796875
-91.552734375
-93.3837890625
-97.0458984375
-89.7216796875
-86.0595703125
-79.65087890625
-88.80615234375
-89.7216796875
-85.14404296875
-76.904296875
-88.80615234375
-100.7080078125
-86.0595703125
-82.3974609375
-92.46826171875
-86.97509765625
-89.7216796875
-86.97509765625
-92.46826171875
-96.13037109375
-102.5390625
-114.44091796875
-97.96142578125
-93.3837890625
-96.13037109375
-94.29931640625
-92.46826171875
-94.29931640625
-94.29931640625
-89.7216796875
-95.21484375
-117.1875
-118.10302734375
-125.42724609375
-119.0185546875
-101.62353515625
-67.7490234375
-10.986328125
50.35400390625
151.06201171875
255.43212890625
394.59228515625
529.1748046875
642.7001953125
737.9150390625
852.35595703125
990.6005859375
1141.66259765625
1231.38427734375
1231.38427734375
1147.15576171875
906.3720703125
552.978515625
281.06689453125
29.296875
-80.56640625
-79.65087890625
-51.26953125
-46.69189453125
-35.70556640625
-6.40869140625
11.90185546875
12.8173828125
3.662109375
1.8310546875
-10.07080078125
-31.1279296875
-41.19873046875
-38.4521484375
-32.958984375
-49.4384765625
-54.01611328125
-32.958984375
-23.8037109375
-36.62109375
-46.69189453125
-50.35400390625
-47.607421875
-57.67822265625
-54.931640625
-47.607421875
-47.607421875
-54.01611328125
-46.69189453125
-32.958984375
-41.19873046875
-42.1142578125
-46.69189453125
-35.70556640625
-36.62109375
-41.19873046875
-45.7763671875
-41.19873046875
-43.9453125
-46.69189453125
-53.1005859375
-44.86083984375
-35.70556640625
-37.53662109375
-42.1142578125
-38.4521484375
-43.9453125
-50.35400390625
-43.02978515625
-41.19873046875
-41.19873046875
-41.19873046875
-55.84716796875
-55.84716796875
-47.607421875
-40.283203125
-39.36767578125
-38.4521484375
-31.1279296875
-31.1279296875
-31.1279296875
-36.62109375
-31.1279296875
-29.296875
-30.21240234375
-22.88818359375
-12.8173828125
-14.6484375
-24.71923828125
-10.986328125
-18.310546875
-21.97265625
-9.1552734375
-3.662109375
-0.91552734375
-3.662109375
-12.8173828125
-15.56396484375
-5.4931640625
-0.91552734375
2.74658203125
-0.91552734375
-10.986328125
4.57763671875
17.39501953125
13.73291015625
21.05712890625
21.05712890625
15.56396484375
9.1552734375
17.39501953125
30.21240234375
35.70556640625
30.21240234375
36.62109375
37.53662109375
48.52294921875
65.00244140625
64.0869140625
64.0869140625
51.26953125
49.4384765625
62.255859375
65.00244140625
64.0869140625
70.49560546875
82.3974609375
75.98876953125
67.7490234375
69.580078125
75.98876953125
75.98876953125
67.7490234375
65.00244140625
71.4111328125
71.4111328125
78.7353515625
91.552734375
91.552734375
97.0458984375
91.552734375
96.13037109375
100.7080078125
97.96142578125
101.62353515625
98.876953125
90.63720703125
85.14404296875
82.3974609375
78.7353515625
75.98876953125
74.15771484375
70.49560546875
63.17138671875
59.50927734375
45.7763671875
47.607421875
39.36767578125
43.02978515625
32.04345703125
21.97265625
22.88818359375
16.4794921875
6.40869140625
1.8310546875
-13.73291015625
-28.38134765625
-38.4521484375
-44.86083984375
-36.62109375
-38.4521484375
-35.70556640625
-33.87451171875
-41.19873046875
-38.4521484375
-46.69189453125
-53.1005859375
-45.7763671875
-47.607421875
-47.607421875
-48.52294921875
-50.35400390625
-54.931640625
-59.50927734375
-65.91796875
-68.66455078125
-57.67822265625
-51.26953125
-65.91796875
-65.00244140625
-71.4111328125
-72.32666015625
-77.81982421875
-65.91796875
-60.4248046875
-54.01611328125
-48.52294921875
-41.19873046875
-38.4521484375
-40.283203125
-32.04345703125
-34.7900390625
-22.88818359375
-35.70556640625
-38.4521484375
-37.53662109375
-43.9453125
-42.1142578125
-39.36767578125
-44.86083984375
-43.9453125
-41.19873046875
-46.69189453125
-43.9453125
-43.9453125
-40.283203125
-59.50927734375
-59.50927734375
-47.607421875
-52.18505859375
-52.18505859375
-41.19873046875
-38.4521484375
-45.7763671875
-42.1142578125
-40.283203125
-53.1005859375
-49.4384765625
-48.52294921875
-44.86083984375
-45.7763671875
-57.67822265625
-45.7763671875
-39.36767578125
-46.69189453125
-46.69189453125
-52.18505859375
-40.283203125
-29.296875
-54.01611328125
-43.9453125
-47.607421875
-41.19873046875
-40.283203125
-34.7900390625
-46.69189453125
-47.607421875
-42.1142578125
-43.9453125
-50.35400390625
-48.52294921875
-59.50927734375
-58.59375
-58.59375
-50.35400390625
-43.9453125
-56.7626953125
-63.17138671875
-75.98876953125
-74.15771484375
-43.9453125
-54.01611328125
-87.890625
-59.50927734375
-74.15771484375
-85.14404296875
-63.17138671875
-57.67822265625
-61.34033203125
-60.4248046875
-65.91796875
-65.91796875
-70.49560546875
-77.81982421875
-65.91796875
-77.81982421875
-63.17138671875
-63.17138671875
-57.67822265625
-65.91796875
-73.2421875
-53.1005859375
-74.15771484375
-74.15771484375
-53.1005859375
-85.14404296875
-67.7490234375
-97.96142578125
-79.65087890625
-68.66455078125
-69.580078125
-92.46826171875
-75.0732421875
-71.4111328125
-81.48193359375
-88.80615234375
-67.7490234375
-68.66455078125
-52.18505859375
-79.65087890625
-70.49560546875
-80.56640625
-82.3974609375
-65.00244140625
-64.0869140625
-84.228515625
-74.15771484375
-64.0869140625
-67.7490234375
-72.32666015625
-59.50927734375
-82.3974609375
-98.876953125
-79.65087890625
-68.66455078125
-82.3974609375
-68.66455078125
-72.32666015625
-80.56640625
-76.904296875
-73.2421875
-87.890625
-78.7353515625
-75.0732421875
-87.890625
-91.552734375
-67.7490234375
-39.36767578125
-74.15771484375
-45.7763671875
-45.7763671875
-78.7353515625
-78.7353515625
-65.91796875
-52.18505859375
-50.35400390625
-42.1142578125
-42.1142578125
-35.70556640625
-43.02978515625
-44.86083984375
-57.67822265625
-32.04345703125
0.91552734375
-24.71923828125
-8.23974609375
21.97265625
21.05712890625
13.73291015625
9.1552734375
14.6484375
-0.91552734375
4.57763671875
-8.23974609375
-5.4931640625
-21.05712890625
-10.986328125
-19.22607421875
-18.310546875
-28.38134765625
-46.69189453125
-56.7626953125
-54.931640625
-60.4248046875
-60.4248046875
-50.35400390625
-61.34033203125
-75.98876953125
-71.4111328125
-84.228515625
-85.14404296875
-90.63720703125
-86.97509765625
-91.552734375
-92.46826171875
-106.201171875
-88.80615234375
-76.904296875
-97.96142578125
-95.21484375
-108.0322265625
-73.2421875
-94.29931640625
-95.21484375
-101.62353515625
-98.876953125
-107.11669921875
-112.60986328125
-86.97509765625
-93.3837890625
-90.63720703125
-79.65087890625
-79.65087890625
-85.14404296875
-71.4111328125
-79.65087890625
-101.62353515625
-91.552734375
-86.0595703125
-114.44091796875
-102.5390625
-103.45458984375
-112.60986328125
-115.3564453125
-116.27197265625
-144.6533203125
-127.25830078125
-108.94775390625
-75.98876953125
-10.07080078125
46.69189453125
178.52783203125
323.18115234375
469.66552734375
579.52880859375
677.490234375
802.91748046875
906.3720703125
1071.1669921875
1194.76318359375
1270.751953125
1224.06005859375
1081.23779296875
804.74853515625
482.48291015625
194.091796875
-45.7763671875
-85.14404296875
-60.4248046875
-61.34033203125
-65.91796875
-42.1142578125
-4.57763671875
21.97265625
11.90185546875
16.4794921875
3.662109375
-9.1552734375
-12.8173828125
0
-27.4658203125
-23.8037109375
-25.634765625
-33.87451171875
-61.34033203125
-57.67822265625
-51.26953125
-43.9453125
-54.931640625
-38.4521484375
-63.17138671875
-56.7626953125
-54.01611328125
-35.70556640625
-61.34033203125
-46.69189453125
-56.7626953125
-44.86083984375
-29.296875
-40.283203125
-67.7490234375
-29.296875
-39.36767578125
-23.8037109375
-28.38134765625
-11.90185546875
-43.9453125
-62.255859375
-17.39501953125
-21.05712890625
-32.958984375
-38.4521484375
-41.19873046875
-52.18505859375
-38.4521484375
-32.04345703125
-11.90185546875
-23.8037109375
-57.67822265625
-71.4111328125
-60.4248046875
-36.62109375
-36.62109375
-44.86083984375
-37.53662109375
-32.04345703125
-22.88818359375
-23.8037109375
-18.310546875
-17.39501953125
2.74658203125
-39.36767578125
-19.22607421875
-10.986328125
6.40869140625
14.6484375
-20.1416015625
-24.71923828125
28.38134765625
20.1416015625
-43.02978515625
-17.39501953125
-20.1416015625
-17.39501953125
-11.90185546875
10.986328125
20.1416015625
18.310546875
47.607421875
23.8037109375
19.22607421875
27.4658203125
8.23974609375
34.7900390625
45.7763671875
37.53662109375
7.32421875
-8.23974609375
14.6484375
22.88818359375
38.4521484375
43.02978515625
39.36767578125
50.35400390625
41.19873046875
25.634765625
58.59375
75.98876953125
41.19873046875
31.1279296875
56.7626953125
51.26953125
54.931640625
53.1005859375
104.3701171875
85.14404296875
99.79248046875
92.46826171875
113.525390625
53.1005859375
53.1005859375
65.91796875
88.80615234375
88.80615234375
80.56640625
74.15771484375
109.86328125
117.1875
88.80615234375
86.0595703125
129.08935546875
109.86328125
81.48193359375
75.0732421875
73.2421875
64.0869140625
73.2421875
57.67822265625
77.81982421875
65.00244140625
46.69189453125
55.84716796875
46.69189453125
7.32421875
-2.74658203125
21.97265625
24.71923828125
24.71923828125
44.86083984375
-0.91552734375
-12.8173828125
-14.6484375
-2.74658203125
-19.22607421875
-49.4384765625
-53.1005859375
-50.35400390625
-20.1416015625
-16.4794921875
-39.36767578125
-46.69189453125
-51.26953125
-31.1279296875
-30.21240234375
-57.67822265625
-75.0732421875
-65.91796875
-43.02978515625
-52.18505859375
-45.7763671875
-58.59375
-47.607421875
-55.84716796875
-47.607421875
-75.0732421875
-77.81982421875
-57.67822265625
-58.59375
-50.35400390625
-31.1279296875
-66.83349609375
-75.98876953125
-102.5390625
-78.7353515625
-38.4521484375
-38.4521484375
-34.7900390625
-47.607421875
-45.7763671875
-61.34033203125
-51.26953125
-32.04345703125
-54.01611328125
-50.35400390625
-51.26953125
-48.52294921875
-47.607421875
-35.70556640625
-61.34033203125
-63.17138671875
-64.0869140625
-49.4384765625
-40.283203125
-54.931640625
-65.00244140625
-20.1416015625
-45.7763671875
-36.62109375
-24.71923828125
-51.26953125
-38.4521484375
-35.70556640625
-24.71923828125
-55.84716796875
-45.7763671875
-40.283203125
-45.7763671875
-61.34033203125
-50.35400390625
-33.87451171875
-42.1142578125
-31.1279296875
-46.69189453125
-54.931640625
-43.9453125
-54.01611328125
-52.18505859375
-51.26953125
-49.4384765625
-59.50927734375
-40.283203125
-43.9453125
-64.0869140625
-65.91796875
-63.17138671875
-76.904296875
-59.50927734375
-82.3974609375
-54.931640625
-56.7626953125
-48.52294921875
-55.84716796875
-52.18505859375
-46.69189453125
-47.607421875
-60.4248046875
-97.96142578125
-77.81982421875
-70.49560546875
-65.91796875
-65.91796875
-82.3974609375
-75.98876953125
-83.31298828125
-68.66455078125
-43.9453125
-59.50927734375
-45.7763671875
-66.83349609375
-72.32666015625
-46.69189453125
-54.931640625
-98.876953125
-86.0595703125
-62.255859375
-65.00244140625
-66.83349609375
-51.26953125
-28.38134765625
-80.56640625
-91.552734375
-89.7216796875
-84.228515625
-112.60986328125
-53.1005859375
-39.36767578125
-82.3974609375
-84.228515625
-73.2421875
-79.65087890625
-75.0732421875
-74.15771484375
-86.0595703125
-85.14404296875
-78.7353515625
-48.52294921875
-34.7900390625
-8.23974609375
-65.00244140625
-71.4111328125
-71.4111328125
-92.46826171875
-81.48193359375
-74.15771484375
-77.81982421875
-83.31298828125
-52.18505859375
-62.255859375
-68.66455078125
-64.0869140625
-55.84716796875
-53.1005859375
-76.904296875
-65.91796875
-32.04345703125
-13.73291015625
-18.310546875
-3.662109375
-29.296875
-38.4521484375
-19.22607421875
-1.8310546875
-22.88818359375
-24.71923828125
-3.662109375
5.4931640625
27.4658203125
9.1552734375
-0.91552734375
0
17.39501953125
-0.91552734375
-2.74658203125
4.57763671875
-29.296875
-76.904296875
-73.2421875
-50.35400390625
-46.69189453125
-25.634765625
-40.283203125
-61.34033203125
-44.86083984375
-58.59375
-63.17138671875
-70.49560546875
-68.66455078125
-70.49560546875
-82.3974609375
-77.81982421875
-83.31298828125
-63.17138671875
-82.3974609375
-96.13037109375
-63.17138671875
-54.931640625
-75.98876953125
-80.56640625
-84.228515625
-97.0458984375
-97.0458984375
-111.6943359375
-94.29931640625
-85.14404296875
-86.0595703125
-52.18505859375
-66.83349609375
-91.552734375
-75.98876953125
-54.931640625
-55.84716796875
-33.87451171875
-64.0869140625
-89.7216796875
-85.14404296875
-65.91796875
-68.66455078125
-60.4248046875
-62.255859375
-86.97509765625
-62.255859375
-63.17138671875
-84.228515625
-114.44091796875
-105.28564453125
-65.91796875
-50.35400390625
22.88818359375
119.93408203125
237.12158203125
361.63330078125
509.033203125
655.517578125
772.705078125
839.53857421875
937.5
1085.8154296875
1197.509765625
1222.22900390625
1159.0576171875
964.9658203125
658.26416015625
336.9140625
65.00244140625
-83.31298828125
-86.0595703125
-89.7216796875
-47.607421875
-40.283203125
-35.70556640625
-22.88818359375
22.88818359375
28.38134765625
2.74658203125
5.4931640625
-15.56396484375
-19.22607421875
-9.1552734375
-43.9453125
-50.35400390625
-38.4521484375
-42.1142578125
-25.634765625
-47.607421875
-52.18505859375
-45.7763671875
-54.931640625
-62.255859375
-93.3837890625
-63.17138671875
-61.34033203125
-50.35400390625
-57.67822265625
-49.4384765625
-44.86083984375
-70.49560546875
-99.79248046875
-52.18505859375
-30.21240234375
-32.958984375
-47.607421875
-53.1005859375
-40.283203125
-38.4521484375
-48.52294921875
-64.0869140625
-80.56640625
-74.15771484375
-72.32666015625
-75.0732421875
-80.56640625
-85.14404296875
-60.4248046875
-35.70556640625
-43.9453125
-32.958984375
-53.1005859375
-51.26953125
-47.607421875
-42.1142578125
-57.67822265625
-37.53662109375
-29.296875
-43.02978515625
-30.21240234375
-21.97265625
-36.62109375
-35.70556640625
-26.55029296875
-31.1279296875
-27.4658203125
-29.296875
-21.97265625
-30.21240234375
-45.7763671875
-33.87451171875
-23.8037109375
-28.38134765625
-22.88818359375
-17.39501953125
-16.4794921875
-8.23974609375
10.07080078125
21.05712890625
0
-13.73291015625
1.8310546875
12.8173828125
2.74658203125
-7.32421875
-17.39501953125
-9.1552734375
9.1552734375
18.310546875
17.39501953125
23.8037109375
28.38134765625
13.73291015625
20.1416015625
33.87451171875
31.1279296875
34.7900390625
43.9453125
43.9453125
43.9453125
42.1142578125
46.69189453125
55.84716796875
69.580078125
79.65087890625
72.32666015625
65.00244140625
58.59375
71.4111328125
80.56640625
72.32666015625
67.7490234375
67.7490234375
82.3974609375
98.876953125
109.86328125
97.96142578125
88.80615234375
84.228515625
85.14404296875
78.7353515625
91.552734375
86.97509765625
87.890625
95.21484375
92.46826171875
85.14404296875
86.97509765625
84.228515625
82.3974609375
64.0869140625
53.1005859375
51.26953125
35.70556640625
34.7900390625
32.04345703125
25.634765625
21.05712890625
20.1416015625
18.310546875
19.22607421875
10.07080078125
-2.74658203125
-18.310546875
-26.55029296875
-21.97265625
-10.986328125
-6.40869140625
-8.23974609375
-15.56396484375
-20.1416015625
-25.634765625
-37.53662109375
-32.04345703125
-18.310546875
-32.958984375
-41.19873046875
-40.283203125
-43.9453125
-50.35400390625
-47.607421875
-43.02978515625
-43.9453125
-47.607421875
-52.18505859375
-54.931640625
-64.0869140625
-56.7626953125
-59.50927734375
-55.84716796875
-62.255859375
-61.34033203125
-61.34033203125
-54.931640625
-39.36767578125
-37.53662109375
-53.1005859375
-54.01611328125
-54.931640625
-44.86083984375
-33.87451171875
-25.634765625
-26.55029296875
-20.1416015625
-18.310546875
-18.310546875
-11.90185546875
-7.32421875
-17.39501953125
-22.88818359375
-16.4794921875
-4.57763671875
-6.40869140625
-2.74658203125
-4.57763671875
-17.39501953125
-23.8037109375
-36.62109375
-21.97265625
-20.1416015625
-17.39501953125
-24.71923828125
-35.70556640625
-19.22607421875
-15.56396484375
-25.634765625
-26.55029296875
-13.73291015625
-17.39501953125
-21.05712890625
-20.1416015625
-13.73291015625
-21.97265625
-26.55029296875
-28.38134765625
-23.8037109375
-18.310546875
-17.39501953125
-12.8173828125
-21.97265625
-21.97265625
-16.4794921875
-21.05712890625
-20.1416015625
-21.97265625
-27.4658203125
-19.22607421875
-13.73291015625
-20.1416015625
-11.90185546875
-4.57763671875
-28.38134765625
-22.88818359375
-24.71923828125
-31.1279296875
-28.38134765625
-22.88818359375
-25.634765625
-14.6484375
-12.8173828125
-12.8173828125
-20.1416015625
-21.05712890625
-24.71923828125
-28.38134765625
-29.296875
-29.296875
-36.62109375
-38.4521484375
-43.02978515625
-32.04345703125
-32.958984375
-31.1279296875
-46.69189453125
-56.7626953125
-54.01611328125
-60.4248046875
-59.50927734375
-54.931640625
-47.607421875
-46.69189453125
-40.283203125
-51.26953125
-48.52294921875
-43.9453125
-42.1142578125
-43.02978515625
-46.69189453125
-49.4384765625
-46.69189453125
-62.255859375
-49.4384765625
-43.9453125
-50.35400390625
-51.26953125
-49.4384765625
-45.7763671875
-43.02978515625
-40.283203125
-46.69189453125
-46.69189453125
-47.607421875
-46.69189453125
-36.62109375
-31.1279296875
-29.296875
-26.55029296875
-15.56396484375
-24.71923828125
-27.4658203125
-17.39501953125
-14.6484375
-10.07080078125
-5.4931640625
-2.74658203125
14.6484375
22.88818359375
22.88818359375
27.4658203125
25.634765625
21.97265625
26.55029296875
17.39501953125
21.05712890625
11.90185546875
3.662109375
2.74658203125
7.32421875
-10.986328125
-21.97265625
-28.38134765625
-20.1416015625
-22.88818359375
-37.53662109375
-39.36767578125
-38.4521484375
-36.62109375
-77.81982421875
-84.228515625
-82.3974609375
-82.3974609375
-81.48193359375
-87.890625
-90.63720703125
-78.7353515625
-70.49560546875
-73.2421875
-72.32666015625
-75.98876953125
-80.56640625
-69.580078125
-66.83349609375
-81.48193359375
-86.97509765625
-75.98876953125
-77.81982421875
-78.7353515625
-65.00244140625
-70.49560546875
-84.228515625
-80.56640625
-87.890625
-87.890625
-90.63720703125
-84.228515625
-77.81982421875
-68.66455078125
-75.98876953125
-67.7490234375
-73.2421875
-80.56640625
-90.63720703125
-109.86328125
-118.10302734375
-124.51171875
-137.3291015625
-120.849609375
-80.56640625
-28.38134765625
47.607421875
144.6533203125
267.333984375
395.5078125
557.55615234375
668.3349609375
746.15478515625
836.7919921875
995.17822265625
1164.55078125
1241.455078125
1241.455078125
1138.916015625
909.11865234375
572.20458984375
296.630859375
58.59375
-58.59375
-61.34033203125
-45.7763671875
-14.6484375
-17.39501953125
7.32421875
31.1279296875
44.86083984375
38.4521484375
34.7900390625
32.04345703125
21.05712890625
7.32421875
-12.8173828125
-10.986328125
-1.8310546875
-20.1416015625
-24.71923828125
-22.88818359375
-41.19873046875
-39.36767578125
-25.634765625
-25.634765625
-29.296875
-36.62109375
-37.53662109375
-34.7900390625
-38.4521484375
-38.4521484375
-43.02978515625
-43.02978515625
-41.19873046875
-41.19873046875
-33.87451171875
-34.7900390625
-36.62109375
-43.9453125
-42.1142578125
-42.1142578125
-46.69189453125
-43.9453125
-45.7763671875
-48.52294921875
-43.02978515625
-23.8037109375
-26.55029296875
-52.18505859375
-53.1005859375
-43.02978515625
-32.04345703125
-32.04345703125
-30.21240234375
-26.55029296875
-19.22607421875
-5.4931640625
-0.91552734375
-4.57763671875
-28.38134765625
-21.05712890625
-21.05712890625
-21.05712890625
-19.22607421875
-6.40869140625
-2.74658203125
-8.23974609375
-20.1416015625
-19.22607421875
-19.22607421875
-11.90185546875
7.32421875
18.310546875
-0.91552734375
-1.8310546875
6.40869140625
19.22607421875
11.90185546875
7.32421875
15.56396484375
21.97265625
19.22607421875
25.634765625
21.97265625
13.73291015625
12.8173828125
19.22607421875
14.6484375
14.6484375
25.634765625
22.88818359375
30.21240234375
41.19873046875
32.04345703125
41.19873046875
51.26953125
49.4384765625
54.01611328125
56.7626953125
53.1005859375
43.02978515625
58.59375
65.00244140625
54.01611328125
57.67822265625
67.7490234375
65.91796875
71.4111328125
87.890625
73.2421875
84.228515625
93.3837890625
98.876953125
89.7216796875
89.7216796875
86.0595703125
77.81982421875
82.3974609375
86.97509765625
86.0595703125
100.7080078125
97.96142578125
100.7080078125
105.28564453125
99.79248046875
86.97509765625
86.0595703125
82.3974609375
80.56640625
79.65087890625
86.0595703125
83.31298828125
85.14404296875
83.31298828125
76.904296875
66.83349609375
66.83349609375
54.931640625
53.1005859375
41.19873046875
41.19873046875
36.62109375
19.22607421875
13.73291015625
11.90185546875
11.90185546875
8.23974609375
7.32421875
3.662109375
0
-3.662109375
-9.1552734375
-24.71923828125
-20.1416015625
-29.296875
-36.62109375
-32.958984375
-39.36767578125
-55.84716796875
-50.35400390625
-48.52294921875
-45.7763671875
-37.53662109375
-30.21240234375
-16.4794921875
-39.36767578125
-42.1142578125
-37.53662109375
-11.90185546875
-32.04345703125
-39.36767578125
-30.21240234375
-32.958984375
-37.53662109375
-34.7900390625
-35.70556640625
-47.607421875
-38.4521484375
-35.70556640625
-44.86083984375
-56.7626953125
-47.607421875
-42.1142578125
-38.4521484375
-35.70556640625
-32.958984375
-29.296875
-19.22607421875
-28.38134765625
-22.88818359375
-21.97265625
-28.38134765625
-15.56396484375
-18.310546875
-31.1279296875
-26.55029296875
-30.21240234375
-32.04345703125
-32.04345703125
-23.8037109375
-15.56396484375
-10.07080078125
-27.4658203125
-44.86083984375
-34.7900390625
-36.62109375
-33.87451171875
-20.1416015625
-34.7900390625
-22.88818359375
-11.90185546875
-23.8037109375
-32.958984375
-13.73291015625
-21.05712890625
-21.97265625
-21.05712890625
-30.21240234375
-35.70556640625
-26.55029296875
-33.87451171875
-29.296875
-24.71923828125
-19.22607421875
-21.97265625
-22.88818359375
-21.97265625
-31.1279296875
-27.4658203125
-27.4658203125
-45.7763671875
-42.1142578125
-24.71923828125
-0.91552734375
-11.90185546875
-16.4794921875
9.1552734375
-5.4931640625
-18.310546875
-48.52294921875
-50.35400390625
-44.86083984375
-43.02978515625
-32.958984375
-33.87451171875
-37.53662109375
-26.55029296875
-34.7900390625
-30.21240234375
-39.36767578125
-43.9453125
-36.62109375
-42.1142578125
-41.19873046875
-48.52294921875
-48.52294921875
-40.283203125
-36.62109375
-32.04345703125
-42.1142578125
-43.9453125
-43.9453125
-58.59375
-45.7763671875
-43.9453125
-35.70556640625
-23.8037109375
-20.1416015625
-44.86083984375
-27.4658203125
-19.22607421875
-11.90185546875
9.1552734375
1.8310546875
0.91552734375
26.55029296875
37.53662109375
22.88818359375
30.21240234375
46.69189453125
48.52294921875
49.4384765625
56.7626953125
51.26953125
47.607421875
43.02978515625
22.88818359375
28.38134765625
32.04345703125
21.05712890625
12.8173828125
21.05712890625
10.07080078125
3.662109375
2.74658203125
-12.8173828125
-32.958984375
-21.97265625
-35.70556640625
-32.958984375
-25.634765625
-60.4248046875
-35.70556640625
-36.62109375
-53.1005859375
-60.4248046875
-44.86083984375
-55.84716796875
-44.86083984375
-54.01611328125
-44.86083984375
-42.1142578125
-72.32666015625
-57.67822265625
-45.7763671875
-75.98876953125
-59.50927734375
-37.53662109375
-75.0732421875
-64.0869140625
-48.52294921875
-48.52294921875
-65.00244140625
-51.26953125
-41.19873046875
-44.86083984375
-75.0732421875
-64.0869140625
-79.65087890625
-82.3974609375
-78.7353515625
-70.49560546875
-69.580078125
-52.18505859375
-69.580078125
-75.98876953125
-75.0732421875
-85.14404296875
-103.45458984375
-134.58251953125
-112.60986328125
-78.7353515625
-51.26953125
15.56396484375
68.66455078125
189.51416015625
305.7861328125
443.115234375
559.38720703125
699.462890625
793.76220703125
874.32861328125
1013.48876953125
1145.32470703125
1201.171875
1197.509765625
1102.294921875
844.1162109375
539.24560546875
254.5166015625
10.986328125
-94.29931640625
-85.14404296875
-69.580078125
-29.296875
-53.1005859375
-37.53662109375
-1.8310546875
26.55029296875
16.4794921875
9.1552734375
9.1552734375
-2.74658203125
-20.1416015625
-10.986328125
3.662109375
-8.23974609375
-41.19873046875
-25.634765625
-19.22607421875
-14.6484375
-23.8037109375
-26.55029296875
-23.8037109375
-37.53662109375
-27.4658203125
-28.38134765625
-54.01611328125
-41.19873046875
-34.7900390625
-29.296875
-32.04345703125
-12.8173828125
-13.73291015625
-39.36767578125
-35.70556640625
-46.69189453125
-34.7900390625
-42.1142578125
-46.69189453125
-47.607421875
-43.02978515625
-35.70556640625
-37.53662109375
-40.283203125
-23.8037109375
-42.1142578125
-25.634765625
-19.22607421875
-21.97265625
-32.958984375
-35.70556640625
-2.74658203125
-13.73291015625
-20.1416015625
-14.6484375
-1.8310546875
-26.55029296875
-22.88818359375
-25.634765625
-12.8173828125
-8.23974609375
-13.73291015625
-15.56396484375
-19.22607421875
-10.986328125
-11.90185546875
1.8310546875
-3.662109375
-19.22607421875
-16.4794921875
-4.57763671875
-4.57763671875
-10.07080078125
0.91552734375
14.6484375
11.90185546875
7.32421875
5.4931640625
19.22607421875
16.4794921875
18.310546875
17.39501953125
6.40869140625
19.22607421875
37.53662109375
13.73291015625
-7.32421875
21.05712890625
16.4794921875
10.07080078125
28.38134765625
41.19873046875
46.69189453125
43.02978515625
39.36767578125
54.931640625
37.53662109375
47.607421875
43.02978515625
57.67822265625
65.00244140625
61.34033203125
64.0869140625
66.83349609375
64.0869140625
75.98876953125
54.01611328125
53.1005859375
37.53662109375
60.4248046875
75.0732421875
74.15771484375
58.59375
75.98876953125
91.552734375
89.7216796875
80.56640625
65.91796875
77.81982421875
86.0595703125
90.63720703125
85.14404296875
76.904296875
86.97509765625
91.552734375
84.228515625
66.83349609375
64.0869140625
65.91796875
59.50927734375
38.4521484375
64.0869140625
71.4111328125
78.7353515625
32.04345703125
16.4794921875
18.310546875
-6.40869140625
21.05712890625
17.39501953125
-2.74658203125
-9.1552734375
-6.40869140625
8.23974609375
-6.40869140625
-8.23974609375
-20.1416015625
-16.4794921875
-36.62109375
-32.04345703125
-21.05712890625
-25.634765625
-14.6484375
-20.1416015625
-34.7900390625
-32.04345703125
-17.39501953125
-32.958984375
-42.1142578125
-32.04345703125
-45.7763671875
-49.4384765625
-32.958984375
-9.1552734375
-31.1279296875
-55.84716796875
-38.4521484375
-46.69189453125
-46.69189453125
-40.283203125
-35.70556640625
-30.21240234375
-45.7763671875
-53.1005859375
-40.283203125
-8.23974609375
-1.8310546875
-41.19873046875
-47.607421875
-52.18505859375
-65.91796875
-45.7763671875
-41.19873046875
-58.59375
-54.931640625
-30.21240234375
-30.21240234375
-48.52294921875
-52.18505859375
-54.931640625
-34.7900390625
-30.21240234375
-19.22607421875
-21.05712890625
-42.1142578125
-40.283203125
-48.52294921875
-42.1142578125
-33.87451171875
-46.69189453125
-36.62109375
-38.4521484375
-29.296875
-20.1416015625
-41.19873046875
-39.36767578125
-32.04345703125
-32.958984375
-40.283203125
-38.4521484375
-23.8037109375
-30.21240234375
-36.62109375
-29.296875
-35.70556640625
-32.958984375
-60.4248046875
-61.34033203125
-35.70556640625
-29.296875
-36.62109375
-23.8037109375
-58.59375
-38.4521484375
-25.634765625
-34.7900390625
-43.9453125
-45.7763671875
-49.4384765625
-43.9453125
-42.1142578125
-44.86083984375
-46.69189453125
-42.1142578125
-45.7763671875
-61.34033203125
-47.607421875
-37.53662109375
-60.4248046875
-61.34033203125
-65.00244140625
-54.931640625
-62.255859375
-43.9453125
-51.26953125
-65.91796875
-72.32666015625
-70.49560546875
-54.01611328125
-65.91796875
-55.84716796875
-35.70556640625
-68.66455078125
-80.56640625
-65.00244140625
-45.7763671875
-74.15771484375
-61.34033203125
-79.65087890625
-65.00244140625
-48.52294921875
-65.91796875
-39.36767578125
-32.958984375
-3.662109375
-25.634765625
-41.19873046875
-45.7763671875
-27.4658203125
-17.39501953125
15.56396484375
12.8173828125
-7.32421875
0.91552734375
-12.8173828125
0.91552734375
14.6484375
-17.39501953125
-6.40869140625
-1.8310546875
-3.662109375
0.91552734375
1.8310546875
-21.97265625
-27.4658203125
-21.97265625
-40.283203125
-35.70556640625
-27.4658203125
-48.52294921875
-80.56640625
-70.49560546875
-62.255859375
-75.0732421875
-80.56640625
-86.0595703125
-106.201171875
-90.63720703125
-65.91796875
-109.86328125
-98.876953125
-75.98876953125
-98.876953125
-97.0458984375
-90.63720703125
-89.7216796875
-98.876953125
-109.86328125
-81.48193359375
-78.7353515625
-63.17138671875
-71.4111328125
-94.29931640625
-78.7353515625
-79.65087890625
-106.201171875
-94.29931640625
-108.0322265625
-97.0458984375
-76.904296875
-101.62353515625
-95.21484375
-86.0595703125
-93.3837890625
-100.7080078125
-110.77880859375
-108.0322265625
-97.96142578125
-79.65087890625
-88.80615234375
-119.0185546875
-132.75146484375
-134.58251953125
-123.59619140625
-110.77880859375
-61.34033203125
1.8310546875
75.0732421875
210.5712890625
323.18115234375
446.77734375
590.51513671875
701.2939453125
793.76220703125
888.0615234375
1011.65771484375
1096.8017578125
1135.25390625
1122.4365234375
975.9521484375
681.15234375
372.61962890625
106.201171875
-81.48193359375
-113.525390625
-107.11669921875
-86.0595703125
-54.931640625
-50.35400390625
-38.4521484375
-11.90185546875
-21.05712890625
1.8310546875
-14.6484375
-10.07080078125
-13.73291015625
-29.296875
-36.62109375
-35.70556640625
-49.4384765625
-64.0869140625
-45.7763671875
-43.9453125
-32.958984375
-37.53662109375
-57.67822265625
-64.0869140625
-53.1005859375
-66.83349609375
-57.67822265625
-66.83349609375
-46.69189453125
-48.52294921875
-51.26953125
-49.4384765625
-57.67822265625
-62.255859375
-42.1142578125
-52.18505859375
-51.26953125
-66.83349609375
-43.02978515625
-60.4248046875
-53.1005859375
-46.69189453125
-59.50927734375
-44.86083984375
-27.4658203125
-35.70556640625
-42.1142578125
-31.1279296875
-61.34033203125
-45.7763671875
-62.255859375
-34.7900390625
-38.4521484375
-50.35400390625
-37.53662109375
-46.69189453125
-33.87451171875
-30.21240234375
-17.39501953125
-18.310546875
-24.71923828125
-3.662109375
-10.986328125
-26.55029296875
-14.6484375
-44.86083984375
-32.958984375
-33.87451171875
-21.05712890625
-10.986328125
-1.8310546875
-9.1552734375
-40.283203125
-27.4658203125
-19.22607421875
-10.07080078125
-6.40869140625
-3.662109375
14.6484375
28.38134765625
2.74658203125
-17.39501953125
-4.57763671875
-19.22607421875
0
21.05712890625
7.32421875
-14.6484375
4.57763671875
-6.40869140625
6.40869140625
23.8037109375
35.70556640625
45.7763671875
56.7626953125
36.62109375
31.1279296875
36.62109375
47.607421875
43.02978515625
32.04345703125
65.00244140625
65.00244140625
55.84716796875
71.4111328125
55.84716796875
48.52294921875
47.607421875
56.7626953125
79.65087890625
74.15771484375
90.63720703125
74.15771484375
76.904296875
65.00244140625
63.17138671875
79.65087890625
73.2421875
70.49560546875
91.552734375
63.17138671875
75.98876953125
73.2421875
71.4111328125
75.0732421875
96.13037109375
98.876953125
59.50927734375
79.65087890625
61.34033203125
59.50927734375
63.17138671875
45.7763671875
38.4521484375
43.9453125
31.1279296875
26.55029296875
2.74658203125
3.662109375
-9.1552734375
-2.74658203125
-0.91552734375
-4.57763671875
-14.6484375
-11.90185546875
-31.1279296875
-17.39501953125
-28.38134765625
-32.958984375
-21.05712890625
-35.70556640625
-21.97265625
-28.38134765625
-46.69189453125
-46.69189453125
-28.38134765625
-37.53662109375
-54.931640625
-52.18505859375
-25.634765625
-35.70556640625
-47.607421875
-59.50927734375
-55.84716796875
-75.0732421875
-53.1005859375
-36.62109375
-46.69189453125
-53.1005859375
-52.18505859375
-77.81982421875
-86.0595703125
-66.83349609375
-49.4384765625
-58.59375
-51.26953125
-40.283203125
-37.53662109375
-30.21240234375
-40.283203125
-47.607421875
-51.26953125
-45.7763671875
-65.00244140625
-48.52294921875
-38.4521484375
-37.53662109375
-47.607421875
-70.49560546875
-78.7353515625
-49.4384765625
-44.86083984375
-50.35400390625
-28.38134765625
-40.283203125
-49.4384765625
-54.01611328125
-45.7763671875
-40.283203125
-51.26953125
-37.53662109375
-51.26953125
-56.7626953125
-46.69189453125
-55.84716796875
-69.580078125
-54.931640625
-40.283203125
-52.18505859375
-60.4248046875
-27.4658203125
-44.86083984375
-63.17138671875
-40.283203125
-30.21240234375
-46.69189453125
-58.59375
-49.4384765625
-63.17138671875
-51.26953125
-40.283203125
-75.0732421875
-76.904296875
-57.67822265625
-51.26953125
-42.1142578125
-35.70556640625
-38.4521484375
-52.18505859375
-62.255859375
-76.904296875
-73.2421875
-63.17138671875
-61.34033203125
-65.91796875
-70.49560546875
-52.18505859375
-63.17138671875
-78.7353515625
-91.552734375
-72.32666015625
-65.91796875
-75.0732421875
-79.65087890625
-87.890625
-88.80615234375
-79.65087890625
-61.34033203125
-45.7763671875
-76.904296875
-99.79248046875
-79.65087890625
-71.4111328125
-101.62353515625
-75.0732421875
-46.69189453125
-46.69189453125
-39.36767578125
-24.71923828125
-67.7490234375
-33.87451171875
-46.69189453125
-55.84716796875
-32.958984375
-32.958984375
-17.39501953125
-8.23974609375
-18.310546875
-28.38134765625
-10.986328125
9.1552734375
-16.4794921875
-11.90185546875
-36.62109375
-9.1552734375
-10.986328125
-19.22607421875
-6.40869140625
6.40869140625
-34.7900390625
-53.1005859375
-60.4248046875
-56.7626953125
-54.01611328125
-82.3974609375
-64.0869140625
-96.13037109375
-106.201171875
-115.3564453125
-122.6806640625
-124.51171875
-114.44091796875
-108.0322265625
-125.42724609375
-119.93408203125
-119.0185546875
-96.13037109375
-124.51171875
-108.0322265625
-101.62353515625
-124.51171875
-101.62353515625
-105.28564453125
-111.6943359375
-134.58251953125
-126.3427734375
-133.6669921875
-111.6943359375
-101.62353515625
-118.10302734375
-117.1875
-108.94775390625
-95.21484375
-113.525390625
-128.173828125
-121.76513671875
-117.1875
-96.13037109375
-110.77880859375
-108.0322265625
-108.94775390625
-100.7080078125
-115.3564453125
-134.58251953125
-165.71044921875
-151.06201171875
-168.45703125
-150.146484375
-114.44091796875
-86.0595703125
-28.38134765625
39.36767578125
143.73779296875
231.62841796875
343.32275390625
498.046875
622.55859375
709.53369140625
794.677734375
933.837890625
1061.09619140625
1144.4091796875
1138.916015625
1006.16455078125
760.80322265625
447.69287109375
163.87939453125
-36.62109375
-152.89306640625
-147.39990234375
-117.1875
-78.7353515625
-93.3837890625
-95.21484375
-42.1142578125
-18.310546875
-29.296875
-31.1279296875
-51.26953125
-49.4384765625
-64.0869140625
-63.17138671875
-47.607421875
-32.04345703125
-57.67822265625
-74.15771484375
-76.904296875
-89.7216796875
-87.890625
-92.46826171875
-87.890625
-74.15771484375
-62.255859375
-52.18505859375
-65.91796875
-85.14404296875
-78.7353515625
-77.81982421875
-91.552734375
-85.14404296875
-66.83349609375
-73.2421875
-84.228515625
-75.0732421875
-78.7353515625
-68.66455078125
-67.7490234375
-88.80615234375
-82.3974609375
-76.904296875
-75.0732421875
-65.91796875
-36.62109375
-40.283203125
-69.580078125
-55.84716796875
-87.890625
-71.4111328125
-73.2421875
-76.904296875
-49.4384765625
-49.4384765625
-65.00244140625
-57.67822265625
-52.18505859375
-38.4521484375
-46.69189453125
-65.91796875
-64.0869140625
-73.2421875
-43.02978515625
-38.4521484375
-50.35400390625
-58.59375
-79.65087890625
-46.69189453125
-30.21240234375
-34.7900390625
-45.7763671875
-37.53662109375
-42.1142578125
-46.69189453125
-47.607421875
-17.39501953125
-21.05712890625
-34.7900390625
-38.4521484375
-32.04345703125
-32.04345703125
-10.07080078125
-10.07080078125
-3.662109375
-21.97265625
-34.7900390625
8.23974609375
1.8310546875
-12.8173828125
-8.23974609375
-8.23974609375
-13.73291015625
10.07080078125
26.55029296875
3.662109375
7.32421875
19.22607421875
11.90185546875
-6.40869140625
20.1416015625
40.283203125
27.4658203125
24.71923828125
21.97265625
44.86083984375
43.02978515625
53.1005859375
19.22607421875
46.69189453125
44.86083984375
22.88818359375
36.62109375
42.1142578125
40.283203125
54.931640625
33.87451171875
53.1005859375
64.0869140625
66.83349609375
45.7763671875
51.26953125
54.01611328125
56.7626953125
29.296875
40.283203125
27.4658203125
52.18505859375
62.255859375
43.9453125
23.8037109375
37.53662109375
27.4658203125
37.53662109375
31.1279296875
13.73291015625
-18.310546875
-10.07080078125
-29.296875
-45.7763671875
-31.1279296875
0
-37.53662109375
-36.62109375
-31.1279296875
-61.34033203125
-67.7490234375
-65.91796875
-87.890625
-77.81982421875
-57.67822265625
-51.26953125
-68.66455078125
-70.49560546875
-75.98876953125
-60.4248046875
-95.21484375
-88.80615234375
-76.904296875
-86.0595703125
-86.0595703125
-76.904296875
-77.81982421875
-75.0732421875
-72.32666015625
-80.56640625
-108.0322265625
-90.63720703125
-87.890625
-85.14404296875
-86.97509765625
-86.0595703125
-63.17138671875
-81.48193359375
-89.7216796875
-83.31298828125
-91.552734375
-73.2421875
-75.98876953125
-80.56640625
-85.14404296875
-85.14404296875
-75.98876953125
-73.2421875
-89.7216796875
-70.49560546875
-76.904296875
-80.56640625
-74.15771484375
-62.255859375
-54.931640625
-71.4111328125
-79.65087890625
-74.15771484375
-73.2421875
-72.32666015625
-65.91796875
-75.0732421875
-64.0869140625
-63.17138671875
-70.49560546875
-68.66455078125
-70.49560546875
-68.66455078125
-73.2421875
-68.66455078125
-66.83349609375
-75.98876953125
-61.34033203125
-78.7353515625
-67.7490234375
-70.49560546875
-71.4111328125
-64.0869140625
-63.17138671875
-74.15771484375
-64.0869140625
-47.607421875
-73.2421875
-80.56640625
-70.49560546875
-74.15771484375
-66.83349609375
-71.4111328125
-83.31298828125
-65.91796875
-71.4111328125
-70.49560546875
-60.4248046875
-68.66455078125
-75.98876953125
-73.2421875
-75.0732421875
-84.228515625
-91.552734375
-89.7216796875
-65.91796875
-80.56640625
-74.15771484375
-75.0732421875
-86.0595703125
-78.7353515625
-95.21484375
-86.97509765625
-88.80615234375
-93.3837890625
-90.63720703125
-85.14404296875
-87.890625
-86.0595703125
-91.552734375
-89.7216796875
-85.14404296875
-96.13037109375
-95.21484375
-101.62353515625
-97.96142578125
-81.48193359375
-95.21484375
-61.34033203125
-54.01611328125
-56.7626953125
-59.50927734375
-68.66455078125
-78.7353515625
-65.00244140625
-62.255859375
-35.70556640625
-41.19873046875
-28.38134765625
-8.23974609375
-13.73291015625
-22.88818359375
-18.310546875
-27.4658203125
-43.02978515625
-34.7900390625
-46.69189453125
-24.71923828125
-53.1005859375
-48.52294921875
-45.7763671875
-60.4248046875
-51.26953125
-46.69189453125
-76.904296875
-94.29931640625
-95.21484375
-107.11669921875
-94.29931640625
-110.77880859375
-106.201171875
-114.44091796875
-115.3564453125
-126.3427734375
-114.44091796875
-132.75146484375
-134.58251953125
-121.76513671875
-123.59619140625
-136.41357421875
-134.58251953125
-134.58251953125
-114.44091796875
-115.3564453125
-137.3291015625
-136.41357421875
-143.73779296875
-152.89306640625
-123.59619140625
-119.93408203125
-140.9912109375
-138.24462890625
-140.9912109375
-143.73779296875
-119.93408203125
-128.173828125
-108.0322265625
-109.86328125
-123.59619140625
-130.92041015625
-125.42724609375
-106.201171875
-123.59619140625
-125.42724609375
-138.24462890625
-144.6533203125
-148.3154296875
-155.6396484375
-152.89306640625
-161.1328125
-159.3017578125
-142.822265625
-89.7216796875
-44.86083984375
21.05712890625
151.06201171875
254.5166015625
368.95751953125
502.62451171875
599.67041015625
701.2939453125
783.69140625
919.189453125
1049.1943359375
1104.1259765625
1101.37939453125
986.9384765625
734.2529296875
415.6494140625
168.45703125
-55.84716796875
-145.56884765625
-130.0048828125
-108.0322265625
-113.525390625
-93.3837890625
-52.18505859375
-33.87451171875
-41.19873046875
-48.52294921875
-43.02978515625
-51.26953125
-59.50927734375
-59.50927734375
-67.7490234375
-67.7490234375
-87.890625
-89.7216796875
-85.14404296875
-88.80615234375
-83.31298828125
-82.3974609375
-72.32666015625
-108.0322265625
-110.77880859375
-70.49560546875
-88.80615234375
-88.80615234375
-72.32666015625
-106.201171875
-100.7080078125
-84.228515625
-86.0595703125
-87.890625
-97.0458984375
-103.45458984375
-95.21484375
-72.32666015625
-81.48193359375
-87.890625
-78.7353515625
-89.7216796875
-96.13037109375
-80.56640625
-81.48193359375
-85.14404296875
-80.56640625
-104.3701171875
-94.29931640625
-77.81982421875
-83.31298828125
-77.81982421875
-65.91796875
-38.4521484375
-85.14404296875
-89.7216796875
-76.904296875
-63.17138671875
-83.31298828125
-75.0732421875
-93.3837890625
-79.65087890625
-64.0869140625
-69.580078125
-76.904296875
-75.0732421875
-58.59375
-60.4248046875
-47.607421875
-55.84716796875
-50.35400390625
-46.69189453125
-68.66455078125
-39.36767578125
-56.7626953125
-69.580078125
-59.50927734375
-47.607421875
-32.04345703125
-27.4658203125
-32.958984375
-56.7626953125
-36.62109375
-32.958984375
-35.70556640625
-38.4521484375
-30.21240234375
-11.90185546875
-28.38134765625
-38.4521484375
-32.04345703125
-11.90185546875
9.1552734375
-9.1552734375
-11.90185546875
4.57763671875
-7.32421875
-3.662109375
-26.55029296875
-7.32421875
3.662109375
16.4794921875
21.97265625
8.23974609375
19.22607421875
15.56396484375
21.05712890625
15.56396484375
21.05712890625
17.39501953125
29.296875
39.36767578125
19.22607421875
26.55029296875
43.9453125
43.02978515625
29.296875
23.8037109375
28.38134765625
25.634765625
54.01611328125
65.00244140625
32.04345703125
21.05712890625
29.296875
34.7900390625
32.04345703125
12.8173828125
12.8173828125
29.296875
18.310546875
3.662109375
3.662109375
-14.6484375
4.57763671875
-8.23974609375
-39.36767578125
-38.4521484375
-30.21240234375
-37.53662109375
-44.86083984375
-51.26953125
-64.0869140625
-51.26953125
-64.0869140625
-86.97509765625
-72.32666015625
-67.7490234375
-65.00244140625
-75.98876953125
-84.228515625
-86.0595703125
-89.7216796875
-86.97509765625
-82.3974609375
-93.3837890625
-95.21484375
-77.81982421875
-91.552734375
-113.525390625
-112.60986328125
-98.876953125
-121.76513671875
-108.94775390625
-114.44091796875
-92.46826171875
-100.7080078125
-110.77880859375
-100.7080078125
-90.63720703125
-106.201171875
-95.21484375
-79.65087890625
-90.63720703125
-87.890625
-90.63720703125
-100.7080078125
-100.7080078125
-107.11669921875
-110.77880859375
-93.3837890625
-81.48193359375
-118.10302734375
-109.86328125
-98.876953125
-78.7353515625
-101.62353515625
-94.29931640625
-84.228515625
-104.3701171875
-86.97509765625
-93.3837890625
-87.890625
-71.4111328125
-61.34033203125
-97.96142578125
-93.3837890625
-76.904296875
-70.49560546875
-90.63720703125
-89.7216796875
-83.31298828125
-96.13037109375
-100.7080078125
-75.0732421875
-60.4248046875
-62.255859375
-93.3837890625
-85.14404296875
-95.21484375
-83.31298828125
-82.3974609375
-66.83349609375
-89.7216796875
-72.32666015625
-84.228515625
-75.98876953125
-83.31298828125
-84.228515625
-72.32666015625
-75.0732421875
-65.00244140625
-88.80615234375
-98.876953125
-80.56640625
-71.4111328125
-75.0732421875
-74.15771484375
-77.81982421875
-61.34033203125
-88.80615234375
-97.0458984375
-92.46826171875
-90.63720703125
-86.0595703125
-75.98876953125
-87.890625
-85.14404296875
-89.7216796875
-90.63720703125
-80.56640625
-101.62353515625
-108.94775390625
-83.31298828125
-83.31298828125
-94.29931640625
-107.11669921875
-89.7216796875
-87.890625
-97.0458984375
-79.65087890625
-91.552734375
-111.6943359375
-96.13037109375
-101.62353515625
-99.79248046875
-99.79248046875
-117.1875
-99.79248046875
-109.86328125
-104.3701171875
-97.0458984375
-107.11669921875
-99.79248046875
-105.28564453125
-115.3564453125
-102.5390625
-97.0458984375
-83.31298828125
-79.65087890625
-116.27197265625
-115.3564453125
-106.201171875
-109.86328125
-115.3564453125
-116.27197265625
-117.1875
-108.0322265625
-91.552734375
-93.3837890625
-92.46826171875
-118.10302734375
-104.3701171875
-71.4111328125
-53.1005859375
-60.4248046875
-65.91796875
-72.32666015625
-63.17138671875
-73.2421875
-75.0732421875
-32.958984375
-15.56396484375
-72.32666015625
-43.02978515625
-23.8037109375
-15.56396484375
-12.8173828125
-24.71923828125
-48.52294921875
-32.958984375
-40.283203125
-47.607421875
-32.958984375
-32.958984375
-45.7763671875
-50.35400390625
-54.01611328125
-63.17138671875
-85.14404296875
-88.80615234375
-63.17138671875
-85.14404296875
-99.79248046875
-94.29931640625
-111.6943359375
-123.59619140625
-130.92041015625
-122.6806640625
-117.1875
-121.76513671875
-136.41357421875
-135.498046875
-136.41357421875
-124.51171875
-142.822265625
-140.07568359375
-149.23095703125
-135.498046875
-132.75146484375
-130.0048828125
-128.173828125
-114.44091796875
-130.92041015625
-130.92041015625
-124.51171875
-127.25830078125
-129.08935546875
-115.3564453125
-114.44091796875
-140.07568359375
-130.0048828125
-129.08935546875
-120.849609375
-119.0185546875
-115.3564453125
-130.0048828125
-119.93408203125
-147.39990234375
-110.77880859375
-117.1875
-133.6669921875
-136.41357421875
-155.6396484375
-168.45703125
-166.6259765625
-181.2744140625
-165.71044921875
-126.3427734375
-75.98876953125
-18.310546875
80.56640625
160.21728515625
289.306640625
422.9736328125
552.978515625
651.85546875
739.74609375
853.271484375
989.68505859375
1087.646484375
1110.53466796875
1070.25146484375
911.865234375
630.79833984375
316.7724609375
78.7353515625
-98.876953125
-128.173828125
-114.44091796875
-94.29931640625
-69.580078125
-77.81982421875
-56.7626953125
-26.55029296875
-34.7900390625
-32.958984375
-39.36767578125
-34.7900390625
-49.4384765625
-60.4248046875
-67.7490234375
-71.4111328125
-81.48193359375
-67.7490234375
-62.255859375
-63.17138671875
-65.00244140625
-83.31298828125
-87.890625
-89.7216796875
-98.876953125
-86.0595703125
-74.15771484375
-75.98876953125
-68.66455078125
-61.34033203125
-72.32666015625
-68.66455078125
-62.255859375
-69.580078125
-87.890625
-73.2421875
-69.580078125
-85.14404296875
-75.0732421875
-73.2421875
-79.65087890625
-78.7353515625
-65.91796875
-63.17138671875
-69.580078125
-60.4248046875
-62.255859375
-50.35400390625
-69.580078125
-51.26953125
-48.52294921875
-60.4248046875
-52.18505859375
-59.50927734375
-57.67822265625
-60.4248046875
-62.255859375
-65.91796875
-59.50927734375
-54.01611328125
-63.17138671875
-63.17138671875
-55.84716796875
-43.9453125
-47.607421875
-28.38134765625
-43.9453125
-45.7763671875
-40.283203125
-35.70556640625
-34.7900390625
-32.04345703125
-14.6484375
-33.87451171875
-42.1142578125
-34.7900390625
-26.55029296875
-31.1279296875
-25.634765625
-43.02978515625
-38.4521484375
-38.4521484375
-39.36767578125
-39.36767578125
-33.87451171875
-32.04345703125
-36.62109375
-6.40869140625
-14.6484375
-12.8173828125
-2.74658203125
-11.90185546875
-21.05712890625
4.57763671875
5.4931640625
-3.662109375
23.8037109375
2.74658203125
3.662109375
1.8310546875
16.4794921875
18.310546875
12.8173828125
20.1416015625
38.4521484375
26.55029296875
29.296875
50.35400390625
57.67822265625
54.931640625
74.15771484375
70.49560546875
71.4111328125
69.580078125
65.00244140625
77.81982421875
75.0732421875
68.66455078125
75.0732421875
82.3974609375
82.3974609375
52.18505859375
59.50927734375
60.4248046875
77.81982421875
61.34033203125
45.7763671875
45.7763671875
59.50927734375
62.255859375
38.4521484375
47.607421875
30.21240234375
31.1279296875
31.1279296875
20.1416015625
15.56396484375
15.56396484375
18.310546875
-19.22607421875
-14.6484375
-7.32421875
-24.71923828125
-32.04345703125
-41.19873046875
-29.296875
-47.607421875
-55.84716796875
-51.26953125
-49.4384765625
-63.17138671875
-60.4248046875
-52.18505859375
-43.9453125
-49.4384765625
-67.7490234375
-64.0869140625
-65.00244140625
-62.255859375
-60.4248046875
-81.48193359375
-86.97509765625
-78.7353515625
-70.49560546875
-70.49560546875
-82.3974609375
-78.7353515625
-69.580078125
-67.7490234375
-84.228515625
-79.65087890625
-75.98876953125
-75.0732421875
-77.81982421875
-85.14404296875
-97.0458984375
-82.3974609375
-89.7216796875
-69.580078125
-65.00244140625
-56.7626953125
-64.0869140625
-52.18505859375
-64.0869140625
-68.66455078125
-67.7490234375
-72.32666015625
-65.00244140625
-69.580078125
-61.34033203125
-61.34033203125
-64.0869140625
-59.50927734375
-72.32666015625
-65.00244140625
-62.255859375
-71.4111328125
-70.49560546875
-71.4111328125
-73.2421875
-58.59375
-74.15771484375
-58.59375
-65.00244140625
-71.4111328125
-72.32666015625
-58.59375
-34.7900390625
-58.59375
-73.2421875
-68.66455078125
-54.931640625
-60.4248046875
-58.59375
-60.4248046875
-64.0869140625
-62.255859375
-56.7626953125
-72.32666015625
-68.66455078125
-62.255859375
-64.0869140625
-56.7626953125
-50.35400390625
-61.34033203125
-59.50927734375
-61.34033203125
-71.4111328125
-85.14404296875
-67.7490234375
-56.7626953125
-58.59375
-75.98876953125
-84.228515625
-69.580078125
-71.4111328125
-90.63720703125
-90.63720703125
-89.7216796875
-74.15771484375
-66.83349609375
-70.49560546875
-76.904296875
-83.31298828125
-80.56640625
-91.552734375
-89.7216796875
-88.80615234375
-81.48193359375
-78.7353515625
-81.48193359375
-76.904296875
-72.32666015625
-81.48193359375
-81.48193359375
-82.3974609375
-87.890625
-83.31298828125
-87.890625
-85.14404296875
-73.2421875
-70.49560546875
-88.80615234375
-99.79248046875
-102.5390625
-93.3837890625
-93.3837890625
-69.580078125
-87.890625
-77.81982421875
-75.98876953125
-89.7216796875
-106.201171875
-106.201171875
-87.890625
-99.79248046875
-117.1875
-108.0322265625
-97.0458984375
-91.552734375
-80.56640625
-68.66455078125
-45.7763671875
-53.1005859375
-63.17138671875
-73.2421875
-70.49560546875
-65.00244140625
-61.34033203125
-66.83349609375
-63.17138671875
-85.14404296875
-86.97509765625
-79.65087890625
-73.2421875
-67.7490234375
-75.98876953125
-65.91796875
-46.69189453125
-70.49560546875
-70.49560546875
-85.14404296875
-75.0732421875
-66.83349609375
-48.52294921875
-40.283203125
-32.958984375
-33.87451171875
-44.86083984375
-59.50927734375
-45.7763671875
-28.38134765625
0
-3.662109375
-4.57763671875
-8.23974609375
-20.1416015625
-10.986328125
-4.57763671875
-7.32421875
-1.8310546875
2.74658203125
-12.8173828125
-8.23974609375
-23.8037109375
-29.296875
-30.21240234375
-45.7763671875
-57.67822265625
-66.83349609375
-62.255859375
-46.69189453125
-39.36767578125
-49.4384765625
-52.18505859375
-60.4248046875
-72.32666015625
-89.7216796875
-90.63720703125
-95.21484375
-98.876953125
-82.3974609375
-87.890625
-80.56640625
-84.228515625
-100.7080078125
-103.45458984375
-92.46826171875
-87.890625
-86.0595703125
-84.228515625
-83.31298828125
-69.580078125
-83.31298828125
-82.3974609375
-86.0595703125
-82.3974609375
-83.31298828125
-91.552734375
-94.29931640625
-94.29931640625
-96.13037109375
-98.876953125
-91.552734375
-101.62353515625
-83.31298828125
-66.83349609375
-50.35400390625
-69.580078125
-81.48193359375
-90.63720703125
-104.3701171875
-93.3837890625
-93.3837890625
-102.5390625
-122.6806640625
-135.498046875
-128.173828125
-92.46826171875
-38.4521484375
3.662109375
74.15771484375
192.2607421875
314.94140625
432.12890625
561.21826171875
671.08154296875
769.04296875
869.7509765625
999.755859375
1124.267578125
1195.6787109375
1192.0166015625
1078.4912109375
826.72119140625
497.13134765625
217.8955078125
-13.73291015625
-75.0732421875
-51.26953125
-30.21240234375
-28.38134765625
-21.97265625
8.23974609375
32.958984375
38.4521484375
26.55029296875
5.4931640625
-4.57763671875
-16.4794921875
-25.634765625
-38.4521484375
-43.02978515625
-57.67822265625
-49.4384765625
-33.87451171875
-48.52294921875
-83.31298828125
-69.580078125
-55.84716796875
-65.00244140625
-77.81982421875
-81.48193359375
-62.255859375
-52.18505859375
-57.67822265625
-41.19873046875
-24.71923828125
-35.70556640625
-46.69189453125
-46.69189453125
-61.34033203125
-63.17138671875
-65.00244140625
-62.255859375
-50.35400390625
-36.62109375
-48.52294921875
-49.4384765625
-43.02978515625
-41.19873046875
-44.86083984375
-50.35400390625
-49.4384765625
-42.1142578125
-39.36767578125
-45.7763671875
-54.931640625
-57.67822265625
-71.4111328125
-75.98876953125
-67.7490234375
-81.48193359375
-68.66455078125
-47.607421875
-51.26953125
-44.86083984375
-64.0869140625
-59.50927734375
-49.4384765625
-30.21240234375
-45.7763671875
-54.931640625
-53.1005859375
-41.19873046875
-17.39501953125
-37.53662109375
-44.86083984375
-47.607421875
-42.1142578125
-45.7763671875
-30.21240234375
-24.71923828125
-30.21240234375
-40.283203125
-26.55029296875
-26.55029296875
-23.8037109375
-31.1279296875
-21.05712890625
-24.71923828125
-9.1552734375
-9.1552734375
-0.91552734375
0
-10.986328125
-10.07080078125
-10.986328125
-1.8310546875
1.8310546875
12.8173828125
15.56396484375
-7.32421875
11.90185546875
11.90185546875
10.07080078125
36.62109375
14.6484375
14.6484375
40.283203125
49.4384765625
23.8037109375
13.73291015625
35.70556640625
34.7900390625
46.69189453125
56.7626953125
47.607421875
26.55029296875
25.634765625
23.8037109375
32.958984375
40.283203125
47.607421875
48.52294921875
54.01611328125
65.00244140625
69.580078125
56.7626953125
33.87451171875
29.296875
12.8173828125
4.57763671875
-12.8173828125
10.07080078125
19.22607421875
13.73291015625
54.931640625
34.7900390625
23.8037109375
31.1279296875
39.36767578125
21.05712890625
16.4794921875
23.8037109375
-0.91552734375
-28.38134765625
1.8310546875
-0.91552734375
-22.88818359375
-40.283203125
-21.97265625
-31.1279296875
-76.904296875
-69.580078125
-41.19873046875
-55.84716796875
-68.66455078125
-58.59375
-47.607421875
-40.283203125
-58.59375
-75.0732421875
-74.15771484375
-75.0732421875
-78.7353515625
-97.0458984375
-111.6943359375
-106.201171875
-98.876953125
-66.83349609375
-48.52294921875
-48.52294921875
-44.86083984375
-49.4384765625
-52.18505859375
-59.50927734375
-61.34033203125
-68.66455078125
-62.255859375
-73.2421875
-84.228515625
-67.7490234375
-57.67822265625
-52.18505859375
-65.91796875
-51.26953125
-63.17138671875
-81.48193359375
-74.15771484375
-80.56640625
-57.67822265625
-70.49560546875
-62.255859375
-70.49560546875
-72.32666015625
-64.0869140625
-58.59375
-67.7490234375
-65.91796875
-67.7490234375
-52.18505859375
-53.1005859375
-54.01611328125
-43.02978515625
-54.01611328125
-56.7626953125
-47.607421875
-42.1142578125
-35.70556640625
-48.52294921875
-64.0869140625
-58.59375
-54.01611328125
-60.4248046875
-57.67822265625
-60.4248046875
-53.1005859375
-41.19873046875
-39.36767578125
-43.02978515625
-46.69189453125
-45.7763671875
-57.67822265625
-60.4248046875
-61.34033203125
-62.255859375
-57.67822265625
-73.2421875
-75.0732421875
-69.580078125
-57.67822265625
-48.52294921875
-51.26953125
-58.59375
-54.931640625
-48.52294921875
-51.26953125
-56.7626953125
-52.18505859375
-59.50927734375
-55.84716796875
-67.7490234375
-53.1005859375
-56.7626953125
-52.18505859375
-55.84716796875
-60.4248046875
-62.255859375
-66.83349609375
-53.1005859375
-54.931640625
-61.34033203125
-54.931640625
-66.83349609375
-61.34033203125
-60.4248046875
-64.0869140625
-75.98876953125
-78.7353515625
-68.66455078125
-72.32666015625
-54.931640625
-76.904296875
-86.0595703125
-67.7490234375
-50.35400390625
-65.00244140625
-71.4111328125
-79.65087890625
-75.98876953125
-76.904296875
-82.3974609375
-76.904296875
-81.48193359375
-75.98876953125
-76.904296875
-75.98876953125
-75.0732421875
-81.48193359375
-74.15771484375
-69.580078125
-69.580078125
-76.904296875
-75.98876953125
-77.81982421875
-73.2421875
-75.98876953125
-75.98876953125
-80.56640625
-87.890625
-79.65087890625
-85.14404296875
-84.228515625
-86.97509765625
-84.228515625
-78.7353515625
-85.14404296875
-98.876953125
-94.29931640625
-86.0595703125
-90.63720703125
-95.21484375
-90.63720703125
-92.46826171875
-87.890625
-88.80615234375
-76.904296875
-65.91796875
-62.255859375
-41.19873046875
-43.9453125
-57.67822265625
-63.17138671875
-61.34033203125
-42.1142578125
-40.283203125
-32.958984375
-26.55029296875
-11.90185546875
-10.07080078125
-14.6484375
0
-14.6484375
-22.88818359375
-29.296875
-32.04345703125
-26.55029296875
-24.71923828125
-32.04345703125
-34.7900390625
-43.9453125
-58.59375
-66.83349609375
-69.580078125
-70.49560546875
-73.2421875
-83.31298828125
-82.3974609375
-89.7216796875
-91.552734375
-98.876953125
-108.0322265625
-113.525390625
-117.1875
-110.77880859375
-110.77880859375
-105.28564453125
-122.6806640625
-116.27197265625
-108.94775390625
-109.86328125
-109.86328125
-105.28564453125
-103.45458984375
-114.44091796875
-105.28564453125
-100.7080078125
-112.60986328125
-110.77880859375
-101.62353515625
-99.79248046875
-119.0185546875
-110.77880859375
-110.77880859375
-103.45458984375
-102.5390625
-101.62353515625
-101.62353515625
-108.0322265625
-108.94775390625
-106.201171875
-95.21484375
-94.29931640625
-104.3701171875
-120.849609375
-125.42724609375
-131.8359375
-142.822265625
-149.23095703125
-149.23095703125
-129.08935546875
-111.6943359375
-70.49560546875
-6.40869140625
87.890625
225.2197265625
337.82958984375
472.412109375
606.0791015625
702.20947265625
799.25537109375
928.3447265625
1062.92724609375
1161.80419921875
1198.42529296875
1155.3955078125
962.21923828125
648.193359375
359.80224609375
87.890625
-91.552734375
-94.29931640625
-70.49560546875
-44.86083984375
-47.607421875
-43.02978515625
-21.97265625
-8.23974609375
-1.8310546875
3.662109375
-10.986328125
-24.71923828125
-33.87451171875
-38.4521484375
-40.283203125
-43.02978515625
-37.53662109375
-49.4384765625
-53.1005859375
-52.18505859375
-54.01611328125
-61.34033203125
-60.4248046875
-57.67822265625
-54.01611328125
-59.50927734375
-60.4248046875
-54.931640625
-54.01611328125
-56.7626953125
-57.67822265625
-54.01611328125
-60.4248046875
-53.1005859375
-52.18505859375
-50.35400390625
-55.84716796875
-53.1005859375
-49.4384765625
-47.607421875
-60.4248046875
-50.35400390625
-44.86083984375
-45.7763671875
-48.52294921875
-43.9453125
-47.607421875
-45.7763671875
-40.283203125
-43.02978515625
-42.1142578125
-32.958984375
-36.62109375
-33.87451171875
-37.53662109375
-38.4521484375
-36.62109375
-32.958984375
-33.87451171875
-32.958984375
-30.21240234375
-27.4658203125
-21.97265625
-32.04345703125
-30.21240234375
-21.97265625
-21.05712890625
-20.1416015625
-16.4794921875
-16.4794921875
-14.6484375
-4.57763671875
-3.662109375
-16.4794921875
-8.23974609375
0
2.74658203125
4.57763671875
-7.32421875
-10.07080078125
-4.57763671875
-9.1552734375
-8.23974609375
0.91552734375
7.32421875
4.57763671875
12.8173828125
11.90185546875
6.40869140625
1.8310546875
10.986328125
14.6484375
15.56396484375
15.56396484375
24.71923828125
22.88818359375
28.38134765625
39.36767578125
35.70556640625
21.97265625
34.7900390625
43.02978515625
41.19873046875
50.35400390625
52.18505859375
50.35400390625
52.18505859375
47.607421875
54.931640625
54.931640625
53.1005859375
56.7626953125
57.67822265625
61.34033203125
51.26953125
57.67822265625
63.17138671875
63.17138671875
65.91796875
61.34033203125
67.7490234375
74.15771484375
72.32666015625
71.4111328125
72.32666015625
67.7490234375
75.98876953125
70.49560546875
66.83349609375
65.00244140625
58.59375
47.607421875
49.4384765625
44.86083984375
32.958984375
30.21240234375
24.71923828125
13.73291015625
4.57763671875
7.32421875
1.8310546875
-7.32421875
-10.07080078125
-14.6484375
-17.39501953125
-19.22607421875
-27.4658203125
-32.04345703125
-34.7900390625
-37.53662109375
-42.1142578125
-40.283203125
-49.4384765625
-49.4384765625
-46.69189453125
-52.18505859375
-52.18505859375
-46.69189453125
-47.607421875
-46.69189453125
-50.35400390625
-54.931640625
-51.26953125
-43.9453125
-45.7763671875
-55.84716796875
-54.01611328125
-47.607421875
-57.67822265625
-64.0869140625
-59.50927734375
-58.59375
-54.01611328125
-63.17138671875
-61.34033203125
-52.18505859375
-45.7763671875
-57.67822265625
-57.67822265625
-51.26953125
-57.67822265625
-59.50927734375
-59.50927734375
-55.84716796875
-47.607421875
-47.607421875
-54.931640625
-52.18505859375
-45.7763671875
-42.1142578125
-33.87451171875
-46.69189453125
-44.86083984375
-46.69189453125
-45.7763671875
-38.4521484375
-32.958984375
-39.36767578125
-42.1142578125
-51.26953125
-49.4384765625
-45.7763671875
-32.958984375
-37.53662109375
-36.62109375
-33.87451171875
-38.4521484375
-26.55029296875
-29.296875
-29.296875
-26.55029296875
-32.958984375
-34.7900390625
-26.55029296875
-25.634765625
-33.87451171875
-35.70556640625
-31.1279296875
-34.7900390625
-32.04345703125
-26.55029296875
-32.04345703125
-42.1142578125
-42.1142578125
-46.69189453125
-39.36767578125
-33.87451171875
-38.4521484375
-31.1279296875
-35.70556640625
-40.283203125
-34.7900390625
-38.4521484375
-27.4658203125
-43.02978515625
-46.69189453125
-43.9453125
-51.26953125
-48.52294921875
-41.19873046875
-44.86083984375
-59.50927734375
-48.52294921875
-45.7763671875
-47.607421875
-48.52294921875
-53.1005859375
-49.4384765625
-54.931640625
-56.7626953125
-50.35400390625
-62.255859375
-59.50927734375
-55.84716796875
-47.607421875
-42.1142578125
-56.7626953125
-56.7626953125
-55.84716796875
-45.7763671875
-47.607421875
-50.35400390625
-51.26953125
-54.01611328125
-55.84716796875
-58.59375
-58.59375
-56.7626953125
-53.1005859375
-53.1005859375
-57.67822265625
-45.7763671875
-56.7626953125
-56.7626953125
-61.34033203125
-66.83349609375
-60.4248046875
-54.01611328125
-54.931640625
-59.50927734375
-55.84716796875
-48.52294921875
-44.86083984375
-38.4521484375
-28.38134765625
-21.05712890625
-16.4794921875
-21.05712890625
-26.55029296875
-22.88818359375
-13.73291015625
-3.662109375
0
-0.91552734375
11.90185546875
17.39501953125
18.310546875
20.1416015625
15.56396484375
11.90185546875
12.8173828125
7.32421875
4.57763671875
5.4931640625
7.32421875
-1.8310546875
-11.90185546875
-21.05712890625
-30.21240234375
-39.36767578125
-41.19873046875
-43.02978515625
-46.69189453125
-54.01611328125
-52.18505859375
-59.50927734375
-61.34033203125
-66.83349609375
-76.904296875
-70.49560546875
-69.580078125
-75.98876953125
-67.7490234375
-78.7353515625
-79.65087890625
-80.56640625
-74.15771484375
-65.00244140625
-68.66455078125
-74.15771484375
-85.14404296875
-80.56640625
-80.56640625
-72.32666015625
-73.2421875
-72.32666015625
-85.14404296875
-77.81982421875
-75.0732421875
-80.56640625
-80.56640625
-85.14404296875
-89.7216796875
-80.56640625
-78.7353515625
-73.2421875
-75.0732421875
-89.7216796875
-83.31298828125
-90.63720703125
-95.21484375
-103.45458984375
-114.44091796875
-121.76513671875
-127.25830078125
-123.59619140625
-96.13037109375
-64.0869140625
-21.05712890625
58.59375
182.18994140625
315.85693359375
432.12890625
574.03564453125
696.71630859375
785.5224609375
876.15966796875
995.17822265625
1116.02783203125
1159.0576171875
1165.46630859375
1076.66015625
827.63671875
494.384765625
217.8955078125
-22.88818359375
-105.28564453125
-104.3701171875
-66.83349609375
-51.26953125
-54.01611328125
-59.50927734375
-35.70556640625
-2.74658203125
-0.91552734375
0
0.91552734375
-11.90185546875
-21.05712890625
-23.8037109375
-33.87451171875
-36.62109375
-31.1279296875
-42.1142578125
-37.53662109375
-40.283203125
-41.19873046875
-44.86083984375
-39.36767578125
-37.53662109375
-39.36767578125
-35.70556640625
-48.52294921875
-38.4521484375
-45.7763671875
-48.52294921875
-44.86083984375
-38.4521484375
-36.62109375
-47.607421875
-41.19873046875
-42.1142578125
-46.69189453125
-44.86083984375
-36.62109375
-42.1142578125
-40.283203125
-33.87451171875
-39.36767578125
-33.87451171875
-28.38134765625
-27.4658203125
-38.4521484375
-43.9453125
-41.19873046875
-33.87451171875
-25.634765625
-26.55029296875
-31.1279296875
-26.55029296875
-22.88818359375
-21.05712890625
-11.90185546875
-21.05712890625
-19.22607421875
-23.8037109375
-20.1416015625
-15.56396484375
-13.73291015625
-14.6484375
-15.56396484375
-19.22607421875
-8.23974609375
-5.4931640625
1.8310546875
-8.23974609375
-4.57763671875
12.8173828125
9.1552734375
9.1552734375
3.662109375
10.986328125
9.1552734375
6.40869140625
6.40869140625
19.22607421875
20.1416015625
26.55029296875
19.22607421875
29.296875
21.97265625
41.19873046875
28.38134765625
20.1416015625
42.1142578125
42.1142578125
38.4521484375
38.4521484375
38.4521484375
43.02978515625
39.36767578125
46.69189453125
39.36767578125
51.26953125
51.26953125
50.35400390625
52.18505859375
55.84716796875
52.18505859375
57.67822265625
62.255859375
62.255859375
56.7626953125
62.255859375
68.66455078125
63.17138671875
56.7626953125
66.83349609375
68.66455078125
72.32666015625
71.4111328125
71.4111328125
66.83349609375
75.98876953125
74.15771484375
65.00244140625
69.580078125
74.15771484375
67.7490234375
73.2421875
75.0732421875
63.17138671875
64.0869140625
65.00244140625
62.255859375
63.17138671875
56.7626953125
50.35400390625
42.1142578125
33.87451171875
36.62109375
30.21240234375
26.55029296875
22.88818359375
26.55029296875
18.310546875
8.23974609375
11.90185546875
4.57763671875
10.07080078125
2.74658203125
-4.57763671875
-16.4794921875
-17.39501953125
-14.6484375
-14.6484375
-32.958984375
-27.4658203125
-18.310546875
-16.4794921875
-18.310546875
-36.62109375
-32.958984375
-33.87451171875
-20.1416015625
-24.71923828125
-43.02978515625
-32.04345703125
-52.18505859375
-54.01611328125
-47.607421875
-40.283203125
-36.62109375
-31.1279296875
-31.1279296875
-24.71923828125
-19.22607421875
6.40869140625
-19.22607421875
-33.87451171875
-17.39501953125
-11.90185546875
-25.634765625
-32.04345703125
-29.296875
-10.07080078125
-10.986328125
-23.8037109375
-22.88818359375
-16.4794921875
-29.296875
-28.38134765625
-35.70556640625
-8.23974609375
-19.22607421875
-15.56396484375
-12.8173828125
-13.73291015625
-12.8173828125
-6.40869140625
3.662109375
-11.90185546875
-1.8310546875
0.91552734375
1.8310546875
2.74658203125
-7.32421875
0
5.4931640625
6.40869140625
-6.40869140625
4.57763671875
-6.40869140625
0.91552734375
-6.40869140625
-11.90185546875
-11.90185546875
1.8310546875
2.74658203125
-5.4931640625
-3.662109375
1.8310546875
1.8310546875
-5.4931640625
-17.39501953125
-10.07080078125
-8.23974609375
-12.8173828125
-14.6484375
-14.6484375
-20.1416015625
-3.662109375
-4.57763671875
-12.8173828125
-19.22607421875
-26.55029296875
-31.1279296875
-26.55029296875
-18.310546875
-20.1416015625
-25.634765625
-26.55029296875
-21.97265625
-11.90185546875
-10.07080078125
-1.8310546875
-5.4931640625
-19.22607421875
-18.310546875
-16.4794921875
-19.22607421875
-22.88818359375
-17.39501953125
-21.05712890625
-21.05712890625
-26.55029296875
-24.71923828125
-23.8037109375
-32.04345703125
-17.39501953125
-19.22607421875
-25.634765625
-19.22607421875
-20.1416015625
-26.55029296875
-27.4658203125
-32.958984375
-27.4658203125
-36.62109375
-28.38134765625
-26.55029296875
-41.19873046875
-38.4521484375
-34.7900390625
-31.1279296875
-35.70556640625
-27.4658203125
-40.283203125
-33.87451171875
-40.283203125
-33.87451171875
-31.1279296875
-35.70556640625
-26.55029296875
-31.1279296875
-41.19873046875
-23.8037109375
-33.87451171875
-17.39501953125
-9.1552734375
-3.662109375
-0.91552734375
10.986328125
-4.57763671875
-1.8310546875
-3.662109375
-1.8310546875
17.39501953125
32.04345703125
16.4794921875
32.04345703125
37.53662109375
36.62109375
51.26953125
45.7763671875
22.88818359375
19.22607421875
9.1552734375
22.88818359375
25.634765625
38.4521484375
16.4794921875
15.56396484375
8.23974609375
6.40869140625
-6.40869140625
-29.296875
-21.05712890625
-27.4658203125
-35.70556640625
-43.02978515625
-38.4521484375
-40.283203125
-52.18505859375
-53.1005859375
-54.931640625
-60.4248046875
-50.35400390625
-55.84716796875
-70.49560546875
-61.34033203125
-47.607421875
-52.18505859375
-47.607421875
-46.69189453125
-64.0869140625
-61.34033203125
-61.34033203125
-53.1005859375
-54.931640625
-62.255859375
-65.00244140625
-62.255859375
-52.18505859375
-59.50927734375
-51.26953125
-56.7626953125
-47.607421875
-54.931640625
-51.26953125
-58.59375
-44.86083984375
-51.26953125
-55.84716796875
-64.0869140625
-58.59375
-80.56640625
-88.80615234375
-95.21484375
-105.28564453125
-100.7080078125
-76.904296875
-48.52294921875
4.57763671875
63.17138671875
189.51416015625
316.7724609375
433.04443359375
564.88037109375
696.71630859375
789.1845703125
863.34228515625
983.2763671875
1105.04150390625
1169.12841796875
1177.3681640625
1130.67626953125
944.82421875
619.81201171875
292.96875
56.7626953125
-67.7490234375
-78.7353515625
-43.02978515625
-31.1279296875
-32.958984375
-28.38134765625
-6.40869140625
16.4794921875
28.38134765625
35.70556640625
32.958984375
2.74658203125
4.57763671875
-7.32421875
-7.32421875
-10.986328125
-19.22607421875
0
-16.4794921875
-21.05712890625
-14.6484375
-16.4794921875
-21.05712890625
-26.55029296875
-28.38134765625
-17.39501953125
-29.296875
-21.05712890625
-31.1279296875
-23.8037109375
-16.4794921875
-19.22607421875
-30.21240234375
-21.05712890625
-20.1416015625
-22.88818359375
-20.1416015625
-25.634765625
-26.55029296875
-20.1416015625
-19.22607421875
-9.1552734375
-26.55029296875
-19.22607421875
-21.97265625
-21.97265625
-14.6484375
-11.90185546875
-17.39501953125
-2.74658203125
-2.74658203125
-10.986328125
-7.32421875
7.32421875
-4.57763671875
-10.07080078125
-10.986328125
6.40869140625
-0.91552734375
-3.662109375
-0.91552734375
0.91552734375
-3.662109375
4.57763671875
-0.91552734375
3.662109375
11.90185546875
0.91552734375
6.40869140625
10.07080078125
6.40869140625
-5.4931640625
-0.91552734375
0.91552734375
3.662109375
12.8173828125
15.56396484375
19.22607421875
18.310546875
23.8037109375
28.38134765625
28.38134765625
35.70556640625
36.62109375
38.4521484375
41.19873046875
41.19873046875
43.9453125
31.1279296875
42.1142578125
42.1142578125
50.35400390625
43.9453125
37.53662109375
46.69189453125
55.84716796875
56.7626953125
68.66455078125
47.607421875
52.18505859375
56.7626953125
57.67822265625
63.17138671875
60.4248046875
72.32666015625
73.2421875
75.98876953125
68.66455078125
75.0732421875
85.14404296875
76.904296875
75.98876953125
86.0595703125
81.48193359375
84.228515625
89.7216796875
87.890625
98.876953125
87.890625
86.97509765625
92.46826171875
96.13037109375
101.62353515625
92.46826171875
99.79248046875
92.46826171875
84.228515625
86.0595703125
80.56640625
75.0732421875
74.15771484375
65.00244140625
68.66455078125
58.59375
59.50927734375
54.931640625
47.607421875
53.1005859375
46.69189453125
28.38134765625
39.36767578125
31.1279296875
21.97265625
17.39501953125
9.1552734375
7.32421875
1.8310546875
6.40869140625
-1.8310546875
-8.23974609375
-8.23974609375
-9.1552734375
-7.32421875
-8.23974609375
-11.90185546875
-13.73291015625
-11.90185546875
-12.8173828125
-16.4794921875
-16.4794921875
-11.90185546875
-18.310546875
-25.634765625
-17.39501953125
-17.39501953125
-21.97265625
-17.39501953125
-21.97265625
-23.8037109375
-16.4794921875
-22.88818359375
-23.8037109375
-18.310546875
-22.88818359375
-19.22607421875
-10.986328125
-21.97265625
-15.56396484375
-9.1552734375
-13.73291015625
-13.73291015625
-18.310546875
-24.71923828125
-18.310546875
-21.05712890625
-13.73291015625
-0.91552734375
-4.57763671875
-7.32421875
-6.40869140625
-7.32421875
-7.32421875
-8.23974609375
-10.07080078125
-10.986328125
-11.90185546875
-12.8173828125
-8.23974609375
-16.4794921875
-16.4794921875
-8.23974609375
-8.23974609375
-11.90185546875
-14.6484375
-9.1552734375
-10.07080078125
-4.57763671875
-0.91552734375
-1.8310546875
-5.4931640625
-4.57763671875
-10.07080078125
-13.73291015625
-8.23974609375
-11.90185546875
-14.6484375
-17.39501953125
-13.73291015625
-10.986328125
-6.40869140625
-11.90185546875
-10.07080078125
-9.1552734375
-10.986328125
-16.4794921875
-10.986328125
-10.986328125
-10.986328125
-14.6484375
-15.56396484375
-10.07080078125
-17.39501953125
-13.73291015625
-17.39501953125
-17.39501953125
-21.97265625
-21.05712890625
-18.310546875
-17.39501953125
-16.4794921875
-23.8037109375
-24.71923828125
-25.634765625
-22.88818359375
-21.05712890625
-25.634765625
-32.958984375
-26.55029296875
-23.8037109375
-23.8037109375
-24.71923828125
-28.38134765625
-25.634765625
-23.8037109375
-32.958984375
-23.8037109375
-21.05712890625
-26.55029296875
-32.04345703125
-32.958984375
-33.87451171875
-28.38134765625
-31.1279296875
-28.38134765625
-26.55029296875
-32.04345703125
-33.87451171875
-31.1279296875
-31.1279296875
-32.958984375
-29.296875
-32.958984375
-32.04345703125
-39.36767578125
-40.283203125
-32.958984375
-34.7900390625
-33.87451171875
-31.1279296875
-27.4658203125
-22.88818359375
-19.22607421875
-29.296875
-25.634765625
-22.88818359375
-21.97265625
-26.55029296875
-29.296875
-27.4658203125
-27.4658203125
-27.4658203125
-27.4658203125
-22.88818359375
-11.90185546875
0.91552734375
2.74658203125
8.23974609375
10.986328125
7.32421875
5.4931640625
0.91552734375
18.310546875
21.05712890625
25.634765625
33.87451171875
39.36767578125
43.02978515625
46.69189453125
46.69189453125
40.283203125
33.87451171875
18.310546875
31.1279296875
31.1279296875
26.55029296875
22.88818359375
24.71923828125
18.310546875
-1.8310546875
-6.40869140625
-14.6484375
-19.22607421875
-15.56396484375
-15.56396484375
-27.4658203125
-34.7900390625
-41.19873046875
-51.26953125
-55.84716796875
-52.18505859375
-51.26953125
-54.01611328125
-55.84716796875
-59.50927734375
-54.931640625
-48.52294921875
-56.7626953125
-61.34033203125
-63.17138671875
-57.67822265625
-53.1005859375
-43.9453125
-52.18505859375
-60.4248046875
-65.91796875
-60.4248046875
-57.67822265625
-60.4248046875
-57.67822265625
-54.01611328125
-54.931640625
-57.67822265625
-54.931640625
-64.0869140625
-60.4248046875
-56.7626953125
-66.83349609375
-65.00244140625
-65.91796875
-73.2421875
-76.904296875
-89.7216796875
-90.63720703125
-95.21484375
-86.0595703125
-50.35400390625
-0.91552734375
56.7626953125
149.23095703125
264.58740234375
372.61962890625
492.5537109375
628.0517578125
717.7734375
806.57958984375
917.3583984375
1046.44775390625
1137.0849609375
1156.31103515625
1142.578125
1019.8974609375
758.056640625
428.466796875
179.443359375
-20.1416015625
-70.49560546875
-54.931640625
-32.04345703125
-26.55029296875
-17.39501953125
4.57763671875
30.21240234375
45.7763671875
34.7900390625
32.04345703125
20.1416015625
10.07080078125
5.4931640625
7.32421875
6.40869140625
-2.74658203125
-4.57763671875
-7.32421875
-11.90185546875
-12.8173828125
-7.32421875
-16.4794921875
-18.310546875
-11.90185546875
-14.6484375
-15.56396484375
-10.986328125
-15.56396484375
-12.8173828125
-4.57763671875
-3.662109375
-7.32421875
-4.57763671875
-12.8173828125
-16.4794921875
-11.90185546875
-8.23974609375
-3.662109375
-3.662109375
-3.662109375
-8.23974609375
-11.90185546875
-7.32421875
-2.74658203125
-3.662109375
-8.23974609375
-5.4931640625
-1.8310546875
-3.662109375
5.4931640625
4.57763671875
0
3.662109375
3.662109375
7.32421875
1.8310546875
8.23974609375
6.40869140625
7.32421875
10.07080078125
4.57763671875
9.1552734375
12.8173828125
10.07080078125
11.90185546875
15.56396484375
16.4794921875
13.73291015625
16.4794921875
18.310546875
21.05712890625
21.05712890625
23.8037109375
24.71923828125
24.71923828125
21.97265625
30.21240234375
23.8037109375
26.55029296875
34.7900390625
34.7900390625
35.70556640625
37.53662109375
40.283203125
43.9453125
43.02978515625
44.86083984375
53.1005859375
54.931640625
51.26953125
54.01611328125
56.7626953125
66.83349609375
58.59375
63.17138671875
75.0732421875
73.2421875
79.65087890625
77.81982421875
80.56640625
83.31298828125
84.228515625
84.228515625
86.97509765625
91.552734375
98.876953125
96.13037109375
101.62353515625
101.62353515625
104.3701171875
112.60986328125
113.525390625
114.44091796875
117.1875
119.0185546875
126.3427734375
