ECG
-17.39501953125
-16.4794921875
-14.6484375
-14.6484375
-6.40869140625
-2.74658203125
7.32421875
5.4931640625
-2.74658203125
-17.39501953125
-41.19873046875
-35.70556640625
-36.62109375
-26.55029296875
-14.6484375
-4.57763671875
16.4794921875
-3.662109375
-23.8037109375
-35.70556640625
-20.1416015625
-12.8173828125
-34.7900390625
-43.02978515625
-36.62109375
-23.8037109375
-34.7900390625
-39.36767578125
-42.1142578125
-40.283203125
-28.38134765625
-26.55029296875
-30.21240234375
-30.21240234375
-25.634765625
-24.71923828125
-17.39501953125
-39.36767578125
-53.1005859375
-48.52294921875
-28.38134765625
-11.90185546875
-12.8173828125
-22.88818359375
-25.634765625
-8.23974609375
-8.23974609375
-20.1416015625
-21.97265625
-19.22607421875
-31.1279296875
-36.62109375
-21.97265625
-12.8173828125
-20.1416015625
-21.97265625
-19.22607421875
-24.71923828125
-26.55029296875
-31.1279296875
-23.8037109375
-20.1416015625
-28.38134765625
-42.1142578125
-39.36767578125
-29.296875
-32.04345703125
-40.283203125
-28.38134765625
-23.8037109375
-34.7900390625
-36.62109375
-37.53662109375
-32.04345703125
-32.958984375
-26.55029296875
-25.634765625
-23.8037109375
-38.4521484375
-51.26953125
-49.4384765625
-37.53662109375
-36.62109375
-38.4521484375
-36.62109375
-32.04345703125
-26.55029296875
-28.38134765625
-22.88818359375
-13.73291015625
-17.39501953125
-41.19873046875
-38.4521484375
-28.38134765625
-29.296875
-34.7900390625
-43.9453125
-46.69189453125
-52.18505859375
-46.69189453125
-41.19873046875
-48.52294921875
-51.26953125
-43.02978515625
-53.1005859375
-54.931640625
-50.35400390625
-45.7763671875
-49.4384765625
-41.19873046875
-36.62109375
-52.18505859375
-61.34033203125
-61.34033203125
-48.52294921875
-43.9453125
-54.01611328125
-54.01611328125
-46.69189453125
-54.01611328125
-56.7626953125
-47.607421875
-53.1005859375
-53.1005859375
-54.931640625
-60.4248046875
-60.4248046875
-52.18505859375
-58.59375
-62.255859375
-62.255859375
-55.84716796875
-57.67822265625
-74.15771484375
-73.2421875
-63.17138671875
-67.7490234375
-71.4111328125
-56.7626953125
-65.91796875
-71.4111328125
-60.4248046875
-53.1005859375
-43.9453125
-47.607421875
-49.4384765625
-52.18505859375
-37.53662109375
-26.55029296875
-29.296875
-21.05712890625
-12.8173828125
-5.4931640625
-6.40869140625
-1.8310546875
7.32421875
18.310546875
20.1416015625
32.04345703125
22.88818359375
0.91552734375
2.74658203125
-0.91552734375
4.57763671875
0.91552734375
0
-16.4794921875
-15.56396484375
-13.73291015625
-32.04345703125
-48.52294921875
-51.26953125
-51.26953125
-55.84716796875
-77.81982421875
-73.2421875
-69.580078125
-70.49560546875
-82.3974609375
-88.80615234375
-76.904296875
-81.48193359375
-90.63720703125
-82.3974609375
-84.228515625
-84.228515625
-84.228515625
-92.46826171875
-96.13037109375
-101.62353515625
-103.45458984375
-96.13037109375
-88.80615234375
-98.876953125
-101.62353515625
-92.46826171875
-88.80615234375
-89.7216796875
-84.228515625
-86.97509765625
-85.14404296875
-91.552734375
-88.80615234375
-83.31298828125
-89.7216796875
-101.62353515625
-101.62353515625
-94.29931640625
-98.876953125
-90.63720703125
-102.5390625
-131.8359375
-130.0048828125
-122.6806640625
-122.6806640625
-108.94775390625
-78.7353515625
-41.19873046875
17.39501953125
114.44091796875
194.091796875
299.37744140625
449.52392578125
576.7822265625
677.490234375
787.353515625
929.26025390625
1062.92724609375
1148.0712890625
1155.3955078125
1080.322265625
865.17333984375
530.09033203125
252.685546875
32.04345703125
-87.890625
-83.31298828125
-51.26953125
-32.04345703125
-34.7900390625
-20.1416015625
14.6484375
26.55029296875
7.32421875
0
-3.662109375
-10.986328125
-10.07080078125
-30.21240234375
-42.1142578125
-36.62109375
-35.70556640625
-40.283203125
-42.1142578125
-53.1005859375
-65.91796875
-66.83349609375
-59.50927734375
-53.1005859375
-51.26953125
-52.18505859375
-47.607421875
-50.35400390625
-51.26953125
-58.59375
-56.7626953125
-52.18505859375
-49.4384765625
-49.4384765625
-41.19873046875
-41.19873046875
-43.9453125
-49.4384765625
-41.19873046875
-25.634765625
-23.8037109375
-29.296875
-31.1279296875
-29.296875
-23.8037109375
-29.296875
-28.38134765625
-37.53662109375
-38.4521484375
-30.21240234375
-34.7900390625
-36.62109375
-33.87451171875
-44.86083984375
-38.4521484375
-27.4658203125
-38.4521484375
-33.87451171875
-25.634765625
-29.296875
-30.21240234375
-10.07080078125
-8.23974609375
-11.90185546875
-4.57763671875
-1.8310546875
-5.4931640625
-16.4794921875
-8.23974609375
-5.4931640625
-7.32421875
-4.57763671875
-17.39501953125
-22.88818359375
1.8310546875
18.310546875
0.91552734375
0
0.91552734375
5.4931640625
2.74658203125
-1.8310546875
5.4931640625
10.07080078125
1.8310546875
0
5.4931640625
5.4931640625
-1.8310546875
10.986328125
16.4794921875
0.91552734375
-3.662109375
-0.91552734375
10.07080078125
11.90185546875
15.56396484375
29.296875
34.7900390625
35.70556640625
36.62109375
35.70556640625
22.88818359375
18.310546875
18.310546875
30.21240234375
44.86083984375
52.18505859375
52.18505859375
55.84716796875
54.931640625
58.59375
54.01611328125
46.69189453125
53.1005859375
50.35400390625
44.86083984375
39.36767578125
32.958984375
32.958984375
32.958984375
29.296875
21.97265625
25.634765625
32.958984375
26.55029296875
30.21240234375
30.21240234375
32.04345703125
31.1279296875
21.97265625
27.4658203125
19.22607421875
15.56396484375
10.07080078125
6.40869140625
8.23974609375
8.23974609375
2.74658203125
-10.986328125
-17.39501953125
-7.32421875
-11.90185546875
-21.97265625
-26.55029296875
-32.958984375
-28.38134765625
-32.04345703125
-33.87451171875
-46.69189453125
-46.69189453125
-46.69189453125
-41.19873046875
-59.50927734375
-52.18505859375
-48.52294921875
-32.958984375
-43.02978515625
-52.18505859375
-36.62109375
-31.1279296875
-41.19873046875
-38.4521484375
-31.1279296875
-40.283203125
-33.87451171875
-38.4521484375
-55.84716796875
-55.84716796875
-55.84716796875
-59.50927734375
-69.580078125
-74.15771484375
-79.65087890625
-62.255859375
-60.4248046875
-40.283203125
-52.18505859375
-43.9453125
-33.87451171875
-42.1142578125
-45.7763671875
-51.26953125
-62.255859375
-46.69189453125
-37.53662109375
-38.4521484375
-27.4658203125
-21.05712890625
-29.296875
-30.21240234375
-22.88818359375
-18.310546875
-22.88818359375
-43.9453125
-54.01611328125
-37.53662109375
-58.59375
-57.67822265625
-24.71923828125
-30.21240234375
-29.296875
-31.1279296875
-47.607421875
-52.18505859375
-43.9453125
-37.53662109375
-43.9453125
-43.9453125
-46.69189453125
-42.1142578125
-51.26953125
-48.52294921875
-48.52294921875
-50.35400390625
-54.931640625
-54.931640625
-52.18505859375
-53.1005859375
-46.69189453125
-41.19873046875
-38.4521484375
-32.04345703125
-29.296875
-51.26953125
-43.02978515625
-35.70556640625
-50.35400390625
-50.35400390625
-50.35400390625
-46.69189453125
-45.7763671875
-47.607421875
-48.52294921875
-51.26953125
-45.7763671875
-34.7900390625
-37.53662109375
-38.4521484375
-38.4521484375
-42.1142578125
-54.01611328125
-53.1005859375
-65.91796875
-79.65087890625
-37.53662109375
-54.01611328125
-45.7763671875
-35.70556640625
-58.59375
-65.00244140625
-64.0869140625
-64.0869140625
-67.7490234375
-69.580078125
-65.91796875
-61.34033203125
-67.7490234375
-71.4111328125
-58.59375
-59.50927734375
-75.98876953125
-68.66455078125
-56.7626953125
-56.7626953125
-70.49560546875
-64.0869140625
-59.50927734375
-75.0732421875
-108.94775390625
-56.7626953125
-52.18505859375
-80.56640625
-75.0732421875
-49.4384765625
-47.607421875
-68.66455078125
-77.81982421875
-73.2421875
-65.00244140625
-71.4111328125
-82.3974609375
-81.48193359375
-87.890625
-60.4248046875
-38.4521484375
-44.86083984375
-44.86083984375
-45.7763671875
-48.52294921875
-43.02978515625
-33.87451171875
-20.1416015625
-21.05712890625
-18.310546875
-16.4794921875
-8.23974609375
-4.57763671875
7.32421875
-0.91552734375
-8.23974609375
-5.4931640625
6.40869140625
11.90185546875
-6.40869140625
-7.32421875
1.8310546875
-17.39501953125
-32.958984375
-42.1142578125
-48.52294921875
-49.4384765625
-46.69189453125
-54.931640625
-65.91796875
-69.580078125
-80.56640625
-83.31298828125
-86.0595703125
-92.46826171875
-84.228515625
-82.3974609375
-79.65087890625
-92.46826171875
-103.45458984375
-99.79248046875
-99.79248046875
-99.79248046875
-105.28564453125
-92.46826171875
-94.29931640625
-105.28564453125
-109.86328125
-98.876953125
-101.62353515625
-106.201171875
-105.28564453125
-103.45458984375
-98.876953125
-103.45458984375
-104.3701171875
-97.96142578125
-100.7080078125
-97.0458984375
-94.29931640625
-87.890625
-86.0595703125
-82.3974609375
-83.31298828125
-90.63720703125
-107.11669921875
-114.44091796875
-125.42724609375
-138.24462890625
-146.484375
-122.6806640625
-97.96142578125
-66.83349609375
-16.4794921875
62.255859375
173.9501953125
287.4755859375
423.88916015625
563.04931640625
660.09521484375
750.732421875
873.4130859375
1041.8701171875
1140.7470703125
1163.63525390625
1116.02783203125
942.07763671875
634.46044921875
325.01220703125
78.7353515625
-94.29931640625
-124.51171875
-107.11669921875
-67.7490234375
-52.18505859375
-29.296875
-9.1552734375
6.40869140625
3.662109375
1.8310546875
-5.4931640625
-14.6484375
-22.88818359375
-26.55029296875
-24.71923828125
-30.21240234375
-36.62109375
-47.607421875
-51.26953125
-65.91796875
-79.65087890625
-75.98876953125
-75.98876953125
-66.83349609375
-64.0869140625
-46.69189453125
-43.02978515625
-51.26953125
-52.18505859375
-54.931640625
-48.52294921875
-54.931640625
-57.67822265625
-48.52294921875
-56.7626953125
-64.0869140625
-65.91796875
-67.7490234375
-54.931640625
-49.4384765625
-50.35400390625
-54.01611328125
-54.01611328125
-55.84716796875
-43.02978515625
-42.1142578125
-44.86083984375
-46.69189453125
-51.26953125
-52.18505859375
-45.7763671875
-43.9453125
-49.4384765625
-54.01611328125
-46.69189453125
-48.52294921875
-47.607421875
-46.69189453125
-41.19873046875
-51.26953125
-55.84716796875
-49.4384765625
-41.19873046875
-45.7763671875
-45.7763671875
-37.53662109375
-29.296875
-32.958984375
-43.9453125
-39.36767578125
-37.53662109375
-11.90185546875
-10.07080078125
-8.23974609375
-5.4931640625
-9.1552734375
-16.4794921875
-21.05712890625
-19.22607421875
-3.662109375
-1.8310546875
-2.74658203125
-3.662109375
1.8310546875
10.07080078125
11.90185546875
2.74658203125
9.1552734375
9.1552734375
8.23974609375
2.74658203125
13.73291015625
5.4931640625
13.73291015625
22.88818359375
21.05712890625
15.56396484375
27.4658203125
21.05712890625
10.986328125
21.05712890625
17.39501953125
20.1416015625
26.55029296875
18.310546875
21.05712890625
29.296875
14.6484375
13.73291015625
23.8037109375
24.71923828125
18.310546875
11.90185546875
12.8173828125
15.56396484375
10.986328125
5.4931640625
28.38134765625
37.53662109375
39.36767578125
32.958984375
30.21240234375
33.87451171875
32.04345703125
22.88818359375
35.70556640625
25.634765625
34.7900390625
29.296875
35.70556640625
25.634765625
10.986328125
17.39501953125
16.4794921875
8.23974609375
4.57763671875
7.32421875
10.07080078125
10.07080078125
1.8310546875
-20.1416015625
-17.39501953125
-10.07080078125
-17.39501953125
-21.05712890625
-32.04345703125
-31.1279296875
-42.1142578125
-47.607421875
-47.607421875
-44.86083984375
-45.7763671875
-40.283203125
-35.70556640625
-37.53662109375
-50.35400390625
-58.59375
-55.84716796875
-46.69189453125
-48.52294921875
-55.84716796875
-57.67822265625
-59.50927734375
-51.26953125
-52.18505859375
-64.0869140625
-67.7490234375
-59.50927734375
-60.4248046875
-64.0869140625
-57.67822265625
-58.59375
-57.67822265625
-59.50927734375
-60.4248046875
-58.59375
-44.86083984375
-50.35400390625
-52.18505859375
-47.607421875
-51.26953125
-50.35400390625
-41.19873046875
-43.9453125
-30.21240234375
-25.634765625
-30.21240234375
-32.958984375
-26.55029296875
-26.55029296875
-33.87451171875
-39.36767578125
-48.52294921875
-43.9453125
-32.04345703125
-34.7900390625
-54.01611328125
-40.283203125
-29.296875
-22.88818359375
-31.1279296875
-38.4521484375
-44.86083984375
-38.4521484375
-32.04345703125
-24.71923828125
-25.634765625
-32.958984375
-31.1279296875
-22.88818359375
-26.55029296875
-25.634765625
-10.986328125
-3.662109375
-21.05712890625
-23.8037109375
-7.32421875
21.97265625
30.21240234375
34.7900390625
34.7900390625
26.55029296875
3.662109375
-33.87451171875
-46.69189453125
-47.607421875
-37.53662109375
-32.958984375
-49.4384765625
-38.4521484375
-29.296875
-31.1279296875
-33.87451171875
-32.04345703125
-40.283203125
-43.9453125
-31.1279296875
-13.73291015625
-32.958984375
-37.53662109375
-39.36767578125
-33.87451171875
-27.4658203125
-32.04345703125
-41.19873046875
-47.607421875
-37.53662109375
-46.69189453125
-48.52294921875
-49.4384765625
-31.1279296875
-49.4384765625
-48.52294921875
-46.69189453125
-47.607421875
-63.17138671875
-67.7490234375
-47.607421875
-61.34033203125
-38.4521484375
-54.01611328125
-54.01611328125
-45.7763671875
-57.67822265625
-64.0869140625
-49.4384765625
-41.19873046875
-43.02978515625
-54.931640625
-54.01611328125
-43.02978515625
-33.87451171875
-39.36767578125
-38.4521484375
-35.70556640625
-28.38134765625
-23.8037109375
-15.56396484375
-6.40869140625
10.07080078125
13.73291015625
-18.310546875
-10.07080078125
-0.91552734375
15.56396484375
41.19873046875
34.7900390625
40.283203125
48.52294921875
37.53662109375
41.19873046875
56.7626953125
39.36767578125
13.73291015625
29.296875
16.4794921875
2.74658203125
8.23974609375
16.4794921875
10.07080078125
2.74658203125
-19.22607421875
-13.73291015625
-21.97265625
-27.4658203125
-31.1279296875
-45.7763671875
-22.88818359375
-33.87451171875
-51.26953125
-39.36767578125
-75.0732421875
-73.2421875
-72.32666015625
-65.00244140625
-70.49560546875
-66.83349609375
-64.0869140625
-65.91796875
-59.50927734375
-37.53662109375
-46.69189453125
-52.18505859375
-57.67822265625
-72.32666015625
-56.7626953125
-30.21240234375
-47.607421875
-58.59375
-64.0869140625
-47.607421875
-53.1005859375
-66.83349609375
-51.26953125
-54.01611328125
-65.00244140625
-64.0869140625
-64.0869140625
-69.580078125
-61.34033203125
-73.2421875
-66.83349609375
-68.66455078125
-79.65087890625
-90.63720703125
-117.1875
-123.59619140625
-116.27197265625
-88.80615234375
-67.7490234375
-5.4931640625
75.0732421875
179.443359375
314.02587890625
429.38232421875
559.38720703125
686.6455078125
761.71875
833.1298828125
973.20556640625
1119.68994140625
1172.79052734375
1149.90234375
1063.8427734375
827.63671875
477.9052734375
202.33154296875
-33.87451171875
-122.6806640625
-106.201171875
-82.3974609375
-43.9453125
-38.4521484375
-36.62109375
-0.91552734375
8.23974609375
12.8173828125
16.4794921875
2.74658203125
-19.22607421875
-12.8173828125
-20.1416015625
-11.90185546875
-7.32421875
-5.4931640625
-21.97265625
-31.1279296875
-10.986328125
-42.1142578125
-39.36767578125
-20.1416015625
0.91552734375
-12.8173828125
-17.39501953125
-4.57763671875
-11.90185546875
-43.9453125
-33.87451171875
-11.90185546875
-23.8037109375
-47.607421875
-45.7763671875
-45.7763671875
-41.19873046875
-42.1142578125
-43.02978515625
-21.97265625
-43.9453125
-28.38134765625
-32.04345703125
-33.87451171875
-39.36767578125
-32.04345703125
-24.71923828125
-8.23974609375
-43.02978515625
-62.255859375
-51.26953125
-14.6484375
-32.958984375
-43.02978515625
-27.4658203125
-20.1416015625
-13.73291015625
-31.1279296875
-13.73291015625
-21.05712890625
-16.4794921875
-18.310546875
2.74658203125
-0.91552734375
-0.91552734375
0
0.91552734375
14.6484375
29.296875
22.88818359375
11.90185546875
2.74658203125
21.05712890625
48.52294921875
5.4931640625
22.88818359375
5.4931640625
3.662109375
-12.8173828125
-11.90185546875
-6.40869140625
-16.4794921875
-14.6484375
13.73291015625
11.90185546875
2.74658203125
16.4794921875
37.53662109375
32.958984375
51.26953125
53.1005859375
30.21240234375
37.53662109375
43.9453125
21.97265625
38.4521484375
54.01611328125
37.53662109375
12.8173828125
-6.40869140625
-5.4931640625
-12.8173828125
10.986328125
12.8173828125
6.40869140625
11.90185546875
35.70556640625
48.52294921875
41.19873046875
39.36767578125
65.00244140625
63.17138671875
54.01611328125
56.7626953125
48.52294921875
51.26953125
48.52294921875
47.607421875
66.83349609375
68.66455078125
68.66455078125
82.3974609375
66.83349609375
56.7626953125
82.3974609375
67.7490234375
78.7353515625
67.7490234375
59.50927734375
22.88818359375
17.39501953125
32.04345703125
19.22607421875
24.71923828125
27.4658203125
27.4658203125
28.38134765625
17.39501953125
17.39501953125
23.8037109375
-2.74658203125
41.19873046875
26.55029296875
15.56396484375
11.90185546875
-2.74658203125
-13.73291015625
-30.21240234375
-10.07080078125
-13.73291015625
-32.958984375
-24.71923828125
0.91552734375
-11.90185546875
-3.662109375
-21.05712890625
-34.7900390625
-51.26953125
-31.1279296875
-13.73291015625
-20.1416015625
-33.87451171875
-64.0869140625
17.39501953125
6.40869140625
-37.53662109375
-15.56396484375
2.74658203125
-2.74658203125
-44.86083984375
-19.22607421875
-31.1279296875
-9.1552734375
-37.53662109375
-17.39501953125
-4.57763671875
-8.23974609375
-61.34033203125
-41.19873046875
18.310546875
2.74658203125
-10.07080078125
4.57763671875
-26.55029296875
-42.1142578125
-21.05712890625
-34.7900390625
-32.04345703125
-39.36767578125
-32.958984375
-0.91552734375
2.74658203125
-3.662109375
17.39501953125
-4.57763671875
-38.4521484375
-37.53662109375
1.8310546875
22.88818359375
-9.1552734375
6.40869140625
-10.07080078125
-48.52294921875
-8.23974609375
-4.57763671875
13.73291015625
32.04345703125
5.4931640625
-9.1552734375
-29.296875
-45.7763671875
-65.00244140625
-44.86083984375
-13.73291015625
-12.8173828125
-42.1142578125
-32.04345703125
-21.97265625
-55.84716796875
-43.02978515625
-32.958984375
-45.7763671875
-21.97265625
-5.4931640625
-7.32421875
10.986328125
-56.7626953125
-52.18505859375
-43.9453125
-26.55029296875
-26.55029296875
6.40869140625
-14.6484375
-25.634765625
-15.56396484375
-36.62109375
-66.83349609375
-49.4384765625
-27.4658203125
-33.87451171875
-43.9453125
-53.1005859375
-43.9453125
-49.4384765625
-47.607421875
-51.26953125
-37.53662109375
-61.34033203125
-69.580078125
-56.7626953125
-49.4384765625
-71.4111328125
-38.4521484375
-27.4658203125
-44.86083984375
-33.87451171875
-27.4658203125
-23.8037109375
-67.7490234375
-63.17138671875
-47.607421875
-65.91796875
-61.34033203125
-48.52294921875
-32.04345703125
-16.4794921875
-10.07080078125
-3.662109375
-7.32421875
-9.1552734375
4.57763671875
21.05712890625
19.22607421875
41.19873046875
-13.73291015625
21.97265625
28.38134765625
26.55029296875
21.97265625
34.7900390625
26.55029296875
24.71923828125
21.97265625
19.22607421875
22.88818359375
34.7900390625
11.90185546875
-16.4794921875
-24.71923828125
-23.8037109375
-41.19873046875
-26.55029296875
-19.22607421875
2.74658203125
-19.22607421875
-38.4521484375
-59.50927734375
-73.2421875
-82.3974609375
-78.7353515625
-73.2421875
-94.29931640625
-69.580078125
-97.0458984375
-83.31298828125
-60.4248046875
-86.0595703125
-108.0322265625
-61.34033203125
-78.7353515625
-75.0732421875
-75.98876953125
-57.67822265625
-71.4111328125
-61.34033203125
-67.7490234375
-84.228515625
-59.50927734375
-63.17138671875
-72.32666015625
-63.17138671875
-54.931640625
-59.50927734375
-64.0869140625
-67.7490234375
-66.83349609375
-33.87451171875
-35.70556640625
-47.607421875
-81.48193359375
-92.46826171875
-109.86328125
-119.0185546875
-111.6943359375
-108.0322265625
-52.18505859375
-15.56396484375
1.8310546875
62.255859375
163.87939453125
320.4345703125
439.453125
541.07666015625
651.85546875
744.32373046875
843.20068359375
967.71240234375
1099.54833984375
1167.29736328125
1161.80419921875
1082.1533203125
821.22802734375
485.2294921875
194.091796875
-41.19873046875
-129.08935546875
-97.96142578125
-65.91796875
-44.86083984375
-33.87451171875
-18.310546875
-21.05712890625
-5.4931640625
36.62109375
24.71923828125
-13.73291015625
13.73291015625
16.4794921875
-10.986328125
-4.57763671875
-6.40869140625
-13.73291015625
-30.21240234375
-33.87451171875
-18.310546875
-51.26953125
-32.04345703125
-36.62109375
-33.87451171875
-39.36767578125
-52.18505859375
-43.9453125
-21.05712890625
-16.4794921875
-25.634765625
-29.296875
-21.05712890625
-42.1142578125
-58.59375
-57.67822265625
-37.53662109375
-38.4521484375
-40.283203125
-43.9453125
-51.26953125
-27.4658203125
-32.04345703125
-23.8037109375
-21.05712890625
-46.69189453125
-23.8037109375
-14.6484375
-54.01611328125
-43.02978515625
-7.32421875
9.1552734375
-34.7900390625
-4.57763671875
-12.8173828125
0.91552734375
-11.90185546875
-15.56396484375
-30.21240234375
-34.7900390625
-43.02978515625
-9.1552734375
-0.91552734375
-30.21240234375
-17.39501953125
-19.22607421875
-9.1552734375
-20.1416015625
-43.9453125
-42.1142578125
0.91552734375
2.74658203125
-15.56396484375
-12.8173828125
-2.74658203125
-11.90185546875
10.986328125
-1.8310546875
2.74658203125
-6.40869140625
-8.23974609375
0
-11.90185546875
4.57763671875
16.4794921875
25.634765625
36.62109375
33.87451171875
34.7900390625
22.88818359375
16.4794921875
16.4794921875
0.91552734375
28.38134765625
29.296875
6.40869140625
-3.662109375
20.1416015625
32.04345703125
25.634765625
25.634765625
11.90185546875
20.1416015625
43.02978515625
29.296875
9.1552734375
15.56396484375
22.88818359375
24.71923828125
53.1005859375
16.4794921875
4.57763671875
21.97265625
54.931640625
36.62109375
32.04345703125
41.19873046875
51.26953125
38.4521484375
29.296875
35.70556640625
40.283203125
21.97265625
47.607421875
58.59375
68.66455078125
45.7763671875
65.00244140625
42.1142578125
42.1142578125
39.36767578125
50.35400390625
37.53662109375
24.71923828125
35.70556640625
27.4658203125
17.39501953125
-8.23974609375
20.1416015625
37.53662109375
18.310546875
-5.4931640625
10.986328125
-5.4931640625
9.1552734375
-3.662109375
11.90185546875
17.39501953125
-13.73291015625
-15.56396484375
-39.36767578125
-32.04345703125
-34.7900390625
-48.52294921875
-30.21240234375
-14.6484375
-2.74658203125
-38.4521484375
-41.19873046875
-36.62109375
-39.36767578125
-48.52294921875
-37.53662109375
-26.55029296875
-38.4521484375
-40.283203125
-38.4521484375
-27.4658203125
-46.69189453125
-58.59375
-46.69189453125
-12.8173828125
8.23974609375
-51.26953125
-41.19873046875
-41.19873046875
-36.62109375
-32.04345703125
-21.05712890625
-39.36767578125
-43.9453125
-23.8037109375
-36.62109375
-10.07080078125
-6.40869140625
-10.07080078125
-0.91552734375
-10.07080078125
-8.23974609375
15.56396484375
5.4931640625
-6.40869140625
-9.1552734375
-7.32421875
-17.39501953125
-21.05712890625
-1.8310546875
8.23974609375
26.55029296875
32.958984375
40.283203125
12.8173828125
-29.296875
-47.607421875
-44.86083984375
-52.18505859375
-49.4384765625
-58.59375
-29.296875
-32.04345703125
-10.986328125
-25.634765625
-37.53662109375
-26.55029296875
-37.53662109375
-32.958984375
-45.7763671875
-34.7900390625
-21.97265625
-17.39501953125
-28.38134765625
-31.1279296875
-29.296875
-26.55029296875
-9.1552734375
2.74658203125
-24.71923828125
-37.53662109375
-14.6484375
-17.39501953125
-46.69189453125
-43.9453125
-41.19873046875
-45.7763671875
-27.4658203125
-46.69189453125
-52.18505859375
-33.87451171875
-22.88818359375
-43.9453125
-29.296875
-26.55029296875
-42.1142578125
7.32421875
5.4931640625
0
-24.71923828125
-51.26953125
-71.4111328125
-65.00244140625
-58.59375
-35.70556640625
-59.50927734375
-47.607421875
-19.22607421875
-29.296875
-47.607421875
-35.70556640625
-20.1416015625
1.8310546875
10.986328125
-15.56396484375
-22.88818359375
-27.4658203125
-17.39501953125
-20.1416015625
-11.90185546875
-14.6484375
9.1552734375
25.634765625
13.73291015625
30.21240234375
20.1416015625
15.56396484375
32.04345703125
26.55029296875
45.7763671875
12.8173828125
-9.1552734375
-1.8310546875
8.23974609375
24.71923828125
44.86083984375
5.4931640625
-8.23974609375
-19.22607421875
-30.21240234375
-11.90185546875
-18.310546875
-21.97265625
-24.71923828125
-68.66455078125
-66.83349609375
-70.49560546875
-85.14404296875
-75.0732421875
-47.607421875
-53.1005859375
-69.580078125
-73.2421875
-87.890625
-69.580078125
-76.904296875
-71.4111328125
-81.48193359375
-87.890625
-85.14404296875
-75.98876953125
-73.2421875
-80.56640625
-76.904296875
-78.7353515625
-60.4248046875
-87.890625
-85.14404296875
-75.98876953125
-79.65087890625
-94.29931640625
-80.56640625
-69.580078125
-73.2421875
-63.17138671875
-73.2421875
-69.580078125
-92.46826171875
-103.45458984375
-78.7353515625
-81.48193359375
-116.27197265625
-136.41357421875
-119.0185546875
-97.96142578125
-83.31298828125
-22.88818359375
65.91796875
188.5986328125
295.71533203125
382.6904296875
545.654296875
674.74365234375
757.14111328125
808.41064453125
975.03662109375
1107.7880859375
1157.2265625
1164.55078125
1054.6875
842.28515625
498.046875
214.2333984375
-58.59375
-162.9638671875
-110.77880859375
-86.97509765625
-62.255859375
-70.49560546875
-48.52294921875
-6.40869140625
-21.05712890625
0
-11.90185546875
3.662109375
2.74658203125
-8.23974609375
-19.22607421875
-7.32421875
24.71923828125
-7.32421875
-54.01611328125
-55.84716796875
-66.83349609375
-69.580078125
-50.35400390625
-33.87451171875
-53.1005859375
-53.1005859375
-36.62109375
-37.53662109375
-43.02978515625
-36.62109375
-58.59375
-58.59375
-39.36767578125
-54.931640625
-48.52294921875
-23.8037109375
-43.02978515625
-51.26953125
-45.7763671875
-37.53662109375
-48.52294921875
-43.02978515625
-47.607421875
-40.283203125
-46.69189453125
-50.35400390625
-32.04345703125
-51.26953125
-52.18505859375
-39.36767578125
-40.283203125
-47.607421875
-32.04345703125
-28.38134765625
-9.1552734375
-38.4521484375
-25.634765625
-13.73291015625
-15.56396484375
-34.7900390625
-43.02978515625
-41.19873046875
-32.958984375
2.74658203125
-16.4794921875
-17.39501953125
-26.55029296875
-22.88818359375
-17.39501953125
-11.90185546875
-12.8173828125
2.74658203125
0
2.74658203125
5.4931640625
-3.662109375
-6.40869140625
-16.4794921875
2.74658203125
1.8310546875
5.4931640625
6.40869140625
-14.6484375
-10.986328125
7.32421875
-8.23974609375
2.74658203125
-0.91552734375
13.73291015625
13.73291015625
5.4931640625
6.40869140625
9.1552734375
18.310546875
20.1416015625
16.4794921875
31.1279296875
15.56396484375
0
5.4931640625
10.986328125
19.22607421875
13.73291015625
24.71923828125
9.1552734375
18.310546875
24.71923828125
24.71923828125
21.97265625
19.22607421875
26.55029296875
23.8037109375
21.97265625
14.6484375
36.62109375
29.296875
29.296875
57.67822265625
24.71923828125
21.97265625
37.53662109375
43.02978515625
16.4794921875
31.1279296875
28.38134765625
28.38134765625
24.71923828125
54.01611328125
21.97265625
22.88818359375
6.40869140625
21.97265625
20.1416015625
12.8173828125
8.23974609375
26.55029296875
23.8037109375
10.07080078125
-6.40869140625
-11.90185546875
-10.986328125
-35.70556640625
-33.87451171875
-15.56396484375
-35.70556640625
-18.310546875
-27.4658203125
-38.4521484375
-44.86083984375
-26.55029296875
-26.55029296875
-27.4658203125
-36.62109375
-33.87451171875
-18.310546875
-69.580078125
-51.26953125
-54.931640625
-49.4384765625
-47.607421875
-39.36767578125
-38.4521484375
-62.255859375
-69.580078125
-53.1005859375
-47.607421875
-47.607421875
-36.62109375
-33.87451171875
-21.05712890625
-43.02978515625
-42.1142578125
-52.18505859375
-39.36767578125
-49.4384765625
-43.02978515625
-48.52294921875
-30.21240234375
-39.36767578125
-58.59375
-52.18505859375
-38.4521484375
-43.9453125
-38.4521484375
-28.38134765625
-26.55029296875
-30.21240234375
-52.18505859375
-46.69189453125
-31.1279296875
-24.71923828125
-43.02978515625
-35.70556640625
-26.55029296875
-35.70556640625
-52.18505859375
-45.7763671875
-40.283203125
-47.607421875
-40.283203125
-34.7900390625
-37.53662109375
-50.35400390625
-44.86083984375
-41.19873046875
-42.1142578125
-48.52294921875
-50.35400390625
-45.7763671875
-47.607421875
-29.296875
-44.86083984375
-41.19873046875
-36.62109375
-37.53662109375
-54.01611328125
-37.53662109375
-46.69189453125
-61.34033203125
-50.35400390625
-52.18505859375
-51.26953125
-42.1142578125
-54.931640625
-49.4384765625
-48.52294921875
-43.02978515625
-49.4384765625
-43.9453125
-66.83349609375
-49.4384765625
-51.26953125
-60.4248046875
-61.34033203125
-53.1005859375
-60.4248046875
-55.84716796875
-48.52294921875
-52.18505859375
-57.67822265625
-70.49560546875
-60.4248046875
-63.17138671875
-58.59375
-60.4248046875
-61.34033203125
-59.50927734375
-58.59375
-54.931640625
-53.1005859375
-71.4111328125
-72.32666015625
-70.49560546875
-65.00244140625
-75.98876953125
-63.17138671875
-59.50927734375
-48.52294921875
-33.87451171875
-31.1279296875
-10.07080078125
-22.88818359375
-24.71923828125
-28.38134765625
-38.4521484375
-21.97265625
-6.40869140625
-0.91552734375
10.986328125
21.97265625
20.1416015625
21.97265625
23.8037109375
14.6484375
-7.32421875
1.8310546875
-0.91552734375
-2.74658203125
-8.23974609375
-2.74658203125
0
-10.07080078125
-24.71923828125
-29.296875
-36.62109375
-39.36767578125
-56.7626953125
-59.50927734375
-69.580078125
-69.580078125
-76.904296875
-80.56640625
-98.876953125
-97.0458984375
-83.31298828125
-85.14404296875
-88.80615234375
-81.48193359375
-76.904296875
-76.904296875
-76.904296875
-85.14404296875
-78.7353515625
-83.31298828125
-88.80615234375
-81.48193359375
-94.29931640625
-97.96142578125
-96.13037109375
-89.7216796875
-84.228515625
-88.80615234375
-94.29931640625
-95.21484375
-86.97509765625
-74.15771484375
-94.29931640625
-92.46826171875
-78.7353515625
-78.7353515625
-90.63720703125
-97.0458984375
-101.62353515625
-115.3564453125
-130.0048828125
-132.75146484375
-138.24462890625
-126.3427734375
-109.86328125
-83.31298828125
-33.87451171875
34.7900390625
143.73779296875
260.92529296875
367.12646484375
507.2021484375
628.0517578125
708.6181640625
807.4951171875
942.9931640625
1071.1669921875
1130.67626953125
1146.240234375
1062.92724609375
851.4404296875
487.97607421875
187.68310546875
-27.4658203125
-127.25830078125
-120.849609375
-91.552734375
-68.66455078125
-66.83349609375
-44.86083984375
-7.32421875
0
8.23974609375
0
-14.6484375
-22.88818359375
-43.9453125
-41.19873046875
-41.19873046875
-40.283203125
-51.26953125
-51.26953125
-65.00244140625
-52.18505859375
-64.0869140625
-52.18505859375
-43.9453125
-59.50927734375
-48.52294921875
-46.69189453125
-53.1005859375
-56.7626953125
-60.4248046875
-54.931640625
-48.52294921875
-44.86083984375
-53.1005859375
-46.69189453125
-48.52294921875
-54.01611328125
-43.9453125
-48.52294921875
-53.1005859375
-53.1005859375
-56.7626953125
-53.1005859375
-49.4384765625
-44.86083984375
-49.4384765625
-43.02978515625
-43.9453125
-43.02978515625
-33.87451171875
-43.02978515625
-50.35400390625
-34.7900390625
-41.19873046875
-43.9453125
-37.53662109375
-37.53662109375
-32.958984375
-33.87451171875
-39.36767578125
-19.22607421875
-16.4794921875
-22.88818359375
-22.88818359375
-23.8037109375
-14.6484375
-21.97265625
-20.1416015625
-28.38134765625
-13.73291015625
-17.39501953125
-15.56396484375
-11.90185546875
-10.986328125
-5.4931640625
-1.8310546875
-10.986328125
-2.74658203125
-5.4931640625
-2.74658203125
6.40869140625
0
2.74658203125
5.4931640625
11.90185546875
9.1552734375
7.32421875
7.32421875
5.4931640625
11.90185546875
18.310546875
21.97265625
21.97265625
18.310546875
26.55029296875
28.38134765625
19.22607421875
21.97265625
19.22607421875
27.4658203125
22.88818359375
30.21240234375
30.21240234375
28.38134765625
28.38134765625
31.1279296875
32.04345703125
34.7900390625
30.21240234375
39.36767578125
35.70556640625
44.86083984375
38.4521484375
35.70556640625
43.9453125
31.1279296875
29.296875
31.1279296875
42.1142578125
41.19873046875
33.87451171875
30.21240234375
39.36767578125
38.4521484375
41.19873046875
44.86083984375
49.4384765625
46.69189453125
40.283203125
47.607421875
39.36767578125
35.70556640625
32.958984375
26.55029296875
20.1416015625
14.6484375
0
2.74658203125
-1.8310546875
-5.4931640625
-7.32421875
0.91552734375
3.662109375
-4.57763671875
-7.32421875
-15.56396484375
-18.310546875
-5.4931640625
-6.40869140625
-17.39501953125
-26.55029296875
-26.55029296875
-32.958984375
-32.04345703125
-28.38134765625
-31.1279296875
-36.62109375
-29.296875
-32.04345703125
-41.19873046875
-41.19873046875
-43.9453125
-34.7900390625
-38.4521484375
-45.7763671875
-37.53662109375
-37.53662109375
-37.53662109375
-41.19873046875
-39.36767578125
-36.62109375
-35.70556640625
-33.87451171875
-32.958984375
-34.7900390625
-28.38134765625
-23.8037109375
-26.55029296875
-27.4658203125
-29.296875
-39.36767578125
-34.7900390625
-22.88818359375
-24.71923828125
-28.38134765625
-39.36767578125
-29.296875
-26.55029296875
-30.21240234375
-32.04345703125
-27.4658203125
-25.634765625
-21.97265625
-19.22607421875
-24.71923828125
-25.634765625
-24.71923828125
-28.38134765625
-25.634765625
-22.88818359375
-24.71923828125
-22.88818359375
-22.88818359375
-18.310546875
-25.634765625
-31.1279296875
-43.02978515625
-37.53662109375
-36.62109375
-30.21240234375
-36.62109375
-32.04345703125
-30.21240234375
-29.296875
-31.1279296875
-26.55029296875
-30.21240234375
-33.87451171875
-31.1279296875
-27.4658203125
-30.21240234375
-31.1279296875
-31.1279296875
-28.38134765625
-29.296875
-25.634765625
-30.21240234375
-34.7900390625
-36.62109375
-36.62109375
-40.283203125
-38.4521484375
-40.283203125
-40.283203125
-32.958984375
-35.70556640625
-39.36767578125
-33.87451171875
-43.9453125
-48.52294921875
-44.86083984375
-39.36767578125
-45.7763671875
-45.7763671875
-44.86083984375
-51.26953125
-49.4384765625
-50.35400390625
-58.59375
-54.931640625
-48.52294921875
-53.1005859375
-55.84716796875
-52.18505859375
-37.53662109375
-32.04345703125
-20.1416015625
-16.4794921875
-0.91552734375
-4.57763671875
-9.1552734375
-10.07080078125
-3.662109375
15.56396484375
15.56396484375
16.4794921875
29.296875
39.36767578125
38.4521484375
37.53662109375
29.296875
24.71923828125
15.56396484375
12.8173828125
13.73291015625
15.56396484375
10.07080078125
4.57763671875
2.74658203125
-2.74658203125
-17.39501953125
-25.634765625
-28.38134765625
-38.4521484375
-46.69189453125
-53.1005859375
-53.1005859375
-69.580078125
-77.81982421875
-71.4111328125
-65.91796875
-80.56640625
-88.80615234375
-74.15771484375
-66.83349609375
-74.15771484375
-75.98876953125
-84.228515625
-89.7216796875
-90.63720703125
-81.48193359375
-79.65087890625
-77.81982421875
-74.15771484375
-81.48193359375
-67.7490234375
-86.0595703125
-76.904296875
-76.904296875
-65.00244140625
-69.580078125
-77.81982421875
-74.15771484375
-75.0732421875
-81.48193359375
-81.48193359375
-75.98876953125
-74.15771484375
-76.904296875
-81.48193359375
-81.48193359375
-90.63720703125
-108.0322265625
-118.10302734375
-115.3564453125
-104.3701171875
-75.0732421875
-41.19873046875
10.07080078125
107.11669921875
216.97998046875
326.84326171875
450.439453125
575.86669921875
667.41943359375
757.14111328125
864.2578125
998.84033203125
1113.28125
1147.15576171875
1120.60546875
964.05029296875
671.9970703125
353.3935546875
117.1875
-73.2421875
-100.7080078125
-82.3974609375
-62.255859375
-55.84716796875
-32.04345703125
-2.74658203125
10.07080078125
10.986328125
5.4931640625
-3.662109375
-6.40869140625
-17.39501953125
-26.55029296875
-32.04345703125
-31.1279296875
-37.53662109375
-45.7763671875
-41.19873046875
-47.607421875
-41.19873046875
-38.4521484375
-47.607421875
-47.607421875
-45.7763671875
-48.52294921875
-44.86083984375
-38.4521484375
-44.86083984375
-47.607421875
-43.02978515625
-43.02978515625
-46.69189453125
-54.01611328125
-50.35400390625
-46.69189453125
-48.52294921875
-46.69189453125
-51.26953125
-40.283203125
-43.02978515625
-37.53662109375
-34.7900390625
-32.04345703125
-39.36767578125
-33.87451171875
-38.4521484375
-40.283203125
-36.62109375
-33.87451171875
-37.53662109375
-40.283203125
-44.86083984375
-43.9453125
-34.7900390625
-36.62109375
-35.70556640625
-32.958984375
-25.634765625
-22.88818359375
-20.1416015625
-21.05712890625
-23.8037109375
-24.71923828125
-19.22607421875
-18.310546875
-15.56396484375
-11.90185546875
-19.22607421875
-13.73291015625
-17.39501953125
-13.73291015625
-10.07080078125
-10.986328125
-11.90185546875
-11.90185546875
-4.57763671875
-3.662109375
0.91552734375
-4.57763671875
-6.40869140625
0.91552734375
1.8310546875
-2.74658203125
1.8310546875
3.662109375
14.6484375
7.32421875
10.07080078125
7.32421875
10.07080078125
13.73291015625
13.73291015625
15.56396484375
14.6484375
14.6484375
17.39501953125
22.88818359375
17.39501953125
11.90185546875
14.6484375
15.56396484375
20.1416015625
22.88818359375
22.88818359375
21.97265625
24.71923828125
31.1279296875
32.958984375
34.7900390625
42.1142578125
36.62109375
38.4521484375
36.62109375
38.4521484375
41.19873046875
39.36767578125
39.36767578125
39.36767578125
43.9453125
42.1142578125
43.02978515625
43.9453125
43.02978515625
41.19873046875
39.36767578125
46.69189453125
43.02978515625
32.04345703125
20.1416015625
23.8037109375
38.4521484375
27.4658203125
28.38134765625
21.05712890625
12.8173828125
12.8173828125
6.40869140625
1.8310546875
-8.23974609375
-6.40869140625
-2.74658203125
-13.73291015625
-21.05712890625
-27.4658203125
-21.05712890625
-16.4794921875
-15.56396484375
-19.22607421875
-21.97265625
-28.38134765625
-24.71923828125
-31.1279296875
-34.7900390625
-34.7900390625
-37.53662109375
-36.62109375
-43.02978515625
-43.9453125
-42.1142578125
-46.69189453125
-43.9453125
-43.02978515625
-41.19873046875
-40.283203125
-39.36767578125
-38.4521484375
-41.19873046875
-38.4521484375
-44.86083984375
-43.02978515625
-38.4521484375
-38.4521484375
-39.36767578125
-44.86083984375
-54.01611328125
-47.607421875
-40.283203125
-35.70556640625
-34.7900390625
-33.87451171875
-30.21240234375
-29.296875
-32.958984375
-36.62109375
-32.04345703125
-32.04345703125
-32.958984375
-34.7900390625
-32.958984375
-32.958984375
-34.7900390625
-33.87451171875
-37.53662109375
-35.70556640625
-35.70556640625
-32.958984375
-26.55029296875
-28.38134765625
-24.71923828125
-30.21240234375
-23.8037109375
-25.634765625
-24.71923828125
-26.55029296875
-23.8037109375
-18.310546875
-28.38134765625
-26.55029296875
-30.21240234375
-36.62109375
-30.21240234375
-31.1279296875
-35.70556640625
-32.04345703125
-32.04345703125
-31.1279296875
-34.7900390625
-42.1142578125
-41.19873046875
-35.70556640625
-37.53662109375
-35.70556640625
-37.53662109375
-33.87451171875
-38.4521484375
-42.1142578125
-46.69189453125
-44.86083984375
-47.607421875
-45.7763671875
-45.7763671875
-47.607421875
-49.4384765625
-44.86083984375
-47.607421875
-48.52294921875
-42.1142578125
-53.1005859375
-54.931640625
-51.26953125
-54.01611328125
-57.67822265625
-53.1005859375
-64.0869140625
-63.17138671875
-55.84716796875
-61.34033203125
-54.931640625
-62.255859375
-59.50927734375
-61.34033203125
-69.580078125
-70.49560546875
-55.84716796875
-62.255859375
-65.00244140625
-67.7490234375
-67.7490234375
-66.83349609375
-75.98876953125
-74.15771484375
-69.580078125
-65.00244140625
-65.91796875
-65.00244140625
-66.83349609375
-60.4248046875
-58.59375
-60.4248046875
-62.255859375
-65.91796875
-61.34033203125
-61.34033203125
-63.17138671875
-66.83349609375
-72.32666015625
-66.83349609375
-65.91796875
-66.83349609375
-65.00244140625
-63.17138671875
-63.17138671875
-56.7626953125
-50.35400390625
-32.04345703125
-28.38134765625
-15.56396484375
-19.22607421875
-10.07080078125
-21.05712890625
-32.04345703125
-27.4658203125
2.74658203125
1.8310546875
9.1552734375
30.21240234375
32.04345703125
22.88818359375
29.296875
11.90185546875
0.91552734375
1.8310546875
-0.91552734375
4.57763671875
7.32421875
2.74658203125
-3.662109375
-17.39501953125
-32.04345703125
-40.283203125
-39.36767578125
-46.69189453125
-52.18505859375
-53.1005859375
-56.7626953125
-62.255859375
-66.83349609375
-79.65087890625
-81.48193359375
-77.81982421875
-78.7353515625
-84.228515625
-82.3974609375
-86.0595703125
-90.63720703125
-90.63720703125
-90.63720703125
-97.0458984375
-99.79248046875
-98.876953125
-98.876953125
-97.96142578125
-92.46826171875
-97.0458984375
-97.96142578125
-86.97509765625
-75.0732421875
-86.97509765625
-85.14404296875
-84.228515625
-92.46826171875
-94.29931640625
-88.80615234375
-86.97509765625
-85.14404296875
-86.97509765625
-86.97509765625
-90.63720703125
-94.29931640625
-97.0458984375
-111.6943359375
-114.44091796875
-122.6806640625
-129.08935546875
-130.92041015625
-110.77880859375
-79.65087890625
-39.36767578125
33.87451171875
135.498046875
228.8818359375
339.66064453125
462.34130859375
568.54248046875
663.75732421875
778.1982421875
903.62548828125
1028.13720703125
1086.73095703125
1087.646484375
1009.82666015625
791.015625
463.2568359375
208.740234375
17.39501953125
-78.7353515625
-86.97509765625
-70.49560546875
-54.931640625
-38.4521484375
-10.986328125
10.07080078125
6.40869140625
-10.07080078125
-24.71923828125
-29.296875
-32.958984375
-22.88818359375
-38.4521484375
-41.19873046875
-48.52294921875
-49.4384765625
-38.4521484375
-49.4384765625
-54.01611328125
-50.35400390625
-49.4384765625
-51.26953125
-48.52294921875
-50.35400390625
-53.1005859375
-55.84716796875
-54.01611328125
-51.26953125
-54.01611328125
-54.01611328125
-49.4384765625
-51.26953125
-54.01611328125
-49.4384765625
-54.931640625
-53.1005859375
-49.4384765625
-49.4384765625
-49.4384765625
-48.52294921875
-46.69189453125
-46.69189453125
-50.35400390625
-48.52294921875
-49.4384765625
-43.02978515625
-40.283203125
-38.4521484375
-39.36767578125
-43.9453125
-39.36767578125
-40.283203125
-41.19873046875
-31.1279296875
-32.04345703125
-43.02978515625
-40.283203125
-43.02978515625
-33.87451171875
-35.70556640625
-39.36767578125
-34.7900390625
-29.296875
-28.38134765625
-30.21240234375
-23.8037109375
-22.88818359375
-28.38134765625
-28.38134765625
-22.88818359375
-20.1416015625
-20.1416015625
-22.88818359375
-21.05712890625
-18.310546875
-21.05712890625
-23.8037109375
-22.88818359375
-23.8037109375
-22.88818359375
-16.4794921875
-15.56396484375
-10.07080078125
-6.40869140625
-4.57763671875
-3.662109375
1.8310546875
0
-1.8310546875
3.662109375
1.8310546875
-1.8310546875
-3.662109375
0.91552734375
3.662109375
0.91552734375
2.74658203125
5.4931640625
5.4931640625
0.91552734375
3.662109375
8.23974609375
11.90185546875
10.07080078125
10.986328125
19.22607421875
14.6484375
12.8173828125
12.8173828125
20.1416015625
11.90185546875
13.73291015625
16.4794921875
17.39501953125
21.97265625
20.1416015625
25.634765625
28.38134765625
22.88818359375
25.634765625
27.4658203125
28.38134765625
30.21240234375
27.4658203125
21.97265625
27.4658203125
28.38134765625
27.4658203125
24.71923828125
21.05712890625
13.73291015625
10.07080078125
10.07080078125
6.40869140625
3.662109375
3.662109375
0.91552734375
-2.74658203125
-2.74658203125
-9.1552734375
-7.32421875
-14.6484375
-21.97265625
-25.634765625
-21.05712890625
-14.6484375
-25.634765625
-33.87451171875
-36.62109375
-31.1279296875
-38.4521484375
-37.53662109375
-35.70556640625
-36.62109375
-34.7900390625
-34.7900390625
-36.62109375
-33.87451171875
-33.87451171875
-37.53662109375
-31.1279296875
-32.958984375
-35.70556640625
-38.4521484375
-37.53662109375
-33.87451171875
-36.62109375
-40.283203125
-38.4521484375
-34.7900390625
-37.53662109375
-30.21240234375
-27.4658203125
-37.53662109375
-43.9453125
-43.02978515625
-34.7900390625
-32.04345703125
-32.958984375
-32.958984375
-29.296875
-28.38134765625
-31.1279296875
-31.1279296875
-28.38134765625
-26.55029296875
-29.296875
-25.634765625
-23.8037109375
-31.1279296875
-33.87451171875
-38.4521484375
-36.62109375
-33.87451171875
-31.1279296875
-36.62109375
-38.4521484375
-28.38134765625
-29.296875
-34.7900390625
-34.7900390625
-30.21240234375
-22.88818359375
-21.97265625
-21.05712890625
-21.97265625
-27.4658203125
-27.4658203125
-23.8037109375
-27.4658203125
-27.4658203125
-29.296875
-23.8037109375
-22.88818359375
-33.87451171875
-28.38134765625
-40.283203125
-39.36767578125
-36.62109375
-32.958984375
-34.7900390625
-42.1142578125
-47.607421875
-36.62109375
-30.21240234375
-37.53662109375
-35.70556640625
-31.1279296875
-41.19873046875
-36.62109375
-42.1142578125
-42.1142578125
-43.02978515625
-45.7763671875
-46.69189453125
-44.86083984375
-42.1142578125
-46.69189453125
-46.69189453125
-43.02978515625
-44.86083984375
-50.35400390625
-54.01611328125
-55.84716796875
-56.7626953125
-56.7626953125
-61.34033203125
-56.7626953125
-51.26953125
-43.02978515625
-42.1142578125
-52.18505859375
-55.84716796875
-61.34033203125
-59.50927734375
-54.931640625
-58.59375
-60.4248046875
-60.4248046875
-49.4384765625
-42.1142578125
-61.34033203125
-58.59375
-51.26953125
-60.4248046875
-58.59375
-64.0869140625
-62.255859375
-57.67822265625
-60.4248046875
-56.7626953125
-56.7626953125
-60.4248046875
-61.34033203125
-57.67822265625
-62.255859375
-66.83349609375
-67.7490234375
-66.83349609375
-65.00244140625
-66.83349609375
-63.17138671875
-65.91796875
-68.66455078125
-68.66455078125
-63.17138671875
-54.931640625
-48.52294921875
-42.1142578125
-27.4658203125
-12.8173828125
-18.310546875
-13.73291015625
-25.634765625
-21.05712890625
-20.1416015625
-10.07080078125
7.32421875
18.310546875
31.1279296875
38.4521484375
35.70556640625
32.04345703125
22.88818359375
23.8037109375
8.23974609375
-4.57763671875
0
10.07080078125
5.4931640625
6.40869140625
2.74658203125
-16.4794921875
-26.55029296875
-30.21240234375
-33.87451171875
-39.36767578125
-48.52294921875
-53.1005859375
-55.84716796875
-60.4248046875
-75.98876953125
-73.2421875
-73.2421875
-80.56640625
-80.56640625
-85.14404296875
-89.7216796875
-80.56640625
-83.31298828125
-85.14404296875
-85.14404296875
-87.890625
-87.890625
-84.228515625
-84.228515625
-87.890625
-91.552734375
-88.80615234375
-85.14404296875
-82.3974609375
-86.0595703125
-81.48193359375
-85.14404296875
-88.80615234375
-87.890625
-86.97509765625
-85.14404296875
-86.0595703125
-80.56640625
-79.65087890625
-81.48193359375
-90.63720703125
-90.63720703125
-99.79248046875
-114.44091796875
-126.3427734375
-119.93408203125
-128.173828125
-110.77880859375
-68.66455078125
-22.88818359375
47.607421875
151.06201171875
252.685546875
370.78857421875
494.384765625
589.599609375
680.23681640625
795.59326171875
937.5
1065.673828125
1109.619140625
1101.37939453125
992.431640625
726.9287109375
394.59228515625
157.470703125
-23.8037109375
-81.48193359375
-78.7353515625
-51.26953125
-34.7900390625
-19.22607421875
10.07080078125
21.05712890625
18.310546875
15.56396484375
5.4931640625
-5.4931640625
-9.1552734375
-22.88818359375
-26.55029296875
-32.958984375
-37.53662109375
-31.1279296875
-37.53662109375
-39.36767578125
-35.70556640625
-43.02978515625
-47.607421875
-52.18505859375
-46.69189453125
-50.35400390625
-48.52294921875
-45.7763671875
-40.283203125
-41.19873046875
-39.36767578125
-41.19873046875
-41.19873046875
-43.02978515625
-38.4521484375
-42.1142578125
-43.9453125
-43.02978515625
-49.4384765625
-45.7763671875
-44.86083984375
-43.9453125
-42.1142578125
-34.7900390625
-29.296875
-29.296875
-28.38134765625
-27.4658203125
-26.55029296875
-25.634765625
-27.4658203125
-25.634765625
-29.296875
-32.04345703125
-29.296875
-27.4658203125
-25.634765625
-25.634765625
-26.55029296875
-21.97265625
-21.05712890625
-24.71923828125
-21.05712890625
-22.88818359375
-27.4658203125
-18.310546875
-10.986328125
-14.6484375
-20.1416015625
-18.310546875
-13.73291015625
-10.07080078125
0.91552734375
0
0
0.91552734375
-10.07080078125
-6.40869140625
3.662109375
4.57763671875
7.32421875
8.23974609375
3.662109375
3.662109375
8.23974609375
5.4931640625
10.986328125
9.1552734375
8.23974609375
10.07080078125
10.07080078125
10.07080078125
14.6484375
19.22607421875
17.39501953125
16.4794921875
21.97265625
21.97265625
19.22607421875
21.05712890625
24.71923828125
19.22607421875
18.310546875
21.97265625
19.22607421875
15.56396484375
22.88818359375
20.1416015625
19.22607421875
20.1416015625
27.4658203125
17.39501953125
15.56396484375
21.05712890625
23.8037109375
19.22607421875
20.1416015625
25.634765625
21.97265625
27.4658203125
31.1279296875
37.53662109375
33.87451171875
31.1279296875
30.21240234375
21.97265625
19.22607421875
24.71923828125
26.55029296875
28.38134765625
30.21240234375
27.4658203125
27.4658203125
33.87451171875
33.87451171875
25.634765625
27.4658203125
17.39501953125
23.8037109375
17.39501953125
12.8173828125
9.1552734375
2.74658203125
-3.662109375
-19.22607421875
-24.71923828125
-22.88818359375
-20.1416015625
-14.6484375
-11.90185546875
-9.1552734375
-4.57763671875
-1.8310546875
-6.40869140625
-10.986328125
-16.4794921875
-20.1416015625
-15.56396484375
-19.22607421875
-18.310546875
-17.39501953125
-18.310546875
-27.4658203125
-30.21240234375
-23.8037109375
-16.4794921875
-15.56396484375
-10.07080078125
-8.23974609375
-14.6484375
-5.4931640625
-7.32421875
-11.90185546875
-10.986328125
-10.07080078125
-13.73291015625
-11.90185546875
-13.73291015625
-15.56396484375
-14.6484375
-14.6484375
-13.73291015625
-18.310546875
-13.73291015625
-0.91552734375
-9.1552734375
-10.07080078125
0
1.8310546875
-2.74658203125
0
-6.40869140625
-8.23974609375
-3.662109375
0.91552734375
-8.23974609375
-3.662109375
-2.74658203125
-2.74658203125
-4.57763671875
-3.662109375
1.8310546875
-2.74658203125
-7.32421875
-9.1552734375
-13.73291015625
-18.310546875
-16.4794921875
-10.986328125
-9.1552734375
-8.23974609375
-4.57763671875
-4.57763671875
-6.40869140625
-5.4931640625
-14.6484375
-16.4794921875
-14.6484375
-16.4794921875
-19.22607421875
-18.310546875
-14.6484375
-17.39501953125
-23.8037109375
-27.4658203125
-30.21240234375
-23.8037109375
-17.39501953125
-21.97265625
-26.55029296875
-22.88818359375
-23.8037109375
-33.87451171875
-32.958984375
-32.04345703125
-32.04345703125
-27.4658203125
-26.55029296875
-33.87451171875
-38.4521484375
-38.4521484375
-36.62109375
-36.62109375
-33.87451171875
-35.70556640625
-29.296875
-36.62109375
-38.4521484375
-33.87451171875
-32.04345703125
-31.1279296875
-40.283203125
-43.02978515625
-41.19873046875
-33.87451171875
-33.87451171875
-42.1142578125
-43.02978515625
-38.4521484375
-38.4521484375
-42.1142578125
-45.7763671875
-43.02978515625
-46.69189453125
-51.26953125
-46.69189453125
-38.4521484375
-41.19873046875
-47.607421875
-54.01611328125
-52.18505859375
-51.26953125
-46.69189453125
-40.283203125
-41.19873046875
-41.19873046875
-35.70556640625
-32.04345703125
-35.70556640625
-44.86083984375
-43.02978515625
-35.70556640625
-46.69189453125
-46.69189453125
-46.69189453125
-44.86083984375
-41.19873046875
-43.9453125
-39.36767578125
-53.1005859375
-64.0869140625
-62.255859375
-55.84716796875
-51.26953125
-49.4384765625
-46.69189453125
-45.7763671875
-41.19873046875
-39.36767578125
-41.19873046875
-40.283203125
-42.1142578125
-41.19873046875
-39.36767578125
-42.1142578125
-47.607421875
-43.02978515625
-31.1279296875
-15.56396484375
-1.8310546875
8.23974609375
10.07080078125
5.4931640625
-2.74658203125
-8.23974609375
2.74658203125
21.97265625
29.296875
38.4521484375
43.9453125
40.283203125
42.1142578125
43.02978515625
32.958984375
30.21240234375
32.958984375
41.19873046875
39.36767578125
33.87451171875
17.39501953125
6.40869140625
5.4931640625
-1.8310546875
-0.91552734375
0.91552734375
-10.986328125
-28.38134765625
-36.62109375
-41.19873046875
-45.7763671875
-46.69189453125
-48.52294921875
-50.35400390625
-52.18505859375
-55.84716796875
-65.91796875
-60.4248046875
-58.59375
-64.0869140625
-65.00244140625
-61.34033203125
-58.59375
-61.34033203125
-66.83349609375
-69.580078125
-67.7490234375
-71.4111328125
-69.580078125
-64.0869140625
-64.0869140625
-65.91796875
-69.580078125
-74.15771484375
-75.98876953125
-71.4111328125
-64.0869140625
-57.67822265625
-49.4384765625
-51.26953125
-65.91796875
-72.32666015625
-74.15771484375
-85.14404296875
-110.77880859375
-121.76513671875
-116.27197265625
-93.3837890625
-72.32666015625
-39.36767578125
15.56396484375
115.3564453125
227.05078125
339.66064453125
471.49658203125
584.1064453125
662.841796875
769.04296875
901.79443359375
1041.8701171875
1128.84521484375
1132.50732421875
1081.23779296875
900.87890625
566.71142578125
271.91162109375
48.52294921875
-76.904296875
-86.0595703125
-65.00244140625
-38.4521484375
-28.38134765625
3.662109375
24.71923828125
31.1279296875
33.87451171875
26.55029296875
10.986328125
-3.662109375
-9.1552734375
-11.90185546875
-14.6484375
-10.07080078125
-14.6484375
-17.39501953125
-21.05712890625
-22.88818359375
-20.1416015625
-22.88818359375
-26.55029296875
-26.55029296875
-23.8037109375
-26.55029296875
-25.634765625
-33.87451171875
-31.1279296875
-26.55029296875
-31.1279296875
-28.38134765625
-34.7900390625
-35.70556640625
-35.70556640625
-40.283203125
-32.958984375
-24.71923828125
-21.05712890625
-17.39501953125
-21.05712890625
-14.6484375
-11.90185546875
-14.6484375
-15.56396484375
-17.39501953125
-14.6484375
-18.310546875
-16.4794921875
-17.39501953125
-15.56396484375
-7.32421875
-8.23974609375
-9.1552734375
-3.662109375
-10.07080078125
-14.6484375
-13.73291015625
-12.8173828125
-4.57763671875
1.8310546875
-8.23974609375
-12.8173828125
-4.57763671875
-3.662109375
1.8310546875
1.8310546875
-3.662109375
0.91552734375
1.8310546875
-3.662109375
-2.74658203125
3.662109375
4.57763671875
10.986328125
8.23974609375
4.57763671875
7.32421875
7.32421875
2.74658203125
1.8310546875
8.23974609375
9.1552734375
12.8173828125
15.56396484375
24.71923828125
20.1416015625
19.22607421875
18.310546875
20.1416015625
25.634765625
24.71923828125
24.71923828125
24.71923828125
20.1416015625
25.634765625
28.38134765625
23.8037109375
24.71923828125
26.55029296875
25.634765625
24.71923828125
15.56396484375
16.4794921875
20.1416015625
28.38134765625
21.05712890625
13.73291015625
14.6484375
21.05712890625
21.97265625
24.71923828125
22.88818359375
21.05712890625
20.1416015625
15.56396484375
14.6484375
20.1416015625
30.21240234375
26.55029296875
23.8037109375
22.88818359375
19.22607421875
17.39501953125
27.4658203125
25.634765625
24.71923828125
25.634765625
24.71923828125
22.88818359375
25.634765625
21.05712890625
31.1279296875
32.958984375
24.71923828125
24.71923828125
32.04345703125
22.88818359375
26.55029296875
21.97265625
13.73291015625
7.32421875
1.8310546875
9.1552734375
13.73291015625
5.4931640625
6.40869140625
7.32421875
-1.8310546875
-2.74658203125
-2.74658203125
-6.40869140625
-1.8310546875
-4.57763671875
-5.4931640625
-7.32421875
-0.91552734375
-2.74658203125
0
-5.4931640625
-3.662109375
-7.32421875
-6.40869140625
-3.662109375
2.74658203125
2.74658203125
2.74658203125
5.4931640625
3.662109375
5.4931640625
5.4931640625
4.57763671875
8.23974609375
11.90185546875
12.8173828125
10.07080078125
8.23974609375
4.57763671875
8.23974609375
6.40869140625
9.1552734375
8.23974609375
4.57763671875
10.07080078125
7.32421875
6.40869140625
4.57763671875
8.23974609375
8.23974609375
1.8310546875
9.1552734375
12.8173828125
22.88818359375
11.90185546875
12.8173828125
12.8173828125
11.90185546875
4.57763671875
7.32421875
11.90185546875
13.73291015625
6.40869140625
6.40869140625
16.4794921875
11.90185546875
7.32421875
2.74658203125
-0.91552734375
3.662109375
9.1552734375
4.57763671875
0.91552734375
6.40869140625
3.662109375
5.4931640625
6.40869140625
1.8310546875
-0.91552734375
0
-10.07080078125
-10.986328125
-10.07080078125
-5.4931640625
-5.4931640625
-8.23974609375
-1.8310546875
-0.91552734375
-10.07080078125
-7.32421875
4.57763671875
3.662109375
-7.32421875
-7.32421875
-3.662109375
-5.4931640625
-10.986328125
-13.73291015625
-10.986328125
-10.986328125
-12.8173828125
-9.1552734375
-8.23974609375
-13.73291015625
-12.8173828125
-10.07080078125
-10.986328125
-15.56396484375
-14.6484375
-20.1416015625
-18.310546875
-15.56396484375
-16.4794921875
-18.310546875
-23.8037109375
-21.97265625
-19.22607421875
-13.73291015625
-16.4794921875
-15.56396484375
-11.90185546875
-6.40869140625
-8.23974609375
-9.1552734375
-12.8173828125
-20.1416015625
-21.05712890625
-16.4794921875
-13.73291015625
-10.986328125
-11.90185546875
-15.56396484375
-15.56396484375
-9.1552734375
-12.8173828125
-6.40869140625
-13.73291015625
-14.6484375
-15.56396484375
-13.73291015625
-13.73291015625
-16.4794921875
-22.88818359375
-16.4794921875
-9.1552734375
-9.1552734375
-11.90185546875
-12.8173828125
-14.6484375
-14.6484375
-10.986328125
-9.1552734375
-17.39501953125
-17.39501953125
-11.90185546875
-3.662109375
-1.8310546875
-7.32421875
-15.56396484375
-12.8173828125
-3.662109375
-1.8310546875
2.74658203125
15.56396484375
20.1416015625
20.1416015625
17.39501953125
14.6484375
30.21240234375
38.4521484375
58.59375
65.91796875
81.48193359375
93.3837890625
99.79248046875
98.876953125
87.890625
76.904296875
74.15771484375
72.32666015625
82.3974609375
81.48193359375
78.7353515625
81.48193359375
64.0869140625
54.01611328125
45.7763671875
48.52294921875
31.1279296875
19.22607421875
18.310546875
9.1552734375
0.91552734375
-8.23974609375
-21.05712890625
-18.310546875
-20.1416015625
-21.05712890625
-18.310546875
-15.56396484375
-16.4794921875
-18.310546875
-15.56396484375
-19.22607421875
-17.39501953125
-24.71923828125
-23.8037109375
-16.4794921875
-15.56396484375
-12.8173828125
-13.73291015625
-11.90185546875
-7.32421875
-2.74658203125
-16.4794921875
-19.22607421875
-6.40869140625
-8.23974609375
-6.40869140625
-10.07080078125
-3.662109375
-15.56396484375
-13.73291015625
-10.07080078125
-21.05712890625
-42.1142578125
-47.607421875
-57.67822265625
-60.4248046875
-36.62109375
-6.40869140625
35.70556640625
90.63720703125
191.34521484375
314.94140625
432.12890625
573.1201171875
697.6318359375
780.029296875
861.51123046875
992.431640625
1131.591796875
1213.07373046875
1207.58056640625
1142.578125
944.82421875
617.98095703125
312.19482421875
75.98876953125
-47.607421875
-37.53662109375
1.8310546875
40.283203125
44.86083984375
49.4384765625
74.15771484375
82.3974609375
90.63720703125
93.3837890625
86.97509765625
73.2421875
67.7490234375
53.1005859375
55.84716796875
47.607421875
44.86083984375
50.35400390625
52.18505859375
40.283203125
37.53662109375
35.70556640625
36.62109375
41.19873046875
40.283203125
40.283203125
42.1142578125
41.19873046875
39.36767578125
39.36767578125
44.86083984375
47.607421875
34.7900390625
28.38134765625
39.36767578125
37.53662109375
44.86083984375
43.02978515625
41.19873046875
37.53662109375
40.283203125
48.52294921875
49.4384765625
48.52294921875
41.19873046875
50.35400390625
47.607421875
52.18505859375
48.52294921875
46.69189453125
56.7626953125
48.52294921875
53.1005859375
51.26953125
56.7626953125
53.1005859375
59.50927734375
56.7626953125
59.50927734375
69.580078125
71.4111328125
65.91796875
59.50927734375
68.66455078125
66.83349609375
63.17138671875
73.2421875
73.2421875
70.49560546875
77.81982421875
84.228515625
82.3974609375
77.81982421875
74.15771484375
85.14404296875
87.890625
85.14404296875
79.65087890625
85.14404296875
80.56640625
82.3974609375
84.228515625
88.80615234375
85.14404296875
82.3974609375
86.0595703125
88.80615234375
92.46826171875
85.14404296875
82.3974609375
86.97509765625
86.97509765625
83.31298828125
86.97509765625
97.96142578125
96.13037109375
87.890625
86.0595703125
87.890625
92.46826171875
88.80615234375
86.0595703125
84.228515625
82.3974609375
81.48193359375
82.3974609375
85.14404296875
86.0595703125
84.228515625
86.0595703125
79.65087890625
80.56640625
84.228515625
83.31298828125
79.65087890625
72.32666015625
76.904296875
77.81982421875
73.2421875
74.15771484375
78.7353515625
79.65087890625
79.65087890625
85.14404296875
86.97509765625
92.46826171875
98.876953125
108.94775390625
113.525390625
112.60986328125
114.44091796875
106.201171875
110.77880859375
108.94775390625
111.6943359375
97.96142578125
92.46826171875
87.890625
99.79248046875
103.45458984375
98.876953125
96.13037109375
97.96142578125
98.876953125
96.13037109375
82.3974609375
72.32666015625
76.904296875
75.98876953125
72.32666015625
82.3974609375
77.81982421875
75.98876953125
72.32666015625
66.83349609375
68.66455078125
71.4111328125
70.49560546875
66.83349609375
71.4111328125
61.34033203125
63.17138671875
66.83349609375
75.0732421875
70.49560546875
72.32666015625
79.65087890625
71.4111328125
65.91796875
70.49560546875
72.32666015625
73.2421875
78.7353515625
84.228515625
75.98876953125
80.56640625
76.904296875
75.98876953125
78.7353515625
83.31298828125
83.31298828125
78.7353515625
81.48193359375
79.65087890625
82.3974609375
82.3974609375
86.97509765625
84.228515625
81.48193359375
90.63720703125
86.97509765625
75.0732421875
75.98876953125
79.65087890625
86.97509765625
86.0595703125
75.0732421875
75.0732421875
85.14404296875
78.7353515625
74.15771484375
81.48193359375
80.56640625
83.31298828125
86.0595703125
86.97509765625
82.3974609375
78.7353515625
75.0732421875
67.7490234375
71.4111328125
72.32666015625
73.2421875
75.98876953125
79.65087890625
75.0732421875
74.15771484375
70.49560546875
71.4111328125
70.49560546875
74.15771484375
70.49560546875
69.580078125
67.7490234375
65.91796875
65.00244140625
65.91796875
68.66455078125
66.83349609375
68.66455078125
58.59375
55.84716796875
52.18505859375
56.7626953125
58.59375
60.4248046875
55.84716796875
60.4248046875
61.34033203125
61.34033203125
59.50927734375
54.01611328125
55.84716796875
56.7626953125
53.1005859375
52.18505859375
55.84716796875
57.67822265625
55.84716796875
60.4248046875
65.91796875
58.59375
52.18505859375
56.7626953125
49.4384765625
52.18505859375
49.4384765625
48.52294921875
51.26953125
53.1005859375
51.26953125
55.84716796875
56.7626953125
53.1005859375
54.931640625
50.35400390625
58.59375
54.01611328125
53.1005859375
57.67822265625
54.931640625
50.35400390625
54.931640625
50.35400390625
47.607421875
51.26953125
58.59375
54.931640625
54.01611328125
52.18505859375
55.84716796875
56.7626953125
56.7626953125
67.7490234375
75.98876953125
85.14404296875
89.7216796875
88.80615234375
82.3974609375
86.0595703125
94.29931640625
107.11669921875
116.27197265625
130.92041015625
136.41357421875
141.90673828125
139.16015625
135.498046875
129.08935546875
121.76513671875
116.27197265625
119.0185546875
122.6806640625
123.59619140625
120.849609375
114.44091796875
103.45458984375
86.0595703125
79.65087890625
73.2421875
60.4248046875
59.50927734375
61.34033203125
52.18505859375
42.1142578125
34.7900390625
26.55029296875
25.634765625
21.97265625
24.71923828125
28.38134765625
24.71923828125
22.88818359375
18.310546875
19.22607421875
22.88818359375
27.4658203125
31.1279296875
35.70556640625
31.1279296875
26.55029296875
21.97265625
26.55029296875
26.55029296875
28.38134765625
26.55029296875
21.97265625
24.71923828125
22.88818359375
19.22607421875
17.39501953125
23.8037109375
25.634765625
24.71923828125
25.634765625
13.73291015625
0.91552734375
-6.40869140625
-21.05712890625
-20.1416015625
1.8310546875
22.88818359375
59.50927734375
116.27197265625
209.65576171875
330.50537109375
462.34130859375
596.00830078125
723.2666015625
817.56591796875
889.892578125
1003.41796875
1137.0849609375
1217.6513671875
1243.2861328125
1212.158203125
1054.6875
742.49267578125
401.91650390625
157.470703125
-4.57763671875
-25.634765625
9.1552734375
40.283203125
54.01611328125
50.35400390625
61.34033203125
83.31298828125
97.0458984375
103.45458984375
97.96142578125
89.7216796875
78.7353515625
75.98876953125
71.4111328125
69.580078125
61.34033203125
64.0869140625
62.255859375
64.0869140625
54.931640625
53.1005859375
55.84716796875
56.7626953125
53.1005859375
59.50927734375
67.7490234375
72.32666015625
63.17138671875
49.4384765625
54.01611328125
59.50927734375
50.35400390625
58.59375
56.7626953125
57.67822265625
56.7626953125
59.50927734375
60.4248046875
57.67822265625
61.34033203125
61.34033203125
63.17138671875
64.0869140625
61.34033203125
65.00244140625
68.66455078125
66.83349609375
67.7490234375
66.83349609375
62.255859375
59.50927734375
58.59375
65.91796875
74.15771484375
67.7490234375
68.66455078125
69.580078125
71.4111328125
71.4111328125
75.0732421875
77.81982421875
78.7353515625
75.98876953125
76.904296875
80.56640625
73.2421875
73.2421875
75.0732421875
78.7353515625
74.15771484375
78.7353515625
77.81982421875
81.48193359375
86.97509765625
90.63720703125
91.552734375
86.97509765625
90.63720703125
94.29931640625
90.63720703125
88.80615234375
89.7216796875
87.890625
86.0595703125
88.80615234375
94.29931640625
91.552734375
90.63720703125
89.7216796875
84.228515625
82.3974609375
80.56640625
84.228515625
86.97509765625
89.7216796875
87.890625
89.7216796875
82.3974609375
83.31298828125
75.98876953125
77.81982421875
77.81982421875
84.228515625
88.80615234375
90.63720703125
86.0595703125
86.97509765625
75.98876953125
68.66455078125
75.0732421875
78.7353515625
81.48193359375
79.65087890625
72.32666015625
70.49560546875
65.00244140625
72.32666015625
73.2421875
70.49560546875
72.32666015625
70.49560546875
75.98876953125
70.49560546875
67.7490234375
75.98876953125
71.4111328125
77.81982421875
79.65087890625
80.56640625
83.31298828125
79.65087890625
75.98876953125
80.56640625
87.890625
86.0595703125
84.228515625
87.890625
82.3974609375
78.7353515625
75.98876953125
75.0732421875
66.83349609375
73.2421875
75.0732421875
68.66455078125
65.91796875
62.255859375
58.59375
58.59375
60.4248046875
53.1005859375
49.4384765625
51.26953125
50.35400390625
54.01611328125
52.18505859375
54.931640625
54.931640625
53.1005859375
49.4384765625
48.52294921875
54.01611328125
53.1005859375
55.84716796875
54.01611328125
55.84716796875
52.18505859375
55.84716796875
63.17138671875
61.34033203125
61.34033203125
58.59375
61.34033203125
63.17138671875
65.91796875
64.0869140625
65.91796875
65.91796875
72.32666015625
68.66455078125
69.580078125
72.32666015625
75.0732421875
73.2421875
64.0869140625
67.7490234375
69.580078125
67.7490234375
72.32666015625
70.49560546875
71.4111328125
69.580078125
66.83349609375
65.91796875
64.0869140625
65.91796875
65.00244140625
63.17138671875
66.83349609375
67.7490234375
65.91796875
68.66455078125
61.34033203125
69.580078125
72.32666015625
55.84716796875
61.34033203125
59.50927734375
56.7626953125
59.50927734375
57.67822265625
53.1005859375
55.84716796875
54.931640625
52.18505859375
50.35400390625
53.1005859375
52.18505859375
48.52294921875
47.607421875
47.607421875
47.607421875
50.35400390625
55.84716796875
45.7763671875
46.69189453125
49.4384765625
43.9453125
43.9453125
41.19873046875
43.02978515625
38.4521484375
39.36767578125
38.4521484375
31.1279296875
26.55029296875
34.7900390625
34.7900390625
41.19873046875
46.69189453125
41.19873046875
32.04345703125
32.958984375
35.70556640625
32.04345703125
35.70556640625
32.04345703125
32.04345703125
30.21240234375
28.38134765625
32.04345703125
26.55029296875
26.55029296875
31.1279296875
35.70556640625
23.8037109375
16.4794921875
18.310546875
26.55029296875
28.38134765625
24.71923828125
27.4658203125
32.04345703125
32.958984375
30.21240234375
28.38134765625
22.88818359375
28.38134765625
23.8037109375
25.634765625
24.71923828125
17.39501953125
23.8037109375
23.8037109375
21.05712890625
23.8037109375
19.22607421875
21.97265625
16.4794921875
15.56396484375
20.1416015625
28.38134765625
30.21240234375
24.71923828125
28.38134765625
37.53662109375
44.86083984375
53.1005859375
63.17138671875
61.34033203125
55.84716796875
55.84716796875
57.67822265625
68.66455078125
83.31298828125
91.552734375
107.11669921875
113.525390625
109.86328125
102.5390625
98.876953125
97.96142578125
94.29931640625
95.21484375
95.21484375
97.0458984375
89.7216796875
83.31298828125
84.228515625
76.904296875
65.00244140625
60.4248046875
48.52294921875
40.283203125
36.62109375
21.97265625
21.05712890625
14.6484375
9.1552734375
2.74658203125
-0.91552734375
0
1.8310546875
1.8310546875
-0.91552734375
-4.57763671875
-3.662109375
-2.74658203125
-2.74658203125
-1.8310546875
0
-6.40869140625
-3.662109375
-4.57763671875
-4.57763671875
-16.4794921875
-10.07080078125
-5.4931640625
-8.23974609375
-5.4931640625
-0.91552734375
0.91552734375
3.662109375
0
-2.74658203125
-8.23974609375
-8.23974609375
-10.07080078125
-16.4794921875
-28.38134765625
-38.4521484375
-47.607421875
-40.283203125
-27.4658203125
-4.57763671875
44.86083984375
115.3564453125
221.5576171875
336.9140625
463.2568359375
594.17724609375
715.02685546875
785.5224609375
877.0751953125
1010.7421875
1142.578125
1198.42529296875
1194.76318359375
1131.591796875
916.44287109375
579.52880859375
285.64453125
64.0869140625
-40.283203125
-22.88818359375
3.662109375
26.55029296875
21.97265625
37.53662109375
72.32666015625
86.0595703125
92.46826171875
82.3974609375
74.15771484375
65.00244140625
52.18505859375
45.7763671875
43.9453125
36.62109375
33.87451171875
36.62109375
32.04345703125
32.958984375
34.7900390625
29.296875
26.55029296875
24.71923828125
28.38134765625
30.21240234375
25.634765625
31.1279296875
30.21240234375
30.21240234375
29.296875
28.38134765625
31.1279296875
32.04345703125
28.38134765625
30.21240234375
31.1279296875
27.4658203125
28.38134765625
31.1279296875
32.958984375
29.296875
28.38134765625
28.38134765625
32.04345703125
39.36767578125
34.7900390625
31.1279296875
26.55029296875
29.296875
31.1279296875
35.70556640625
37.53662109375
42.1142578125
44.86083984375
43.02978515625
42.1142578125
36.62109375
39.36767578125
38.4521484375
43.02978515625
43.02978515625
47.607421875
47.607421875
48.52294921875
46.69189453125
46.69189453125
43.9453125
53.1005859375
55.84716796875
48.52294921875
51.26953125
51.26953125
47.607421875
51.26953125
52.18505859375
55.84716796875
53.1005859375
52.18505859375
59.50927734375
60.4248046875
59.50927734375
58.59375
59.50927734375
58.59375
59.50927734375
59.50927734375
57.67822265625
62.255859375
62.255859375
60.4248046875
59.50927734375
59.50927734375
62.255859375
59.50927734375
61.34033203125
56.7626953125
54.01611328125
53.1005859375
56.7626953125
55.84716796875
53.1005859375
52.18505859375
57.67822265625
54.931640625
55.84716796875
51.26953125
48.52294921875
55.84716796875
56.7626953125
55.84716796875
48.52294921875
46.69189453125
42.1142578125
46.69189453125
48.52294921875
46.69189453125
53.1005859375
43.9453125
39.36767578125
44.86083984375
46.69189453125
53.1005859375
47.607421875
47.607421875
47.607421875
44.86083984375
47.607421875
48.52294921875
54.01611328125
50.35400390625
49.4384765625
55.84716796875
45.7763671875
42.1142578125
42.1142578125
45.7763671875
41.19873046875
41.19873046875
35.70556640625
39.36767578125
34.7900390625
33.87451171875
30.21240234375
26.55029296875
27.4658203125
24.71923828125
17.39501953125
14.6484375
16.4794921875
15.56396484375
13.73291015625
10.07080078125
8.23974609375
9.1552734375
6.40869140625
10.986328125
12.8173828125
9.1552734375
10.986328125
6.40869140625
4.57763671875
8.23974609375
1.8310546875
10.07080078125
5.4931640625
8.23974609375
13.73291015625
18.310546875
20.1416015625
19.22607421875
14.6484375
11.90185546875
17.39501953125
19.22607421875
16.4794921875
15.56396484375
19.22607421875
11.90185546875
12.8173828125
17.39501953125
21.97265625
20.1416015625
17.39501953125
22.88818359375
22.88818359375
16.4794921875
14.6484375
16.4794921875
19.22607421875
17.39501953125
20.1416015625
13.73291015625
21.97265625
22.88818359375
18.310546875
20.1416015625
18.310546875
21.97265625
17.39501953125
20.1416015625
19.22607421875
19.22607421875
18.310546875
18.310546875
17.39501953125
11.90185546875
10.986328125
18.310546875
12.8173828125
12.8173828125
11.90185546875
11.90185546875
17.39501953125
15.56396484375
21.97265625
5.4931640625
2.74658203125
6.40869140625
8.23974609375
3.662109375
2.74658203125
5.4931640625
6.40869140625
6.40869140625
-3.662109375
-8.23974609375
-2.74658203125
0
-3.662109375
-4.57763671875
-1.8310546875
-2.74658203125
-1.8310546875
0.91552734375
-2.74658203125
-4.57763671875
-5.4931640625
-9.1552734375
-10.07080078125
-14.6484375
-16.4794921875
-17.39501953125
-22.88818359375
-24.71923828125
-22.88818359375
-20.1416015625
-10.07080078125
-8.23974609375
-14.6484375
-17.39501953125
-18.310546875
-25.634765625
-21.97265625
-21.97265625
-19.22607421875
-24.71923828125
-20.1416015625
-6.40869140625
-21.05712890625
-20.1416015625
-18.310546875
-14.6484375
-16.4794921875
-21.05712890625
-21.05712890625
-21.05712890625
-24.71923828125
-21.97265625
-25.634765625
-29.296875
-32.04345703125
-30.21240234375
-32.04345703125
-26.55029296875
-25.634765625
-25.634765625
-22.88818359375
-24.71923828125
-16.4794921875
-16.4794921875
-24.71923828125
-17.39501953125
-4.57763671875
-3.662109375
6.40869140625
18.310546875
17.39501953125
13.73291015625
7.32421875
11.90185546875
22.88818359375
37.53662109375
54.01611328125
63.17138671875
73.2421875
69.580078125
67.7490234375
65.00244140625
55.84716796875
44.86083984375
47.607421875
47.607421875
51.26953125
49.4384765625
43.9453125
37.53662109375
28.38134765625
19.22607421875
11.90185546875
7.32421875
-7.32421875
-17.39501953125
-20.1416015625
-33.87451171875
-36.62109375
-47.607421875
-50.35400390625
-50.35400390625
-47.607421875
-50.35400390625
-47.607421875
-44.86083984375
-47.607421875
-52.18505859375
-54.931640625
-44.86083984375
-45.7763671875
-48.52294921875
-45.7763671875
-43.9453125
-39.36767578125
-41.19873046875
-51.26953125
-47.607421875
-47.607421875
-53.1005859375
-51.26953125
-50.35400390625
-49.4384765625
-46.69189453125
-43.9453125
-42.1142578125
-42.1142578125
-46.69189453125
-50.35400390625
-64.0869140625
-73.2421875
-85.14404296875
-91.552734375
-96.13037109375
-75.0732421875
-54.01611328125
-16.4794921875
46.69189453125
146.484375
257.26318359375
371.7041015625
502.62451171875
623.47412109375
702.20947265625
789.1845703125
920.10498046875
1062.92724609375
1141.66259765625
1145.32470703125
1086.73095703125
906.3720703125
573.1201171875
284.72900390625
55.84716796875
-79.65087890625
-77.81982421875
-45.7763671875
-25.634765625
-22.88818359375
1.8310546875
31.1279296875
43.9453125
42.1142578125
38.4521484375
34.7900390625
22.88818359375
17.39501953125
6.40869140625
5.4931640625
-0.91552734375
-5.4931640625
-3.662109375
-5.4931640625
-10.07080078125
-10.07080078125
-10.986328125
-11.90185546875
-16.4794921875
-24.71923828125
-21.97265625
-18.310546875
-17.39501953125
-14.6484375
-17.39501953125
-16.4794921875
-21.05712890625
-22.88818359375
-19.22607421875
-15.56396484375
-18.310546875
-18.310546875
-21.97265625
-17.39501953125
-17.39501953125
-12.8173828125
-12.8173828125
-8.23974609375
-6.40869140625
-5.4931640625
-0.91552734375
-4.57763671875
-5.4931640625
1.8310546875
7.32421875
-1.8310546875
0
-1.8310546875
1.8310546875
-2.74658203125
-4.57763671875
2.74658203125
3.662109375
11.90185546875
12.8173828125
-0.91552734375
4.57763671875
1.8310546875
6.40869140625
10.07080078125
10.07080078125
10.07080078125
15.56396484375
10.07080078125
12.8173828125
14.6484375
12.8173828125
11.90185546875
10.986328125
9.1552734375
10.07080078125
9.1552734375
12.8173828125
23.8037109375
24.71923828125
20.1416015625
17.39501953125
20.1416015625
20.1416015625
24.71923828125
28.38134765625
31.1279296875
33.87451171875
30.21240234375
32.958984375
33.87451171875
34.7900390625
29.296875
33.87451171875
35.70556640625
39.36767578125
36.62109375
37.53662109375
44.86083984375
43.9453125
33.87451171875
31.1279296875
25.634765625
24.71923828125
21.97265625
23.8037109375
26.55029296875
27.4658203125
26.55029296875
23.8037109375
21.97265625
18.310546875
25.634765625
30.21240234375
32.958984375
32.958984375
28.38134765625
31.1279296875
30.21240234375
26.55029296875
19.22607421875
20.1416015625
26.55029296875
24.71923828125
21.97265625
23.8037109375
25.634765625
23.8037109375
21.97265625
22.88818359375
23.8037109375
20.1416015625
17.39501953125
20.1416015625
22.88818359375
26.55029296875
20.1416015625
16.4794921875
11.90185546875
12.8173828125
8.23974609375
0
5.4931640625
10.07080078125
1.8310546875
2.74658203125
-0.91552734375
-10.986328125
-14.6484375
-14.6484375
-21.97265625
-20.1416015625
-21.97265625
-13.73291015625
-10.986328125
-20.1416015625
-22.88818359375
-19.22607421875
-19.22607421875
-16.4794921875
-19.22607421875
-20.1416015625
-14.6484375
-25.634765625
-23.8037109375
-16.4794921875
-19.22607421875
-21.97265625
-22.88818359375
-21.97265625
-23.8037109375
-19.22607421875
-16.4794921875
-12.8173828125
-9.1552734375
-5.4931640625
-4.57763671875
-2.74658203125
-1.8310546875
-3.662109375
-0.91552734375
-2.74658203125
-4.57763671875
-6.40869140625
-1.8310546875
-5.4931640625
-5.4931640625
-5.4931640625
-0.91552734375
-4.57763671875
-6.40869140625
-7.32421875
-13.73291015625
-14.6484375
-9.1552734375
-4.57763671875
-4.57763671875
-6.40869140625
-2.74658203125
-5.4931640625
-1.8310546875
-5.4931640625
-4.57763671875
-3.662109375
-7.32421875
-7.32421875
-7.32421875
-6.40869140625
-4.57763671875
-7.32421875
-4.57763671875
-1.8310546875
-6.40869140625
-9.1552734375
-13.73291015625
-15.56396484375
-12.8173828125
-10.07080078125
-12.8173828125
-13.73291015625
-16.4794921875
-11.90185546875
-10.986328125
-16.4794921875
-18.310546875
-14.6484375
-19.22607421875
-16.4794921875
-15.56396484375
-18.310546875
-20.1416015625
-23.8037109375
-29.296875
-30.21240234375
-26.55029296875
-26.55029296875
-27.4658203125
-25.634765625
-26.55029296875
-35.70556640625
-34.7900390625
-32.958984375
-29.296875
-28.38134765625
-25.634765625
-25.634765625
-26.55029296875
-23.8037109375
-31.1279296875
-36.62109375
-39.36767578125
-37.53662109375
-31.1279296875
-30.21240234375
-34.7900390625
-40.283203125
-44.86083984375
-42.1142578125
-42.1142578125
-42.1142578125
-38.4521484375
-43.9453125
-44.86083984375
-40.283203125
-32.958984375
-32.958984375
-33.87451171875
-35.70556640625
-31.1279296875
-31.1279296875
-35.70556640625
-37.53662109375
-36.62109375
-36.62109375
-24.71923828125
-15.56396484375
-9.1552734375
1.8310546875
8.23974609375
8.23974609375
0
-5.4931640625
-0.91552734375
16.4794921875
33.87451171875
39.36767578125
54.01611328125
62.255859375
55.84716796875
49.4384765625
44.86083984375
37.53662109375
36.62109375
32.958984375
38.4521484375
37.53662109375
32.958984375
31.1279296875
23.8037109375
8.23974609375
1.8310546875
-3.662109375
-10.986328125
-19.22607421875
-28.38134765625
-33.87451171875
-43.02978515625
-52.18505859375
-52.18505859375
-57.67822265625
-60.4248046875
-55.84716796875
-53.1005859375
-53.1005859375
-57.67822265625
-60.4248046875
-58.59375
-58.59375
-60.4248046875
-62.255859375
-66.83349609375
-66.83349609375
-68.66455078125
-65.91796875
-61.34033203125
-62.255859375
-62.255859375
-57.67822265625
-56.7626953125
-54.931640625
-58.59375
-64.0869140625
-63.17138671875
-61.34033203125
-60.4248046875
-57.67822265625
-65.00244140625
-75.98876953125
-85.14404296875
-97.0458984375
-106.201171875
-114.44091796875
-119.93408203125
-103.45458984375
-67.7490234375
-26.55029296875
31.1279296875
124.51171875
238.95263671875
349.7314453125
481.5673828125
606.99462890625
682.06787109375
769.95849609375
906.3720703125
1057.43408203125
1153.564453125
1164.55078125
1108.70361328125
931.09130859375
596.00830078125
293.88427734375
61.34033203125
-99.79248046875
-114.44091796875
-80.56640625
-48.52294921875
-32.04345703125
-1.8310546875
28.38134765625
43.02978515625
37.53662109375
24.71923828125
13.73291015625
7.32421875
7.32421875
-8.23974609375
-13.73291015625
-17.39501953125
-18.310546875
-21.97265625
-21.97265625
-21.05712890625
-25.634765625
-29.296875
-30.21240234375
-30.21240234375
-30.21240234375
-21.97265625
-18.310546875
-23.8037109375
-21.97265625
-18.310546875
-20.1416015625
-21.05712890625
-21.05712890625
-23.8037109375
-21.05712890625
-17.39501953125
-20.1416015625
-22.88818359375
-24.71923828125
-27.4658203125
-20.1416015625
-18.310546875
-19.22607421875
-15.56396484375
-16.4794921875
-14.6484375
-14.6484375
-10.07080078125
-16.4794921875
-13.73291015625
-10.986328125
-9.1552734375
-10.07080078125
-11.90185546875
-10.986328125
-5.4931640625
-3.662109375
0
0
-13.73291015625
-10.986328125
-10.986328125
-8.23974609375
-3.662109375
0
1.8310546875
0.91552734375
2.74658203125
5.4931640625
5.4931640625
7.32421875
3.662109375
11.90185546875
13.73291015625
10.07080078125
10.986328125
13.73291015625
16.4794921875
4.57763671875
10.07080078125
20.1416015625
20.1416015625
21.97265625
21.05712890625
16.4794921875
20.1416015625
19.22607421875
16.4794921875
16.4794921875
20.1416015625
26.55029296875
29.296875
32.04345703125
34.7900390625
34.7900390625
36.62109375
30.21240234375
32.04345703125
28.38134765625
31.1279296875
37.53662109375
33.87451171875
32.958984375
32.04345703125
32.958984375
32.04345703125
31.1279296875
24.71923828125
28.38134765625
28.38134765625
25.634765625
23.8037109375
22.88818359375
22.88818359375
21.97265625
21.97265625
26.55029296875
32.04345703125
24.71923828125
32.958984375
26.55029296875
27.4658203125
31.1279296875
31.1279296875
30.21240234375
34.7900390625
32.958984375
31.1279296875
29.296875
30.21240234375
30.21240234375
28.38134765625
31.1279296875
30.21240234375
29.296875
21.05712890625
17.39501953125
11.90185546875
17.39501953125
17.39501953125
11.90185546875
14.6484375
10.986328125
5.4931640625
7.32421875
4.57763671875
5.4931640625
1.8310546875
-6.40869140625
-6.40869140625
-6.40869140625
-6.40869140625
-6.40869140625
-7.32421875
-5.4931640625
-5.4931640625
-10.986328125
-2.74658203125
-6.40869140625
-8.23974609375
-9.1552734375
-7.32421875
-9.1552734375
-9.1552734375
-11.90185546875
-13.73291015625
-10.986328125
-4.57763671875
-8.23974609375
-1.8310546875
1.8310546875
2.74658203125
3.662109375
1.8310546875
2.74658203125
5.4931640625
7.32421875
9.1552734375
11.90185546875
15.56396484375
13.73291015625
14.6484375
13.73291015625
15.56396484375
21.05712890625
24.71923828125
18.310546875
21.05712890625
20.1416015625
20.1416015625
18.310546875
21.05712890625
20.1416015625
21.05712890625
23.8037109375
22.88818359375
21.05712890625
22.88818359375
23.8037109375
27.4658203125
31.1279296875
25.634765625
23.8037109375
26.55029296875
21.97265625
23.8037109375
27.4658203125
24.71923828125
32.04345703125
23.8037109375
20.1416015625
19.22607421875
15.56396484375
23.8037109375
22.88818359375
23.8037109375
21.05712890625
10.986328125
8.23974609375
14.6484375
19.22607421875
15.56396484375
21.05712890625
22.88818359375
25.634765625
18.310546875
17.39501953125
21.97265625
17.39501953125
12.8173828125
13.73291015625
13.73291015625
11.90185546875
13.73291015625
18.310546875
15.56396484375
15.56396484375
10.07080078125
15.56396484375
9.1552734375
7.32421875
6.40869140625
16.4794921875
11.90185546875
8.23974609375
6.40869140625
7.32421875
11.90185546875
10.07080078125
-1.8310546875
-3.662109375
2.74658203125
7.32421875
6.40869140625
3.662109375
0
-0.91552734375
-1.8310546875
-2.74658203125
0
2.74658203125
4.57763671875
4.57763671875
1.8310546875
4.57763671875
6.40869140625
0.91552734375
-2.74658203125
-3.662109375
2.74658203125
16.4794921875
14.6484375
3.662109375
10.07080078125
11.90185546875
10.07080078125
9.1552734375
18.310546875
23.8037109375
33.87451171875
36.62109375
35.70556640625
30.21240234375
36.62109375
44.86083984375
59.50927734375
78.7353515625
81.48193359375
95.21484375
109.86328125
101.62353515625
98.876953125
89.7216796875
86.0595703125
82.3974609375
82.3974609375
86.97509765625
85.14404296875
82.3974609375
80.56640625
65.00244140625
54.01611328125
50.35400390625
49.4384765625
38.4521484375
31.1279296875
23.8037109375
13.73291015625
11.90185546875
3.662109375
0
0
-5.4931640625
-7.32421875
-1.8310546875
-2.74658203125
-1.8310546875
-5.4931640625
-2.74658203125
-2.74658203125
3.662109375
4.57763671875
-3.662109375
-1.8310546875
-6.40869140625
-0.91552734375
-4.57763671875
0.91552734375
-1.8310546875
-2.74658203125
-3.662109375
-10.07080078125
-4.57763671875
-3.662109375
3.662109375
0.91552734375
0
-2.74658203125
-4.57763671875
0.91552734375
-8.23974609375
-25.634765625
-35.70556640625
-43.9453125
-53.1005859375
-32.04345703125
-4.57763671875
31.1279296875
94.29931640625
188.5986328125
306.70166015625
422.9736328125
563.04931640625
706.787109375
805.6640625
885.31494140625
1003.41796875
1150.81787109375
1249.69482421875
1259.765625
1204.833984375
1028.13720703125
704.04052734375
375.3662109375
124.51171875
-44.86083984375
-47.607421875
-7.32421875
25.634765625
32.04345703125
33.87451171875
60.4248046875
79.65087890625
91.552734375
87.890625
80.56640625
76.904296875
69.580078125
65.91796875
56.7626953125
49.4384765625
42.1142578125
43.02978515625
44.86083984375
41.19873046875
34.7900390625
42.1142578125
45.7763671875
43.02978515625
39.36767578125
42.1142578125
41.19873046875
37.53662109375
41.19873046875
41.19873046875
41.19873046875
41.19873046875
42.1142578125
43.02978515625
42.1142578125
37.53662109375
43.02978515625
41.19873046875
43.02978515625
42.1142578125
43.9453125
42.1142578125
43.9453125
46.69189453125
39.36767578125
45.7763671875
51.26953125
48.52294921875
46.69189453125
50.35400390625
56.7626953125
60.4248046875
60.4248046875
51.26953125
50.35400390625
55.84716796875
51.26953125
57.67822265625
57.67822265625
58.59375
63.17138671875
68.66455078125
62.255859375
60.4248046875
63.17138671875
64.0869140625
67.7490234375
66.83349609375
64.0869140625
75.98876953125
76.904296875
74.15771484375
80.56640625
80.56640625
83.31298828125
90.63720703125
95.21484375
87.890625
82.3974609375
85.14404296875
89.7216796875
90.63720703125
90.63720703125
87.890625
92.46826171875
97.0458984375
99.79248046875
100.7080078125
97.96142578125
101.62353515625
96.13037109375
96.13037109375
89.7216796875
91.552734375
92.46826171875
92.46826171875
87.890625
94.29931640625
97.0458984375
92.46826171875
88.80615234375
87.890625
85.14404296875
88.80615234375
87.890625
88.80615234375
90.63720703125
90.63720703125
91.552734375
92.46826171875
89.7216796875
89.7216796875
91.552734375
93.3837890625
87.890625
81.48193359375
81.48193359375
86.97509765625
88.80615234375
84.228515625
87.890625
92.46826171875
95.21484375
96.13037109375
95.21484375
89.7216796875
96.13037109375
91.552734375
93.3837890625
87.890625
94.29931640625
97.0458984375
98.876953125
98.876953125
94.29931640625
89.7216796875
93.3837890625
93.3837890625
89.7216796875
88.80615234375
79.65087890625
79.65087890625
84.228515625
85.14404296875
85.14404296875
79.65087890625
82.3974609375
82.3974609375
70.49560546875
63.17138671875
65.00244140625
74.15771484375
57.67822265625
55.84716796875
58.59375
57.67822265625
59.50927734375
51.26953125
54.01611328125
57.67822265625
55.84716796875
59.50927734375
60.4248046875
59.50927734375
59.50927734375
64.0869140625
56.7626953125
61.34033203125
63.17138671875
56.7626953125
55.84716796875
50.35400390625
52.18505859375
53.1005859375
63.17138671875
63.17138671875
65.00244140625
73.2421875
73.2421875
74.15771484375
74.15771484375
72.32666015625
80.56640625
78.7353515625
81.48193359375
82.3974609375
84.228515625
79.65087890625
75.0732421875
80.56640625
75.0732421875
79.65087890625
83.31298828125
87.890625
81.48193359375
85.14404296875
78.7353515625
81.48193359375
84.228515625
82.3974609375
86.0595703125
86.97509765625
80.56640625
80.56640625
84.228515625
79.65087890625
73.2421875
86.0595703125
82.3974609375
77.81982421875
68.66455078125
72.32666015625
79.65087890625
76.904296875
75.0732421875
79.65087890625
74.15771484375
72.32666015625
71.4111328125
74.15771484375
72.32666015625
71.4111328125
70.49560546875
65.00244140625
69.580078125
66.83349609375
57.67822265625
57.67822265625
64.0869140625
65.00244140625
65.00244140625
66.83349609375
68.66455078125
61.34033203125
61.34033203125
54.931640625
48.52294921875
52.18505859375
58.59375
61.34033203125
55.84716796875
54.931640625
59.50927734375
59.50927734375
56.7626953125
55.84716796875
54.931640625
54.01611328125
52.18505859375
49.4384765625
46.69189453125
52.18505859375
52.18505859375
45.7763671875
47.607421875
49.4384765625
50.35400390625
50.35400390625
44.86083984375
43.9453125
43.02978515625
43.02978515625
43.02978515625
39.36767578125
36.62109375
44.86083984375
36.62109375
38.4521484375
38.4521484375
39.36767578125
42.1142578125
40.283203125
45.7763671875
54.01611328125
65.00244140625
64.0869140625
79.65087890625
86.0595703125
81.48193359375
70.49560546875
80.56640625
78.7353515625
90.63720703125
103.45458984375
112.60986328125
119.0185546875
119.93408203125
119.0185546875
116.27197265625
109.86328125
108.94775390625
105.28564453125
100.7080078125
108.94775390625
106.201171875
96.13037109375
100.7080078125
87.890625
76.904296875
70.49560546875
67.7490234375
61.34033203125
53.1005859375
54.01611328125
42.1142578125
33.87451171875
17.39501953125
17.39501953125
15.56396484375
18.310546875
19.22607421875
19.22607421875
17.39501953125
12.8173828125
18.310546875
16.4794921875
11.90185546875
16.4794921875
13.73291015625
12.8173828125
10.07080078125
19.22607421875
17.39501953125
16.4794921875
16.4794921875
9.1552734375
10.07080078125
14.6484375
20.1416015625
16.4794921875
9.1552734375
11.90185546875
9.1552734375
9.1552734375
5.4931640625
8.23974609375
9.1552734375
5.4931640625
-6.40869140625
-14.6484375
-26.55029296875
-32.04345703125
-21.97265625
1.8310546875
38.4521484375
88.80615234375
151.06201171875
263.671875
387.26806640625
518.1884765625
652.77099609375
777.28271484375
862.4267578125
953.9794921875
1090.39306640625
1212.158203125
1263.427734375
1246.9482421875
1145.32470703125
886.23046875
525.5126953125
236.2060546875
27.4658203125
-46.69189453125
-23.8037109375
11.90185546875
43.9453125
43.02978515625
44.86083984375
68.66455078125
92.46826171875
99.79248046875
88.80615234375
79.65087890625
71.4111328125
65.00244140625
61.34033203125
62.255859375
58.59375
48.52294921875
44.86083984375
38.4521484375
41.19873046875
35.70556640625
35.70556640625
34.7900390625
34.7900390625
36.62109375
41.19873046875
41.19873046875
34.7900390625
38.4521484375
39.36767578125
41.19873046875
38.4521484375
44.86083984375
42.1142578125
38.4521484375
37.53662109375
39.36767578125
37.53662109375
37.53662109375
34.7900390625
39.36767578125
40.283203125
43.9453125
43.9453125
43.02978515625
44.86083984375
42.1142578125
44.86083984375
41.19873046875
46.69189453125
48.52294921875
50.35400390625
46.69189453125
44.86083984375
53.1005859375
55.84716796875
55.84716796875
52.18505859375
51.26953125
53.1005859375
58.59375
56.7626953125
59.50927734375
58.59375
58.59375
63.17138671875
59.50927734375
60.4248046875
66.83349609375
68.66455078125
64.0869140625
62.255859375
68.66455078125
66.83349609375
70.49560546875
74.15771484375
73.2421875
77.81982421875
74.15771484375
75.98876953125
78.7353515625
80.56640625
82.3974609375
81.48193359375
80.56640625
81.48193359375
82.3974609375
80.56640625
82.3974609375
72.32666015625
70.49560546875
75.98876953125
78.7353515625
86.0595703125
82.3974609375
85.14404296875
86.97509765625
82.3974609375
86.97509765625
85.14404296875
80.56640625
79.65087890625
79.65087890625
78.7353515625
75.98876953125
78.7353515625
85.14404296875
79.65087890625
74.15771484375
76.904296875
72.32666015625
68.66455078125
65.91796875
65.91796875
68.66455078125
68.66455078125
70.49560546875
74.15771484375
73.2421875
68.66455078125
73.2421875
78.7353515625
76.904296875
74.15771484375
75.0732421875
76.904296875
73.2421875
76.904296875
79.65087890625
74.15771484375
75.98876953125
71.4111328125
72.32666015625
69.580078125
66.83349609375
72.32666015625
71.4111328125
63.17138671875
60.4248046875
57.67822265625
53.1005859375
55.84716796875
57.67822265625
60.4248046875
57.67822265625
54.931640625
54.01611328125
54.931640625
53.1005859375
49.4384765625
50.35400390625
45.7763671875
41.19873046875
38.4521484375
40.283203125
32.958984375
27.4658203125
33.87451171875
31.1279296875
32.04345703125
33.87451171875
39.36767578125
39.36767578125
40.283203125
41.19873046875
40.283203125
38.4521484375
40.283203125
38.4521484375
48.52294921875
49.4384765625
47.607421875
41.19873046875
37.53662109375
38.4521484375
42.1142578125
51.26953125
49.4384765625
49.4384765625
48.52294921875
54.01611328125
54.01611328125
54.01611328125
52.18505859375
50.35400390625
49.4384765625
50.35400390625
54.01611328125
58.59375
60.4248046875
62.255859375
65.91796875
54.931640625
56.7626953125
56.7626953125
55.84716796875
58.59375
58.59375
50.35400390625
44.86083984375
52.18505859375
47.607421875
49.4384765625
52.18505859375
54.931640625
51.26953125
52.18505859375
49.4384765625
51.26953125
47.607421875
48.52294921875
44.86083984375
44.86083984375
43.9453125
44.86083984375
46.69189453125
39.36767578125
35.70556640625
36.62109375
39.36767578125
45.7763671875
43.02978515625
44.86083984375
48.52294921875
43.02978515625
38.4521484375
39.36767578125
35.70556640625
35.70556640625
33.87451171875
32.958984375
33.87451171875
30.21240234375
28.38134765625
27.4658203125
30.21240234375
28.38134765625
28.38134765625
23.8037109375
23.8037109375
27.4658203125
22.88818359375
16.4794921875
16.4794921875
14.6484375
15.56396484375
16.4794921875
10.07080078125
10.07080078125
13.73291015625
14.6484375
17.39501953125
14.6484375
14.6484375
18.310546875
13.73291015625
12.8173828125
14.6484375
16.4794921875
16.4794921875
16.4794921875
13.73291015625
15.56396484375
10.07080078125
11.90185546875
12.8173828125
9.1552734375
5.4931640625
4.57763671875
7.32421875
6.40869140625
3.662109375
9.1552734375
8.23974609375
9.1552734375
9.1552734375
10.986328125
8.23974609375
12.8173828125
19.22607421875
19.22607421875
32.04345703125
42.1142578125
43.02978515625
40.283203125
40.283203125
43.02978515625
54.931640625
64.0869140625
74.15771484375
82.3974609375
88.80615234375
89.7216796875
87.890625
88.80615234375
78.7353515625
71.4111328125
69.580078125
70.49560546875
76.904296875
73.2421875
70.49560546875
66.83349609375
56.7626953125
44.86083984375
34.7900390625
30.21240234375
24.71923828125
18.310546875
12.8173828125
9.1552734375
0.91552734375
-11.90185546875
-14.6484375
-18.310546875
-20.1416015625
-21.97265625
-24.71923828125
-21.05712890625
-22.88818359375
-24.71923828125
-23.8037109375
-19.22607421875
-19.22607421875
-21.97265625
-23.8037109375
-36.62109375
-33.87451171875
-23.8037109375
-17.39501953125
-21.05712890625
-21.97265625
-20.1416015625
-21.97265625
-19.22607421875
-19.22607421875
-21.97265625
-24.71923828125
-26.55029296875
-22.88818359375
-26.55029296875
-29.296875
-27.4658203125
-38.4521484375
-49.4384765625
-60.4248046875
-72.32666015625
-74.15771484375
-55.84716796875
-30.21240234375
10.986328125
47.607421875
125.42724609375
248.10791015625
355.224609375
486.14501953125
617.98095703125
717.7734375
804.74853515625
919.189453125
1062.01171875
1171.875
1203.91845703125
1173.7060546875
1028.13720703125
745.2392578125
416.56494140625
159.3017578125
-32.04345703125
-66.83349609375
-47.607421875
-5.4931640625
-0.91552734375
1.8310546875
25.634765625
54.01611328125
64.0869140625
55.84716796875
48.52294921875
36.62109375
23.8037109375
22.88818359375
16.4794921875
16.4794921875
9.1552734375
4.57763671875
4.57763671875
0
-1.8310546875
-4.57763671875
-7.32421875
-6.40869140625
-3.662109375
0
-6.40869140625
-6.40869140625
-5.4931640625
-1.8310546875
2.74658203125
4.57763671875
2.74658203125
4.57763671875
1.8310546875
0
2.74658203125
3.662109375
-1.8310546875
-2.74658203125
2.74658203125
1.8310546875
3.662109375
6.40869140625
8.23974609375
5.4931640625
1.8310546875
9.1552734375
15.56396484375
10.07080078125
9.1552734375
7.32421875
10.07080078125
12.8173828125
8.23974609375
9.1552734375
12.8173828125
16.4794921875
20.1416015625
21.05712890625
23.8037109375
23.8037109375
21.05712890625
17.39501953125
21.05712890625
23.8037109375
24.71923828125
24.71923828125
27.4658203125
25.634765625
29.296875
25.634765625
25.634765625
25.634765625
26.55029296875
28.38134765625
30.21240234375
29.296875
31.1279296875
37.53662109375
40.283203125
38.4521484375
38.4521484375
42.1142578125
46.69189453125
48.52294921875
52.18505859375
47.607421875
45.7763671875
48.52294921875
52.18505859375
52.18505859375
48.52294921875
54.931640625
45.7763671875
48.52294921875
51.26953125
53.1005859375
46.69189453125
54.01611328125
54.931640625
49.4384765625
51.26953125
52.18505859375
55.84716796875
53.1005859375
43.9453125
43.9453125
50.35400390625
46.69189453125
44.86083984375
48.52294921875
43.02978515625
45.7763671875
44.86083984375
48.52294921875
45.7763671875
45.7763671875
41.19873046875
42.1142578125
46.69189453125
48.52294921875
49.4384765625
50.35400390625
50.35400390625
48.52294921875
49.4384765625
43.02978515625
34.7900390625
33.87451171875
33.87451171875
32.04345703125
29.296875
25.634765625
21.05712890625
21.97265625
15.56396484375
15.56396484375
13.73291015625
11.90185546875
15.56396484375
5.4931640625
1.8310546875
0
-0.91552734375
-2.74658203125
-3.662109375
-2.74658203125
-7.32421875
-6.40869140625
-10.986328125
-15.56396484375
-15.56396484375
-13.73291015625
-17.39501953125
-13.73291015625
-16.4794921875
-21.05712890625
-15.56396484375
-17.39501953125
-20.1416015625
-21.05712890625
-20.1416015625
-24.71923828125
-21.97265625
-22.88818359375
-23.8037109375
-21.97265625
-20.1416015625
-24.71923828125
-26.55029296875
-22.88818359375
-20.1416015625
-23.8037109375
-20.1416015625
-14.6484375
-13.73291015625
-14.6484375
-14.6484375
-8.23974609375
-6.40869140625
-15.56396484375
-14.6484375
-13.73291015625
-8.23974609375
-9.1552734375
-8.23974609375
-1.8310546875
-2.74658203125
0
-0.91552734375
1.8310546875
-1.8310546875
0.91552734375
-0.91552734375
-4.57763671875
-2.74658203125
-2.74658203125
0.91552734375
-1.8310546875
-3.662109375
0
5.4931640625
3.662109375
-0.91552734375
3.662109375
4.57763671875
2.74658203125
0
0.91552734375
4.57763671875
0.91552734375
-1.8310546875
-4.57763671875
-2.74658203125
0.91552734375
0
0
0.91552734375
-6.40869140625
-13.73291015625
-14.6484375
-10.07080078125
-9.1552734375
-3.662109375
-6.40869140625
-0.91552734375
-10.07080078125
-22.88818359375
-20.1416015625
-14.6484375
-15.56396484375
-11.90185546875
-10.986328125
-17.39501953125
-18.310546875
-18.310546875
-23.8037109375
-28.38134765625
-26.55029296875
-25.634765625
-25.634765625
-26.55029296875
-21.05712890625
-24.71923828125
-24.71923828125
-22.88818359375
-24.71923828125
-28.38134765625
-28.38134765625
-29.296875
-31.1279296875
-33.87451171875
-32.958984375
-33.87451171875
-34.7900390625
-32.958984375
-34.7900390625
-34.7900390625
-37.53662109375
-35.70556640625
-35.70556640625
-36.62109375
-41.19873046875
-45.7763671875
-45.7763671875
-42.1142578125
-44.86083984375
-42.1142578125
-41.19873046875
-43.9453125
-43.9453125
-43.02978515625
-43.02978515625
-44.86083984375
-43.9453125
-34.7900390625
-39.36767578125
-46.69189453125
-44.86083984375
-44.86083984375
-39.36767578125
-41.19873046875
-43.9453125
-44.86083984375
-41.19873046875
-41.19873046875
-46.69189453125
-48.52294921875
-47.607421875
-46.69189453125
-47.607421875
-42.1142578125
-42.1142578125
-47.607421875
-42.1142578125
-43.9453125
-50.35400390625
-52.18505859375
-46.69189453125
-47.607421875
-41.19873046875
-38.4521484375
-33.87451171875
-28.38134765625
-19.22607421875
-6.40869140625
4.57763671875
3.662109375
1.8310546875
-3.662109375
-11.90185546875
-7.32421875
5.4931640625
16.4794921875
26.55029296875
34.7900390625
39.36767578125
32.958984375
35.70556640625
31.1279296875
22.88818359375
17.39501953125
13.73291015625
18.310546875
14.6484375
9.1552734375
10.986328125
2.74658203125
-5.4931640625
-10.07080078125
-13.73291015625
-22.88818359375
-21.05712890625
-24.71923828125
-32.958984375
-43.02978515625
-46.69189453125
-52.18505859375
-55.84716796875
-60.4248046875
-65.00244140625
-69.580078125
-64.0869140625
-64.0869140625
-69.580078125
-69.580078125
-63.17138671875
-68.66455078125
-67.7490234375
-65.00244140625
-57.67822265625
-64.0869140625
-62.255859375
-60.4248046875
-63.17138671875
-65.00244140625
-61.34033203125
-61.34033203125
-65.91796875
-61.34033203125
-59.50927734375
-60.4248046875
-64.0869140625
-60.4248046875
-60.4248046875
-59.50927734375
-61.34033203125
-64.0869140625
-67.7490234375
-80.56640625
-88.80615234375
-99.79248046875
-108.94775390625
-105.28564453125
-87.890625
-64.0869140625
-22.88818359375
36.62109375
130.92041015625
237.12158203125
346.98486328125
473.32763671875
594.17724609375
684.814453125
791.93115234375
912.78076171875
1045.5322265625
1138.00048828125
1156.31103515625
1110.53466796875
942.07763671875
624.3896484375
330.50537109375
98.876953125
-58.59375
-80.56640625
-62.255859375
-37.53662109375
-28.38134765625
-6.40869140625
24.71923828125
34.7900390625
34.7900390625
17.39501953125
10.07080078125
7.32421875
0
-10.986328125
-17.39501953125
-19.22607421875
-20.1416015625
-29.296875
-32.04345703125
-24.71923828125
-19.22607421875
-16.4794921875
-21.05712890625
-23.8037109375
-23.8037109375
-21.97265625
-22.88818359375
-21.05712890625
-23.8037109375
-27.4658203125
-26.55029296875
-29.296875
-28.38134765625
-30.21240234375
-27.4658203125
-27.4658203125
-23.8037109375
-21.05712890625
-20.1416015625
-20.1416015625
-21.97265625
-20.1416015625
-17.39501953125
-21.05712890625
-20.1416015625
-22.88818359375
-19.22607421875
-21.05712890625
-12.8173828125
-16.4794921875
-13.73291015625
-14.6484375
-10.07080078125
-10.986328125
-7.32421875
-10.07080078125
-11.90185546875
-10.986328125
-8.23974609375
-3.662109375
0.91552734375
0
1.8310546875
7.32421875
0
-7.32421875
-0.91552734375
-0.91552734375
-4.57763671875
-4.57763671875
-2.74658203125
-3.662109375
0.91552734375
2.74658203125
3.662109375
5.4931640625
4.57763671875
9.1552734375
10.986328125
17.39501953125
14.6484375
18.310546875
16.4794921875
16.4794921875
18.310546875
23.8037109375
24.71923828125
20.1416015625
21.05712890625
19.22607421875
20.1416015625
21.97265625
21.97265625
23.8037109375
25.634765625
27.4658203125
29.296875
29.296875
33.87451171875
37.53662109375
34.7900390625
38.4521484375
36.62109375
35.70556640625
32.958984375
34.7900390625
38.4521484375
38.4521484375
32.958984375
32.04345703125
38.4521484375
39.36767578125
38.4521484375
38.4521484375
43.02978515625
41.19873046875
40.283203125
43.02978515625
39.36767578125
35.70556640625
33.87451171875
35.70556640625
32.958984375
38.4521484375
37.53662109375
36.62109375
46.69189453125
46.69189453125
38.4521484375
32.958984375
32.04345703125
27.4658203125
24.71923828125
21.05712890625
19.22607421875
17.39501953125
19.22607421875
14.6484375
7.32421875
-2.74658203125
-3.662109375
-0.91552734375
-5.4931640625
-10.07080078125
-12.8173828125
-17.39501953125
-20.1416015625
-21.05712890625
-18.310546875
-17.39501953125
-20.1416015625
-19.22607421875
-21.05712890625
-22.88818359375
-26.55029296875
-26.55029296875
-32.04345703125
-36.62109375
-37.53662109375
-42.1142578125
-39.36767578125
-41.19873046875
-33.87451171875
-29.296875
-32.04345703125
-33.87451171875
-34.7900390625
-33.87451171875
-39.36767578125
-38.4521484375
-33.87451171875
-43.02978515625
-40.283203125
-41.19873046875
-37.53662109375
-34.7900390625
-30.21240234375
-30.21240234375
-32.958984375
-32.958984375
-29.296875
-31.1279296875
-33.87451171875
-29.296875
-30.21240234375
-36.62109375
-38.4521484375
-34.7900390625
-30.21240234375
-28.38134765625
-26.55029296875
-23.8037109375
-19.22607421875
-12.8173828125
-18.310546875
-17.39501953125
-17.39501953125
-15.56396484375
-15.56396484375
-16.4794921875
-19.22607421875
-17.39501953125
-15.56396484375
-21.97265625
-16.4794921875
-11.90185546875
-15.56396484375
-14.6484375
-14.6484375
-6.40869140625
-6.40869140625
-9.1552734375
-13.73291015625
-15.56396484375
-9.1552734375
-10.07080078125
-10.07080078125
-16.4794921875
-17.39501953125
-12.8173828125
-17.39501953125
-20.1416015625
-20.1416015625
-21.97265625
-23.8037109375
-21.05712890625
-20.1416015625
-23.8037109375
-24.71923828125
-18.310546875
-20.1416015625
-25.634765625
-27.4658203125
-29.296875
-33.87451171875
-36.62109375
-35.70556640625
-34.7900390625
-38.4521484375
-33.87451171875
-30.21240234375
-34.7900390625
-35.70556640625
-36.62109375
-42.1142578125
-37.53662109375
-35.70556640625
-44.86083984375
-44.86083984375
-43.9453125
-43.02978515625
-43.02978515625
-53.1005859375
-53.1005859375
-52.18505859375
-50.35400390625
-48.52294921875
-51.26953125
-53.1005859375
-54.01611328125
-47.607421875
-51.26953125
-50.35400390625
-50.35400390625
-51.26953125
-49.4384765625
-53.1005859375
-58.59375
-60.4248046875
-58.59375
-55.84716796875
-51.26953125
-56.7626953125
-54.01611328125
-50.35400390625
-50.35400390625
-54.01611328125
-54.01611328125
-59.50927734375
-54.931640625
-48.52294921875
-51.26953125
-61.34033203125
-61.34033203125
-61.34033203125
-60.4248046875
-68.66455078125
-63.17138671875
-65.91796875
-63.17138671875
-58.59375
-61.34033203125
-63.17138671875
-65.00244140625
-61.34033203125
-62.255859375
-62.255859375
-66.83349609375
-65.00244140625
-65.00244140625
-65.00244140625
-65.00244140625
-73.2421875
-69.580078125
-64.0869140625
-65.00244140625
-65.91796875
-63.17138671875
-62.255859375
-65.00244140625
-64.0869140625
-63.17138671875
-63.17138671875
-63.17138671875
-64.0869140625
-65.00244140625
-68.66455078125
-63.17138671875
-64.0869140625
-64.0869140625
-67.7490234375
-66.83349609375
-65.00244140625
-63.17138671875
-62.255859375
-53.1005859375
-51.26953125
-36.62109375
-22.88818359375
-14.6484375
-14.6484375
-17.39501953125
-19.22607421875
-30.21240234375
-35.70556640625
-22.88818359375
-11.90185546875
4.57763671875
13.73291015625
17.39501953125
16.4794921875
12.8173828125
7.32421875
-1.8310546875
-1.8310546875
0.91552734375
0.91552734375
0
0.91552734375
-8.23974609375
-6.40869140625
-8.23974609375
-18.310546875
-30.21240234375
-34.7900390625
-40.283203125
-46.69189453125
-56.7626953125
-62.255859375
-63.17138671875
-71.4111328125
-80.56640625
-86.97509765625
-86.0595703125
-87.890625
-86.97509765625
-86.0595703125
-82.3974609375
-85.14404296875
-77.81982421875
-72.32666015625
-74.15771484375
-80.56640625
-80.56640625
-81.48193359375
-79.65087890625
-81.48193359375
-83.31298828125
-85.14404296875
-87.890625
-80.56640625
-79.65087890625
-83.31298828125
-82.3974609375
-82.3974609375
-82.3974609375
-79.65087890625
-79.65087890625
-81.48193359375
-82.3974609375
-82.3974609375
-82.3974609375
-85.14404296875
-81.48193359375
-79.65087890625
-88.80615234375
-104.3701171875
-117.1875
-127.25830078125
-127.25830078125
-112.60986328125
-92.46826171875
-53.1005859375
2.74658203125
95.21484375
202.33154296875
308.53271484375
438.53759765625
563.04931640625
657.3486328125
758.97216796875
878.90625
1019.8974609375
1113.28125
1146.240234375
1123.35205078125
975.9521484375
674.74365234375
367.12646484375
122.6806640625
-64.0869140625
-100.7080078125
-82.3974609375
-56.7626953125
-50.35400390625
-32.04345703125
7.32421875
11.90185546875
17.39501953125
8.23974609375
-2.74658203125
-12.8173828125
-17.39501953125
-21.97265625
-28.38134765625
-33.87451171875
-38.4521484375
-38.4521484375
-43.9453125
-43.02978515625
-43.9453125
-42.1142578125
-42.1142578125
-44.86083984375
-44.86083984375
-43.9453125
-43.9453125
-43.02978515625
-41.19873046875
-39.36767578125
-42.1142578125
-43.9453125
-44.86083984375
-44.86083984375
-43.02978515625
-40.283203125
-39.36767578125
-41.19873046875
-41.19873046875
-38.4521484375
-32.958984375
-31.1279296875
-41.19873046875
-32.958984375
-31.1279296875
-35.70556640625
-27.4658203125
-31.1279296875
-32.958984375
-32.04345703125
-32.04345703125
-29.296875
-23.8037109375
-26.55029296875
-22.88818359375
-22.88818359375
-21.05712890625
-21.05712890625
-20.1416015625
-17.39501953125
-14.6484375
-19.22607421875
-19.22607421875
-16.4794921875
-16.4794921875
-15.56396484375
-14.6484375
-13.73291015625
-10.07080078125
-0.91552734375
0.91552734375
-4.57763671875
-6.40869140625
1.8310546875
0.91552734375
1.8310546875
0
6.40869140625
11.90185546875
8.23974609375
13.73291015625
13.73291015625
16.4794921875
19.22607421875
16.4794921875
18.310546875
18.310546875
16.4794921875
17.39501953125
21.97265625
22.88818359375
25.634765625
24.71923828125
31.1279296875
31.1279296875
34.7900390625
42.1142578125
40.283203125
43.02978515625
46.69189453125
57.67822265625
53.1005859375
49.4384765625
54.931640625
55.84716796875
59.50927734375
57.67822265625
54.01611328125
60.4248046875
56.7626953125
54.931640625
57.67822265625
56.7626953125
61.34033203125
61.34033203125
62.255859375
60.4248046875
61.34033203125
61.34033203125
59.50927734375
59.50927734375
63.17138671875
62.255859375
62.255859375
59.50927734375
57.67822265625
60.4248046875
60.4248046875
63.17138671875
61.34033203125
57.67822265625
56.7626953125
52.18505859375
45.7763671875
43.02978515625
43.02978515625
41.19873046875
35.70556640625
37.53662109375
33.87451171875
36.62109375
35.70556640625
21.97265625
21.05712890625
21.05712890625
22.88818359375
14.6484375
11.90185546875
18.310546875
13.73291015625
11.90185546875
10.07080078125
5.4931640625
0.91552734375
9.1552734375
1.8310546875
0
7.32421875
7.32421875
6.40869140625
-1.8310546875
0
0
0.91552734375
5.4931640625
7.32421875
1.8310546875
3.662109375
1.8310546875
0.91552734375
-2.74658203125
7.32421875
2.74658203125
4.57763671875
9.1552734375
8.23974609375
9.1552734375
12.8173828125
7.32421875
8.23974609375
6.40869140625
9.1552734375
14.6484375
14.6484375
14.6484375
14.6484375
19.22607421875
21.05712890625
21.05712890625
20.1416015625
24.71923828125
28.38134765625
29.296875
27.4658203125
29.296875
23.8037109375
22.88818359375
18.310546875
21.97265625
27.4658203125
27.4658203125
32.04345703125
37.53662109375
43.02978515625
47.607421875
46.69189453125
41.19873046875
41.19873046875
43.02978515625
48.52294921875
48.52294921875
46.69189453125
45.7763671875
43.9453125
37.53662109375
42.1142578125
44.86083984375
47.607421875
43.02978515625
46.69189453125
49.4384765625
47.607421875
53.1005859375
46.69189453125
43.02978515625
43.9453125
43.9453125
42.1142578125
47.607421875
50.35400390625
49.4384765625
37.53662109375
37.53662109375
35.70556640625
33.87451171875
33.87451171875
30.21240234375
35.70556640625
34.7900390625
31.1279296875
29.296875
32.04345703125
32.958984375
37.53662109375
35.70556640625
33.87451171875
29.296875
26.55029296875
34.7900390625
37.53662109375
33.87451171875
29.296875
28.38134765625
32.958984375
34.7900390625
32.958984375
30.21240234375
34.7900390625
35.70556640625
32.04345703125
23.8037109375
26.55029296875
26.55029296875
32.958984375
33.87451171875
32.958984375
28.38134765625
28.38134765625
30.21240234375
32.04345703125
24.71923828125
23.8037109375
27.4658203125
29.296875
32.958984375
30.21240234375
28.38134765625
31.1279296875
37.53662109375
39.36767578125
32.958984375
30.21240234375
34.7900390625
34.7900390625
29.296875
29.296875
32.04345703125
38.4521484375
39.36767578125
45.7763671875
37.53662109375
35.70556640625
32.04345703125
36.62109375
36.62109375
38.4521484375
33.87451171875
28.38134765625
27.4658203125
35.70556640625
36.62109375
36.62109375
32.04345703125
31.1279296875
31.1279296875
32.958984375
32.04345703125
29.296875
30.21240234375
32.04345703125
33.87451171875
33.87451171875
31.1279296875
28.38134765625
30.21240234375
30.21240234375
32.04345703125
36.62109375
37.53662109375
38.4521484375
31.1279296875
33.87451171875
32.958984375
29.296875
27.4658203125
36.62109375
37.53662109375
35.70556640625
32.958984375
37.53662109375
28.38134765625
32.04345703125
39.36767578125
35.70556640625
30.21240234375
34.7900390625
28.38134765625
35.70556640625
38.4521484375
32.958984375
28.38134765625
42.1142578125
52.18505859375
43.02978515625
49.4384765625
58.59375
65.00244140625
65.00244140625
65.91796875
62.255859375
66.83349609375
80.56640625
94.29931640625
104.3701171875
113.525390625
120.849609375
117.1875
117.1875
114.44091796875
109.86328125
102.5390625
94.29931640625
98.876953125
107.11669921875
96.13037109375
86.97509765625
83.31298828125
86.97509765625
86.0595703125
78.7353515625
65.91796875
44.86083984375
47.607421875
48.52294921875
36.62109375
27.4658203125
25.634765625
21.05712890625
26.55029296875
31.1279296875
21.05712890625
15.56396484375
10.07080078125
16.4794921875
15.56396484375
15.56396484375
19.22607421875
16.4794921875
14.6484375
21.05712890625
22.88818359375
17.39501953125
21.05712890625
21.97265625
19.22607421875
19.22607421875
18.310546875
17.39501953125
16.4794921875
16.4794921875
14.6484375
16.4794921875
20.1416015625
21.97265625
19.22607421875
16.4794921875
28.38134765625
30.21240234375
28.38134765625
20.1416015625
9.1552734375
10.986328125
3.662109375
-6.40869140625
-14.6484375
-11.90185546875
-2.74658203125
15.56396484375
52.18505859375
97.0458984375
161.1328125
270.08056640625
383.60595703125
501.708984375
635.3759765625
758.97216796875
862.4267578125
961.3037109375
1092.22412109375
1208.49609375
1274.4140625
1274.4140625
1197.509765625
964.05029296875
618.896484375
317.68798828125
78.7353515625
-11.90185546875
-10.07080078125
28.38134765625
56.7626953125
54.01611328125
66.83349609375
97.96142578125
113.525390625
110.77880859375
100.7080078125
94.29931640625
86.97509765625
80.56640625
71.4111328125
67.7490234375
64.0869140625
56.7626953125
56.7626953125
59.50927734375
55.84716796875
53.1005859375
54.01611328125
52.18505859375
54.931640625
54.01611328125
52.18505859375
53.1005859375
50.35400390625
59.50927734375
62.255859375
63.17138671875
64.0869140625
59.50927734375
67.7490234375
61.34033203125
53.1005859375
57.67822265625
61.34033203125
61.34033203125
64.0869140625
58.59375
67.7490234375
71.4111328125
66.83349609375
65.00244140625
62.255859375
65.00244140625
75.0732421875
66.83349609375
71.4111328125
69.580078125
69.580078125
72.32666015625
73.2421875
65.00244140625
74.15771484375
77.81982421875
75.0732421875
77.81982421875
72.32666015625
75.98876953125
83.31298828125
84.228515625
84.228515625
82.3974609375
86.0595703125
84.228515625
86.0595703125
86.0595703125
84.228515625
78.7353515625
86.97509765625
86.97509765625
84.228515625
86.97509765625
86.97509765625
89.7216796875
91.552734375
95.21484375
95.21484375
93.3837890625
94.29931640625
85.14404296875
91.552734375
98.876953125
95.21484375
96.13037109375
97.96142578125
101.62353515625
103.45458984375
106.201171875
112.60986328125
116.27197265625
107.11669921875
113.525390625
114.44091796875
114.44091796875
119.0185546875
121.76513671875
112.60986328125
116.27197265625
117.1875
107.11669921875
114.44091796875
116.27197265625
118.10302734375
122.6806640625
124.51171875
127.25830078125
123.59619140625
121.76513671875
124.51171875
122.6806640625
121.76513671875
125.42724609375
125.42724609375
128.173828125
125.42724609375
123.59619140625
121.76513671875
126.3427734375
122.6806640625
128.173828125
125.42724609375
121.76513671875
114.44091796875
119.93408203125
124.51171875
120.849609375
122.6806640625
119.0185546875
121.76513671875
116.27197265625
114.44091796875
117.1875
110.77880859375
108.0322265625
106.201171875
100.7080078125
97.0458984375
94.29931640625
95.21484375
93.3837890625
87.890625
81.48193359375
82.3974609375
76.904296875
75.0732421875
76.904296875
77.81982421875
81.48193359375
75.0732421875
68.66455078125
66.83349609375
67.7490234375
59.50927734375
57.67822265625
60.4248046875
56.7626953125
58.59375
63.17138671875
60.4248046875
51.26953125
53.1005859375
53.1005859375
56.7626953125
59.50927734375
54.931640625
57.67822265625
51.26953125
49.4384765625
50.35400390625
47.607421875
44.86083984375
45.7763671875
54.931640625
57.67822265625
63.17138671875
57.67822265625
60.4248046875
58.59375
58.59375
57.67822265625
54.931640625
59.50927734375
63.17138671875
64.0869140625
70.49560546875
69.580078125
65.91796875
62.255859375
73.2421875
75.0732421875
63.17138671875
64.0869140625
62.255859375
65.91796875
68.66455078125
69.580078125
66.83349609375
73.2421875
76.904296875
68.66455078125
65.91796875
62.255859375
63.17138671875
62.255859375
65.00244140625
69.580078125
66.83349609375
64.0869140625
73.2421875
72.32666015625
71.4111328125
72.32666015625
65.00244140625
66.83349609375
64.0869140625
67.7490234375
63.17138671875
62.255859375
62.255859375
56.7626953125
64.0869140625
66.83349609375
67.7490234375
68.66455078125
70.49560546875
63.17138671875
52.18505859375
60.4248046875
64.0869140625
58.59375
56.7626953125
53.1005859375
57.67822265625
51.26953125
49.4384765625
50.35400390625
50.35400390625
45.7763671875
47.607421875
47.607421875
46.69189453125
48.52294921875
47.607421875
42.1142578125
41.19873046875
38.4521484375
30.21240234375
31.1279296875
40.283203125
39.36767578125
43.02978515625
41.19873046875
42.1142578125
46.69189453125
43.9453125
34.7900390625
36.62109375
41.19873046875
36.62109375
25.634765625
25.634765625
26.55029296875
30.21240234375
28.38134765625
26.55029296875
27.4658203125
31.1279296875
33.87451171875
40.283203125
32.958984375
25.634765625
23.8037109375
21.05712890625
26.55029296875
31.1279296875
28.38134765625
23.8037109375
24.71923828125
20.1416015625
19.22607421875
20.1416015625
20.1416015625
21.97265625
23.8037109375
19.22607421875
16.4794921875
19.22607421875
12.8173828125
14.6484375
20.1416015625
19.22607421875
15.56396484375
17.39501953125
20.1416015625
22.88818359375
18.310546875
16.4794921875
21.97265625
19.22607421875
18.310546875
19.22607421875
15.56396484375
17.39501953125
12.8173828125
13.73291015625
17.39501953125
15.56396484375
12.8173828125
12.8173828125
16.4794921875
18.310546875
21.05712890625
15.56396484375
17.39501953125
21.05712890625
24.71923828125
32.04345703125
37.53662109375
43.02978515625
56.7626953125
54.931640625
51.26953125
46.69189453125
50.35400390625
60.4248046875
67.7490234375
80.56640625
86.0595703125
99.79248046875
97.96142578125
97.0458984375
90.63720703125
79.65087890625
78.7353515625
76.904296875
76.904296875
84.228515625
75.0732421875
75.0732421875
66.83349609375
61.34033203125
50.35400390625
43.02978515625
40.283203125
31.1279296875
20.1416015625
16.4794921875
13.73291015625
11.90185546875
2.74658203125
-1.8310546875
0
-1.8310546875
-9.1552734375
-8.23974609375
-9.1552734375
-6.40869140625
-1.8310546875
-8.23974609375
-10.986328125
-7.32421875
-3.662109375
-4.57763671875
-7.32421875
-10.986328125
-8.23974609375
-6.40869140625
-9.1552734375
-11.90185546875
-14.6484375
-8.23974609375
-5.4931640625
-7.32421875
-10.986328125
-13.73291015625
-5.4931640625
-6.40869140625
-15.56396484375
-12.8173828125
-9.1552734375
-11.90185546875
-13.73291015625
-12.8173828125
-16.4794921875
-29.296875
-39.36767578125
-49.4384765625
-43.02978515625
-36.62109375
-10.07080078125
30.21240234375
81.48193359375
180.35888671875
295.71533203125
405.57861328125
539.24560546875
669.25048828125
771.78955078125
866.0888671875
983.2763671875
1119.68994140625
1210.3271484375
1236.87744140625
1206.6650390625
1055.60302734375
751.64794921875
421.142578125
157.470703125
-21.97265625
-43.9453125
-16.4794921875
17.39501953125
21.05712890625
18.310546875
44.86083984375
75.98876953125
80.56640625
71.4111328125
63.17138671875
52.18505859375
45.7763671875
36.62109375
40.283203125
37.53662109375
29.296875
30.21240234375
27.4658203125
31.1279296875
23.8037109375
20.1416015625
21.97265625
21.97265625
19.22607421875
20.1416015625
18.310546875
15.56396484375
15.56396484375
12.8173828125
23.8037109375
21.97265625
19.22607421875
21.05712890625
19.22607421875
18.310546875
21.97265625
21.97265625
17.39501953125
25.634765625
26.55029296875
22.88818359375
18.310546875
19.22607421875
25.634765625
21.97265625
26.55029296875
30.21240234375
29.296875
26.55029296875
25.634765625
22.88818359375
26.55029296875
31.1279296875
25.634765625
22.88818359375
24.71923828125
28.38134765625
29.296875
32.958984375
39.36767578125
39.36767578125
42.1142578125
42.1142578125
42.1142578125
42.1142578125
43.9453125
42.1142578125
43.02978515625
44.86083984375
49.4384765625
48.52294921875
44.86083984375
53.1005859375
49.4384765625
52.18505859375
54.01611328125
51.26953125
55.84716796875
52.18505859375
54.01611328125
48.52294921875
47.607421875
54.931640625
62.255859375
55.84716796875
57.67822265625
54.01611328125
60.4248046875
67.7490234375
71.4111328125
65.91796875
64.0869140625
68.66455078125
69.580078125
70.49560546875
67.7490234375
75.98876953125
69.580078125
73.2421875
81.48193359375
81.48193359375
82.3974609375
76.904296875
76.904296875
82.3974609375
80.56640625
80.56640625
82.3974609375
85.14404296875
86.97509765625
84.228515625
82.3974609375
84.228515625
85.14404296875
84.228515625
86.0595703125
88.80615234375
89.7216796875
86.97509765625
89.7216796875
92.46826171875
95.21484375
91.552734375
86.97509765625
82.3974609375
85.14404296875
86.0595703125
76.904296875
78.7353515625
79.65087890625
74.15771484375
67.7490234375
60.4248046875
62.255859375
59.50927734375
53.1005859375
52.18505859375
53.1005859375
48.52294921875
47.607421875
45.7763671875
42.1142578125
40.283203125
42.1142578125
33.87451171875
25.634765625
21.05712890625
24.71923828125
25.634765625
20.1416015625
18.310546875
10.986328125
10.07080078125
15.56396484375
6.40869140625
9.1552734375
0
-1.8310546875
-1.8310546875
-7.32421875
-8.23974609375
-1.8310546875
-0.91552734375
0.91552734375
0
-4.57763671875
-8.23974609375
-4.57763671875
-8.23974609375
-6.40869140625
-4.57763671875
