ECG
-83.31298828125
-75.98876953125
-74.15771484375
-75.0732421875
-84.228515625
-69.580078125
-67.7490234375
-46.69189453125
-46.69189453125
-58.59375
-56.7626953125
-43.9453125
-50.35400390625
-60.4248046875
-56.7626953125
-53.1005859375
-42.1142578125
-48.52294921875
-43.9453125
-39.36767578125
-34.7900390625
-35.70556640625
-9.1552734375
-11.90185546875
-30.21240234375
-31.1279296875
-18.310546875
-29.296875
-29.296875
-18.310546875
-14.6484375
-21.97265625
-12.8173828125
-10.07080078125
-28.38134765625
-40.283203125
-46.69189453125
-57.67822265625
-41.19873046875
-32.04345703125
-32.958984375
-19.22607421875
-5.4931640625
-12.8173828125
-10.986328125
12.8173828125
17.39501953125
11.90185546875
7.32421875
-3.662109375
-0.91552734375
-1.8310546875
-23.8037109375
-32.958984375
-19.22607421875
-16.4794921875
-5.4931640625
0
0
-8.23974609375
-15.56396484375
-18.310546875
-14.6484375
-23.8037109375
-30.21240234375
-28.38134765625
-36.62109375
-43.9453125
-32.04345703125
-31.1279296875
-43.9453125
-67.7490234375
-67.7490234375
-64.0869140625
-61.34033203125
-71.4111328125
-62.255859375
-69.580078125
-90.63720703125
-95.21484375
-86.97509765625
-93.3837890625
-107.11669921875
-99.79248046875
-115.3564453125
-97.0458984375
-95.21484375
-98.876953125
-93.3837890625
-96.13037109375
-96.13037109375
-93.3837890625
-94.29931640625
-93.3837890625
-93.3837890625
-95.21484375
-97.0458984375
-97.0458984375
-97.96142578125
-108.0322265625
-97.0458984375
-87.890625
-91.552734375
-91.552734375
-96.13037109375
-97.96142578125
-91.552734375
-87.890625
-92.46826171875
-89.7216796875
-100.7080078125
-94.29931640625
-89.7216796875
-89.7216796875
-87.890625
-81.48193359375
-92.46826171875
-86.0595703125
-88.80615234375
-94.29931640625
-99.79248046875
-86.0595703125
-80.56640625
-95.21484375
-97.0458984375
-78.7353515625
-83.31298828125
-89.7216796875
-87.890625
-79.65087890625
-83.31298828125
-89.7216796875
-86.0595703125
-83.31298828125
-82.3974609375
-87.890625
-96.13037109375
-93.3837890625
-90.63720703125
-91.552734375
-94.29931640625
-93.3837890625
-99.79248046875
-94.29931640625
-86.0595703125
-83.31298828125
-73.2421875
-79.65087890625
-87.890625
-74.15771484375
-67.7490234375
-66.83349609375
-78.7353515625
-109.86328125
-101.62353515625
-99.79248046875
-91.552734375
-88.80615234375
-90.63720703125
-97.0458984375
-90.63720703125
-75.98876953125
-86.0595703125
-87.890625
-92.46826171875
-100.7080078125
-98.876953125
-119.0185546875
-121.76513671875
-122.6806640625
-124.51171875
-115.3564453125
-109.86328125
-112.60986328125
-105.28564453125
-101.62353515625
-103.45458984375
-100.7080078125
-105.28564453125
-103.45458984375
-104.3701171875
-109.86328125
-104.3701171875
-107.11669921875
-107.11669921875
-111.6943359375
-111.6943359375
-105.28564453125
-104.3701171875
-106.201171875
-114.44091796875
-105.28564453125
-108.94775390625
-108.94775390625
-103.45458984375
-108.0322265625
-102.5390625
-101.62353515625
-107.11669921875
-111.6943359375
-114.44091796875
-114.44091796875
-108.94775390625
-108.94775390625
-97.0458984375
-82.3974609375
-64.0869140625
-55.84716796875
-54.01611328125
-50.35400390625
-54.01611328125
-54.01611328125
-48.52294921875
-51.26953125
-32.958984375
-28.38134765625
-18.310546875
-9.1552734375
-21.97265625
-26.55029296875
-28.38134765625
-21.05712890625
-27.4658203125
-28.38134765625
-15.56396484375
-16.4794921875
-30.21240234375
-33.87451171875
-41.19873046875
-65.91796875
-75.98876953125
-78.7353515625
-83.31298828125
-89.7216796875
-99.79248046875
-103.45458984375
-100.7080078125
-113.525390625
-129.08935546875
-119.93408203125
-118.10302734375
-119.93408203125
-122.6806640625
-130.92041015625
-130.92041015625
-114.44091796875
-110.77880859375
-122.6806640625
-129.08935546875
-120.849609375
-132.75146484375
-119.0185546875
-117.1875
-112.60986328125
-108.0322265625
-97.0458984375
-112.60986328125
-121.76513671875
-113.525390625
-116.27197265625
-128.173828125
-142.822265625
-134.58251953125
-131.8359375
-132.75146484375
-128.173828125
-132.75146484375
-128.173828125
-116.27197265625
-117.1875
-124.51171875
-128.173828125
-151.9775390625
-151.9775390625
-173.03466796875
-177.6123046875
-164.794921875
-151.06201171875
-119.93408203125
-78.7353515625
-5.4931640625
115.3564453125
223.388671875
336.9140625
483.3984375
598.7548828125
659.1796875
771.78955078125
902.7099609375
1039.12353515625
1089.4775390625
1076.66015625
1020.81298828125
812.07275390625
469.66552734375
172.119140625
-63.17138671875
-154.72412109375
-131.8359375
-94.29931640625
-81.48193359375
-88.80615234375
-79.65087890625
-38.4521484375
-34.7900390625
-38.4521484375
-30.21240234375
-54.01611328125
-68.66455078125
-77.81982421875
-82.3974609375
-77.81982421875
-73.2421875
-78.7353515625
-77.81982421875
-74.15771484375
-71.4111328125
-81.48193359375
-91.552734375
-86.97509765625
-85.14404296875
-81.48193359375
-83.31298828125
-80.56640625
-82.3974609375
-91.552734375
-88.80615234375
-89.7216796875
-91.552734375
-95.21484375
-89.7216796875
-90.63720703125
-85.14404296875
-79.65087890625
-93.3837890625
-88.80615234375
-91.552734375
-93.3837890625
-92.46826171875
-84.228515625
-86.0595703125
-93.3837890625
-86.0595703125
-92.46826171875
-85.14404296875
-88.80615234375
-73.2421875
-65.91796875
-62.255859375
-78.7353515625
-75.98876953125
-75.98876953125
-75.98876953125
-66.83349609375
-56.7626953125
-73.2421875
-77.81982421875
-67.7490234375
-65.91796875
-60.4248046875
-74.15771484375
-69.580078125
-52.18505859375
-55.84716796875
-70.49560546875
-83.31298828125
-81.48193359375
-63.17138671875
-54.931640625
-51.26953125
-48.52294921875
-58.59375
-54.931640625
-49.4384765625
-49.4384765625
-48.52294921875
-43.02978515625
-36.62109375
-42.1142578125
-39.36767578125
-35.70556640625
-41.19873046875
-40.283203125
-34.7900390625
-34.7900390625
-32.04345703125
-27.4658203125
-33.87451171875
-32.04345703125
-40.283203125
-33.87451171875
-30.21240234375
-22.88818359375
-27.4658203125
-12.8173828125
-1.8310546875
-10.07080078125
-3.662109375
-20.1416015625
-18.310546875
0
-4.57763671875
-14.6484375
-22.88818359375
-13.73291015625
9.1552734375
6.40869140625
4.57763671875
10.07080078125
3.662109375
-16.4794921875
0
20.1416015625
7.32421875
-10.07080078125
-10.07080078125
-1.8310546875
0.91552734375
7.32421875
6.40869140625
6.40869140625
11.90185546875
17.39501953125
13.73291015625
2.74658203125
5.4931640625
4.57763671875
13.73291015625
6.40869140625
-7.32421875
-15.56396484375
-16.4794921875
-22.88818359375
-22.88818359375
-22.88818359375
-28.38134765625
-26.55029296875
-37.53662109375
-43.02978515625
-56.7626953125
-53.1005859375
-53.1005859375
-56.7626953125
-66.83349609375
-72.32666015625
-80.56640625
-80.56640625
-76.904296875
-76.904296875
-76.904296875
-81.48193359375
-89.7216796875
-92.46826171875
-89.7216796875
-92.46826171875
-90.63720703125
-94.29931640625
-97.0458984375
-87.890625
-80.56640625
-77.81982421875
-75.98876953125
-76.904296875
-85.14404296875
-95.21484375
-94.29931640625
-95.21484375
-81.48193359375
-77.81982421875
-81.48193359375
-79.65087890625
-86.0595703125
-90.63720703125
-82.3974609375
-74.15771484375
-79.65087890625
-74.15771484375
-70.49560546875
-75.0732421875
-76.904296875
-82.3974609375
-86.0595703125
-102.5390625
-104.3701171875
-103.45458984375
-97.96142578125
-96.13037109375
-87.890625
-69.580078125
-75.98876953125
-86.0595703125
-82.3974609375
-75.98876953125
-75.98876953125
-73.2421875
-71.4111328125
-66.83349609375
-58.59375
-67.7490234375
-69.580078125
-60.4248046875
-68.66455078125
-65.00244140625
-63.17138671875
-65.91796875
-67.7490234375
-70.49560546875
-70.49560546875
-69.580078125
-71.4111328125
-76.904296875
-77.81982421875
-73.2421875
-75.98876953125
-75.0732421875
-71.4111328125
-72.32666015625
-65.91796875
-80.56640625
-79.65087890625
-76.904296875
-85.14404296875
-95.21484375
-90.63720703125
-81.48193359375
-79.65087890625
-79.65087890625
-83.31298828125
-79.65087890625
-85.14404296875
-86.0595703125
-91.552734375
-108.0322265625
-110.77880859375
-96.13037109375
-91.552734375
-98.876953125
-106.201171875
-95.21484375
-89.7216796875
-99.79248046875
-97.0458984375
-97.0458984375
-101.62353515625
-104.3701171875
-98.876953125
-85.14404296875
-88.80615234375
-99.79248046875
-100.7080078125
-104.3701171875
-101.62353515625
-105.28564453125
-99.79248046875
-99.79248046875
-105.28564453125
-101.62353515625
-94.29931640625
-97.96142578125
-101.62353515625
-96.13037109375
-104.3701171875
-108.94775390625
-103.45458984375
-94.29931640625
-109.86328125
-105.28564453125
-108.94775390625
-105.28564453125
-97.0458984375
-92.46826171875
-110.77880859375
-111.6943359375
-113.525390625
-122.6806640625
-121.76513671875
-114.44091796875
-108.94775390625
-113.525390625
-113.525390625
-86.0595703125
-79.65087890625
-78.7353515625
-66.83349609375
-55.84716796875
-60.4248046875
-60.4248046875
-69.580078125
-50.35400390625
-35.70556640625
-25.634765625
-15.56396484375
-14.6484375
-21.97265625
-14.6484375
-25.634765625
-29.296875
-41.19873046875
-45.7763671875
-51.26953125
-40.283203125
-43.02978515625
-48.52294921875
-40.283203125
-40.283203125
-30.21240234375
-43.9453125
-64.0869140625
-86.97509765625
-97.0458984375
-91.552734375
-107.11669921875
-124.51171875
-133.6669921875
-130.0048828125
-129.08935546875
-130.0048828125
-125.42724609375
-132.75146484375
-135.498046875
-137.3291015625
-140.07568359375
-130.92041015625
-127.25830078125
-124.51171875
-127.25830078125
-124.51171875
-123.59619140625
-133.6669921875
-127.25830078125
-119.93408203125
-115.3564453125
-115.3564453125
-117.1875
-116.27197265625
-115.3564453125
-126.3427734375
-132.75146484375
-127.25830078125
-118.10302734375
-126.3427734375
-119.0185546875
-119.93408203125
-119.93408203125
-116.27197265625
-125.42724609375
-140.07568359375
-151.06201171875
-162.9638671875
-171.20361328125
-178.52783203125
-184.9365234375
-181.2744140625
-169.37255859375
-135.498046875
-97.0458984375
-32.04345703125
76.904296875
178.52783203125
289.306640625
425.72021484375
538.330078125
624.3896484375
726.01318359375
866.0888671875
1006.16455078125
1086.73095703125
1087.646484375
1034.5458984375
845.03173828125
509.033203125
224.30419921875
-14.6484375
-139.16015625
-135.498046875
-101.62353515625
-85.14404296875
-78.7353515625
-59.50927734375
-31.1279296875
-27.4658203125
-32.04345703125
-31.1279296875
-42.1142578125
-53.1005859375
-65.91796875
-75.98876953125
-71.4111328125
-79.65087890625
-77.81982421875
-85.14404296875
-96.13037109375
-97.0458984375
-94.29931640625
-101.62353515625
-95.21484375
-90.63720703125
-96.13037109375
-97.96142578125
-97.0458984375
-99.79248046875
-97.0458984375
-98.876953125
-99.79248046875
-91.552734375
-95.21484375
-96.13037109375
-97.96142578125
-102.5390625
-99.79248046875
-99.79248046875
-95.21484375
-92.46826171875
-87.890625
-86.97509765625
-90.63720703125
-86.97509765625
-81.48193359375
-77.81982421875
-79.65087890625
-81.48193359375
-89.7216796875
-86.97509765625
-81.48193359375
-81.48193359375
-81.48193359375
-81.48193359375
-73.2421875
-63.17138671875
-78.7353515625
-77.81982421875
-80.56640625
-81.48193359375
-71.4111328125
-69.580078125
-73.2421875
-69.580078125
-73.2421875
-77.81982421875
-69.580078125
-65.91796875
-73.2421875
-74.15771484375
-64.0869140625
-54.01611328125
-55.84716796875
-64.0869140625
-62.255859375
-58.59375
-54.01611328125
-54.01611328125
-52.18505859375
-54.01611328125
-50.35400390625
-52.18505859375
-49.4384765625
-45.7763671875
-44.86083984375
-47.607421875
-44.86083984375
-42.1142578125
-36.62109375
-41.19873046875
-34.7900390625
-26.55029296875
-30.21240234375
-31.1279296875
-27.4658203125
-26.55029296875
-26.55029296875
-24.71923828125
-22.88818359375
-26.55029296875
-27.4658203125
-21.05712890625
-15.56396484375
-24.71923828125
-15.56396484375
-4.57763671875
-10.986328125
-10.986328125
-16.4794921875
-8.23974609375
-8.23974609375
-8.23974609375
-13.73291015625
-1.8310546875
-12.8173828125
-13.73291015625
-10.986328125
-14.6484375
-6.40869140625
-3.662109375
-2.74658203125
0.91552734375
3.662109375
2.74658203125
-0.91552734375
-0.91552734375
5.4931640625
0.91552734375
-2.74658203125
1.8310546875
2.74658203125
-6.40869140625
-17.39501953125
-14.6484375
-15.56396484375
-24.71923828125
-21.97265625
-14.6484375
-35.70556640625
-35.70556640625
-43.02978515625
-42.1142578125
-43.9453125
-47.607421875
-51.26953125
-52.18505859375
-60.4248046875
-65.91796875
-61.34033203125
-67.7490234375
-70.49560546875
-65.91796875
-70.49560546875
-71.4111328125
-71.4111328125
-69.580078125
-69.580078125
-69.580078125
-67.7490234375
-71.4111328125
-69.580078125
-72.32666015625
-77.81982421875
-76.904296875
-69.580078125
-71.4111328125
-73.2421875
-75.98876953125
-75.98876953125
-68.66455078125
-70.49560546875
-69.580078125
-71.4111328125
-70.49560546875
-71.4111328125
-74.15771484375
-74.15771484375
-70.49560546875
-70.49560546875
-65.91796875
-66.83349609375
-68.66455078125
-71.4111328125
-65.91796875
-59.50927734375
-56.7626953125
-67.7490234375
-63.17138671875
-54.931640625
-64.0869140625
-68.66455078125
-66.83349609375
-60.4248046875
-54.01611328125
-58.59375
-66.83349609375
-67.7490234375
-61.34033203125
-56.7626953125
-54.931640625
-55.84716796875
-49.4384765625
-67.7490234375
-72.32666015625
-61.34033203125
-63.17138671875
-61.34033203125
-61.34033203125
-62.255859375
-64.0869140625
-66.83349609375
-66.83349609375
-64.0869140625
-60.4248046875
-62.255859375
-65.91796875
-68.66455078125
-63.17138671875
-70.49560546875
-69.580078125
-67.7490234375
-68.66455078125
-68.66455078125
-69.580078125
-72.32666015625
-71.4111328125
-75.0732421875
-71.4111328125
-70.49560546875
-74.15771484375
-78.7353515625
-74.15771484375
-71.4111328125
-79.65087890625
-75.98876953125
-78.7353515625
-79.65087890625
-81.48193359375
-82.3974609375
-79.65087890625
-80.56640625
-80.56640625
-80.56640625
-80.56640625
-75.0732421875
-76.904296875
-85.14404296875
-82.3974609375
-85.14404296875
-80.56640625
-85.14404296875
-92.46826171875
-92.46826171875
-89.7216796875
-89.7216796875
-90.63720703125
-87.890625
-89.7216796875
-91.552734375
-94.29931640625
-92.46826171875
-90.63720703125
-91.552734375
-88.80615234375
-96.13037109375
-94.29931640625
-96.13037109375
-95.21484375
-99.79248046875
-99.79248046875
-103.45458984375
-103.45458984375
-97.0458984375
-94.29931640625
-89.7216796875
-94.29931640625
-91.552734375
-97.0458984375
-98.876953125
-99.79248046875
-100.7080078125
-100.7080078125
-98.876953125
-92.46826171875
-96.13037109375
-97.0458984375
-97.0458984375
-95.21484375
-95.21484375
-107.11669921875
-101.62353515625
-89.7216796875
-86.97509765625
-98.876953125
-89.7216796875
-97.96142578125
-96.13037109375
-86.97509765625
-73.2421875
-57.67822265625
-53.1005859375
-52.18505859375
-45.7763671875
-45.7763671875
-52.18505859375
-52.18505859375
-41.19873046875
-25.634765625
-19.22607421875
-10.986328125
-1.8310546875
1.8310546875
-4.57763671875
-12.8173828125
-11.90185546875
-20.1416015625
-28.38134765625
-13.73291015625
-4.57763671875
-13.73291015625
-17.39501953125
-21.97265625
-36.62109375
-39.36767578125
-47.607421875
-48.52294921875
-57.67822265625
-68.66455078125
-69.580078125
-80.56640625
-89.7216796875
-98.876953125
-102.5390625
-110.77880859375
-110.77880859375
-106.201171875
-106.201171875
-110.77880859375
-110.77880859375
-108.94775390625
-114.44091796875
-108.94775390625
-108.94775390625
-112.60986328125
-108.0322265625
-113.525390625
-116.27197265625
-113.525390625
-100.7080078125
-108.94775390625
-106.201171875
-110.77880859375
-112.60986328125
-112.60986328125
-111.6943359375
-109.86328125
-107.11669921875
-111.6943359375
-115.3564453125
-118.10302734375
-115.3564453125
-117.1875
-114.44091796875
-101.62353515625
-117.1875
-129.08935546875
-131.8359375
-138.24462890625
-155.6396484375
-161.1328125
-158.38623046875
-142.822265625
-114.44091796875
-54.01611328125
14.6484375
116.27197265625
226.13525390625
357.0556640625
492.5537109375
591.4306640625
682.9833984375
791.015625
931.09130859375
1057.43408203125
1116.943359375
1112.36572265625
1017.15087890625
772.705078125
438.53759765625
178.52783203125
-35.70556640625
-118.10302734375
-109.86328125
-80.56640625
-69.580078125
-47.607421875
-12.8173828125
0
-1.8310546875
-7.32421875
-12.8173828125
-30.21240234375
-34.7900390625
-37.53662109375
-40.283203125
-53.1005859375
-55.84716796875
-58.59375
-59.50927734375
-61.34033203125
-68.66455078125
-69.580078125
-66.83349609375
-61.34033203125
-70.49560546875
-75.98876953125
-71.4111328125
-70.49560546875
-67.7490234375
-69.580078125
-66.83349609375
-70.49560546875
-71.4111328125
-65.00244140625
-66.83349609375
-67.7490234375
-65.91796875
-65.91796875
-72.32666015625
-67.7490234375
-58.59375
-63.17138671875
-65.91796875
-57.67822265625
-62.255859375
-68.66455078125
-60.4248046875
-65.91796875
-68.66455078125
-65.91796875
-61.34033203125
-61.34033203125
-54.931640625
-55.84716796875
-59.50927734375
-58.59375
-53.1005859375
-52.18505859375
-59.50927734375
-56.7626953125
-50.35400390625
-50.35400390625
-47.607421875
-48.52294921875
-43.02978515625
-47.607421875
-43.9453125
-44.86083984375
-38.4521484375
-38.4521484375
-40.283203125
-43.02978515625
-36.62109375
-38.4521484375
-42.1142578125
-38.4521484375
-32.958984375
-36.62109375
-27.4658203125
-33.87451171875
-33.87451171875
-31.1279296875
-21.97265625
-26.55029296875
-27.4658203125
-21.97265625
-20.1416015625
-17.39501953125
-21.97265625
-19.22607421875
-14.6484375
-16.4794921875
-18.310546875
-10.986328125
-7.32421875
-9.1552734375
-6.40869140625
-2.74658203125
-2.74658203125
-10.986328125
-10.07080078125
-9.1552734375
-10.986328125
-10.07080078125
-9.1552734375
0
0
0
1.8310546875
6.40869140625
12.8173828125
13.73291015625
3.662109375
7.32421875
7.32421875
8.23974609375
10.986328125
10.986328125
19.22607421875
21.97265625
21.05712890625
17.39501953125
23.8037109375
20.1416015625
16.4794921875
19.22607421875
17.39501953125
21.05712890625
22.88818359375
24.71923828125
16.4794921875
12.8173828125
16.4794921875
11.90185546875
1.8310546875
-3.662109375
1.8310546875
-11.90185546875
-11.90185546875
-13.73291015625
-18.310546875
-24.71923828125
-26.55029296875
-32.958984375
-32.04345703125
-35.70556640625
-38.4521484375
-46.69189453125
-48.52294921875
-45.7763671875
-54.01611328125
-52.18505859375
-54.931640625
-55.84716796875
-61.34033203125
-64.0869140625
-64.0869140625
-65.00244140625
-68.66455078125
-75.0732421875
-70.49560546875
-67.7490234375
-65.91796875
-66.83349609375
-64.0869140625
-65.00244140625
-63.17138671875
-65.00244140625
-67.7490234375
-65.00244140625
-65.00244140625
-67.7490234375
-69.580078125
-65.91796875
-60.4248046875
-63.17138671875
-64.0869140625
-68.66455078125
-64.0869140625
-64.0869140625
-63.17138671875
-65.91796875
-60.4248046875
-64.0869140625
-59.50927734375
-51.26953125
-56.7626953125
-63.17138671875
-57.67822265625
-60.4248046875
-62.255859375
-59.50927734375
-57.67822265625
-58.59375
-60.4248046875
-57.67822265625
-63.17138671875
-54.01611328125
-55.84716796875
-56.7626953125
-56.7626953125
-59.50927734375
-63.17138671875
-54.01611328125
-54.01611328125
-60.4248046875
-66.83349609375
-60.4248046875
-56.7626953125
-62.255859375
-54.01611328125
-56.7626953125
-62.255859375
-64.0869140625
-58.59375
-55.84716796875
-65.00244140625
-65.91796875
-58.59375
-58.59375
-51.26953125
-59.50927734375
-61.34033203125
-59.50927734375
-63.17138671875
-61.34033203125
-65.00244140625
-69.580078125
-72.32666015625
-71.4111328125
-71.4111328125
-67.7490234375
-64.0869140625
-73.2421875
-68.66455078125
-66.83349609375
-77.81982421875
-75.0732421875
-74.15771484375
-78.7353515625
-75.0732421875
-69.580078125
-71.4111328125
-68.66455078125
-75.0732421875
-78.7353515625
-80.56640625
-78.7353515625
-77.81982421875
-82.3974609375
-81.48193359375
-74.15771484375
-78.7353515625
-89.7216796875
-84.228515625
-81.48193359375
-82.3974609375
-82.3974609375
-82.3974609375
-83.31298828125
-86.0595703125
-89.7216796875
-87.890625
-86.97509765625
-84.228515625
-93.3837890625
-80.56640625
-86.97509765625
-96.13037109375
-83.31298828125
-86.97509765625
-82.3974609375
-88.80615234375
-85.14404296875
-73.2421875
-68.66455078125
-91.552734375
-92.46826171875
-82.3974609375
-84.228515625
-83.31298828125
-86.0595703125
-86.97509765625
-75.98876953125
-85.14404296875
-86.97509765625
-86.97509765625
-78.7353515625
-79.65087890625
-89.7216796875
-89.7216796875
-86.97509765625
-84.228515625
-78.7353515625
-80.56640625
-85.14404296875
-86.0595703125
-87.890625
-80.56640625
-82.3974609375
-86.97509765625
-75.0732421875
-81.48193359375
-83.31298828125
-86.0595703125
-85.14404296875
-81.48193359375
-74.15771484375
-63.17138671875
-57.67822265625
-47.607421875
-35.70556640625
-32.04345703125
-36.62109375
-45.7763671875
-55.84716796875
-48.52294921875
-30.21240234375
-11.90185546875
-2.74658203125
7.32421875
6.40869140625
-4.57763671875
-1.8310546875
-4.57763671875
-9.1552734375
-10.986328125
-10.07080078125
-12.8173828125
-16.4794921875
-24.71923828125
-22.88818359375
-28.38134765625
-32.958984375
-46.69189453125
-59.50927734375
-66.83349609375
-58.59375
-57.67822265625
-72.32666015625
-90.63720703125
-95.21484375
-94.29931640625
-100.7080078125
-109.86328125
-108.0322265625
-107.11669921875
-105.28564453125
-110.77880859375
-108.0322265625
-102.5390625
-102.5390625
-105.28564453125
-107.11669921875
-104.3701171875
-106.201171875
-107.11669921875
-105.28564453125
-109.86328125
-110.77880859375
-113.525390625
-110.77880859375
-109.86328125
-108.0322265625
-108.0322265625
-109.86328125
-101.62353515625
-105.28564453125
-103.45458984375
-101.62353515625
-101.62353515625
-107.11669921875
-103.45458984375
-103.45458984375
-104.3701171875
-116.27197265625
-121.76513671875
-135.498046875
-151.06201171875
-152.89306640625
-160.21728515625
-144.6533203125
-104.3701171875
-65.91796875
0.91552734375
109.86328125
227.05078125
357.97119140625
492.5537109375
613.4033203125
696.71630859375
801.08642578125
952.1484375
1085.8154296875
1160.888671875
1160.888671875
1088.56201171875
853.271484375
520.01953125
231.62841796875
-19.22607421875
-126.3427734375
-112.60986328125
-80.56640625
-65.00244140625
-51.26953125
-24.71923828125
1.8310546875
6.40869140625
3.662109375
-5.4931640625
-13.73291015625
-24.71923828125
-34.7900390625
-39.36767578125
-44.86083984375
-45.7763671875
-53.1005859375
-52.18505859375
-48.52294921875
-48.52294921875
-54.01611328125
-56.7626953125
-56.7626953125
-54.931640625
-56.7626953125
-63.17138671875
-55.84716796875
-45.7763671875
-53.1005859375
-55.84716796875
-54.01611328125
-51.26953125
-48.52294921875
-44.86083984375
-52.18505859375
-54.01611328125
-53.1005859375
-53.1005859375
-47.607421875
-51.26953125
-44.86083984375
-42.1142578125
-43.9453125
-47.607421875
-42.1142578125
-44.86083984375
-44.86083984375
-52.18505859375
-43.02978515625
-39.36767578125
-37.53662109375
-42.1142578125
-44.86083984375
-39.36767578125
-36.62109375
-38.4521484375
-38.4521484375
-31.1279296875
-31.1279296875
-33.87451171875
-28.38134765625
-32.958984375
-32.04345703125
-42.1142578125
-32.04345703125
-25.634765625
-23.8037109375
-19.22607421875
-18.310546875
-17.39501953125
-10.986328125
-15.56396484375
-13.73291015625
-16.4794921875
-10.07080078125
-6.40869140625
-13.73291015625
-10.07080078125
-5.4931640625
-10.986328125
-12.8173828125
-1.8310546875
-6.40869140625
-4.57763671875
-1.8310546875
-1.8310546875
0
-0.91552734375
-2.74658203125
-1.8310546875
0.91552734375
2.74658203125
10.986328125
10.07080078125
15.56396484375
17.39501953125
15.56396484375
19.22607421875
13.73291015625
13.73291015625
22.88818359375
27.4658203125
27.4658203125
24.71923828125
23.8037109375
18.310546875
24.71923828125
26.55029296875
23.8037109375
15.56396484375
19.22607421875
24.71923828125
25.634765625
29.296875
34.7900390625
33.87451171875
33.87451171875
39.36767578125
43.02978515625
37.53662109375
45.7763671875
43.9453125
47.607421875
48.52294921875
45.7763671875
40.283203125
40.283203125
48.52294921875
42.1142578125
40.283203125
42.1142578125
43.02978515625
43.02978515625
31.1279296875
26.55029296875
26.55029296875
30.21240234375
21.97265625
19.22607421875
11.90185546875
5.4931640625
8.23974609375
-10.07080078125
-10.986328125
-10.07080078125
-12.8173828125
-10.07080078125
-16.4794921875
-24.71923828125
-24.71923828125
-27.4658203125
-28.38134765625
-24.71923828125
-28.38134765625
-40.283203125
-41.19873046875
-36.62109375
-45.7763671875
-45.7763671875
-34.7900390625
-29.296875
-31.1279296875
-41.19873046875
-39.36767578125
-40.283203125
-33.87451171875
-35.70556640625
-38.4521484375
-43.02978515625
-36.62109375
-38.4521484375
-33.87451171875
-32.04345703125
-32.958984375
-36.62109375
-35.70556640625
-31.1279296875
-28.38134765625
-25.634765625
-30.21240234375
-33.87451171875
-30.21240234375
-29.296875
-25.634765625
-27.4658203125
-28.38134765625
-42.1142578125
-31.1279296875
-23.8037109375
-30.21240234375
-24.71923828125
-25.634765625
-32.958984375
-33.87451171875
-32.958984375
-28.38134765625
-24.71923828125
-35.70556640625
-33.87451171875
-32.958984375
-33.87451171875
-27.4658203125
-26.55029296875
-31.1279296875
-30.21240234375
-27.4658203125
-21.97265625
-23.8037109375
-27.4658203125
-25.634765625
-29.296875
-28.38134765625
-25.634765625
-36.62109375
-32.958984375
-29.296875
-28.38134765625
-34.7900390625
-38.4521484375
-34.7900390625
-36.62109375
-37.53662109375
-30.21240234375
-35.70556640625
-28.38134765625
-31.1279296875
-29.296875
-43.02978515625
-38.4521484375
-35.70556640625
-40.283203125
-38.4521484375
-41.19873046875
-34.7900390625
-33.87451171875
-43.02978515625
-45.7763671875
-55.84716796875
-45.7763671875
-49.4384765625
-44.86083984375
-42.1142578125
-44.86083984375
-41.19873046875
-41.19873046875
-39.36767578125
-43.9453125
-50.35400390625
-46.69189453125
-43.02978515625
-48.52294921875
-51.26953125
-45.7763671875
-43.9453125
-38.4521484375
-43.9453125
-43.9453125
-56.7626953125
-55.84716796875
-54.01611328125
-58.59375
-45.7763671875
-54.01611328125
-56.7626953125
-48.52294921875
-44.86083984375
-52.18505859375
-54.01611328125
-49.4384765625
-55.84716796875
-52.18505859375
-49.4384765625
-52.18505859375
-56.7626953125
-52.18505859375
-50.35400390625
-54.01611328125
-46.69189453125
-51.26953125
-54.931640625
-51.26953125
-45.7763671875
-44.86083984375
-46.69189453125
-50.35400390625
-45.7763671875
-50.35400390625
-54.931640625
-54.931640625
-48.52294921875
-51.26953125
-55.84716796875
-52.18505859375
-40.283203125
-45.7763671875
-48.52294921875
-41.19873046875
-34.7900390625
-26.55029296875
-15.56396484375
-13.73291015625
-20.1416015625
-28.38134765625
-15.56396484375
-2.74658203125
5.4931640625
15.56396484375
27.4658203125
23.8037109375
37.53662109375
41.19873046875
29.296875
21.05712890625
17.39501953125
20.1416015625
23.8037109375
22.88818359375
10.986328125
12.8173828125
3.662109375
-13.73291015625
-26.55029296875
-25.634765625
-21.05712890625
-29.296875
-43.02978515625
-51.26953125
-54.931640625
-62.255859375
-62.255859375
-61.34033203125
-63.17138671875
-60.4248046875
-63.17138671875
-59.50927734375
-66.83349609375
-66.83349609375
-69.580078125
-66.83349609375
-68.66455078125
-72.32666015625
-76.904296875
-68.66455078125
-61.34033203125
-64.0869140625
-65.00244140625
-67.7490234375
-73.2421875
-75.98876953125
-76.904296875
-75.0732421875
-75.98876953125
-67.7490234375
-69.580078125
-71.4111328125
-63.17138671875
-66.83349609375
-62.255859375
-60.4248046875
-69.580078125
-78.7353515625
-76.904296875
-86.0595703125
-99.79248046875
-113.525390625
-119.93408203125
-111.6943359375
-102.5390625
-79.65087890625
-48.52294921875
1.8310546875
93.3837890625
221.5576171875
335.99853515625
468.75
610.65673828125
720.52001953125
802.91748046875
913.6962890625
1062.01171875
1157.2265625
1186.5234375
1159.0576171875
1027.2216796875
730.5908203125
367.12646484375
96.13037109375
-76.904296875
-109.86328125
-83.31298828125
-43.9453125
-22.88818359375
-23.8037109375
-15.56396484375
9.1552734375
28.38134765625
26.55029296875
14.6484375
10.07080078125
8.23974609375
-4.57763671875
-7.32421875
-3.662109375
-17.39501953125
-20.1416015625
-18.310546875
-21.97265625
-21.05712890625
-22.88818359375
-24.71923828125
-32.958984375
-32.958984375
-33.87451171875
-28.38134765625
-23.8037109375
-27.4658203125
-33.87451171875
-26.55029296875
-25.634765625
-23.8037109375
-24.71923828125
-22.88818359375
-15.56396484375
-17.39501953125
-26.55029296875
-25.634765625
-24.71923828125
-22.88818359375
-22.88818359375
-19.22607421875
-21.05712890625
-17.39501953125
-13.73291015625
-19.22607421875
-23.8037109375
-21.97265625
-13.73291015625
-12.8173828125
-7.32421875
-4.57763671875
-4.57763671875
-3.662109375
-9.1552734375
-9.1552734375
-5.4931640625
-10.986328125
-8.23974609375
0
3.662109375
-2.74658203125
1.8310546875
4.57763671875
-0.91552734375
0.91552734375
0.91552734375
4.57763671875
2.74658203125
5.4931640625
6.40869140625
4.57763671875
10.986328125
13.73291015625
10.986328125
14.6484375
17.39501953125
21.97265625
19.22607421875
21.97265625
25.634765625
23.8037109375
18.310546875
17.39501953125
32.04345703125
29.296875
29.296875
26.55029296875
35.70556640625
32.958984375
28.38134765625
29.296875
30.21240234375
33.87451171875
36.62109375
41.19873046875
44.86083984375
40.283203125
36.62109375
37.53662109375
38.4521484375
34.7900390625
40.283203125
41.19873046875
38.4521484375
43.02978515625
33.87451171875
36.62109375
34.7900390625
34.7900390625
39.36767578125
43.02978515625
42.1142578125
38.4521484375
42.1142578125
48.52294921875
43.9453125
36.62109375
37.53662109375
41.19873046875
42.1142578125
49.4384765625
45.7763671875
44.86083984375
45.7763671875
53.1005859375
46.69189453125
51.26953125
47.607421875
47.607421875
49.4384765625
37.53662109375
40.283203125
43.9453125
43.02978515625
35.70556640625
32.958984375
29.296875
25.634765625
9.1552734375
10.07080078125
14.6484375
12.8173828125
10.07080078125
5.4931640625
5.4931640625
0.91552734375
7.32421875
2.74658203125
-7.32421875
-8.23974609375
-8.23974609375
-8.23974609375
-12.8173828125
-17.39501953125
-15.56396484375
-16.4794921875
-14.6484375
-14.6484375
-12.8173828125
-10.986328125
-11.90185546875
-15.56396484375
-13.73291015625
-7.32421875
-10.986328125
-12.8173828125
-18.310546875
-21.97265625
-20.1416015625
-14.6484375
-16.4794921875
-13.73291015625
-10.07080078125
-10.986328125
-10.07080078125
-9.1552734375
-10.986328125
-16.4794921875
-16.4794921875
-10.07080078125
-4.57763671875
-5.4931640625
-4.57763671875
0.91552734375
-5.4931640625
-4.57763671875
-6.40869140625
-9.1552734375
-3.662109375
-6.40869140625
-4.57763671875
4.57763671875
0
5.4931640625
-4.57763671875
-1.8310546875
7.32421875
1.8310546875
3.662109375
0.91552734375
-0.91552734375
0.91552734375
7.32421875
-1.8310546875
-2.74658203125
-9.1552734375
-3.662109375
-5.4931640625
-10.07080078125
-3.662109375
-7.32421875
3.662109375
-0.91552734375
10.07080078125
5.4931640625
1.8310546875
-1.8310546875
-3.662109375
-6.40869140625
0.91552734375
-4.57763671875
-9.1552734375
-3.662109375
-2.74658203125
-5.4931640625
-11.90185546875
-7.32421875
-9.1552734375
-10.07080078125
-10.986328125
-14.6484375
-13.73291015625
-10.986328125
-11.90185546875
-18.310546875
-16.4794921875
-17.39501953125
-9.1552734375
-8.23974609375
-18.310546875
-18.310546875
-16.4794921875
-18.310546875
-19.22607421875
-19.22607421875
-17.39501953125
-16.4794921875
-20.1416015625
-21.05712890625
-21.97265625
-28.38134765625
-29.296875
-28.38134765625
-25.634765625
-30.21240234375
-26.55029296875
-32.958984375
-36.62109375
-32.958984375
-25.634765625
-24.71923828125
-30.21240234375
-28.38134765625
-28.38134765625
-27.4658203125
-32.958984375
-29.296875
-36.62109375
-33.87451171875
-39.36767578125
-35.70556640625
-33.87451171875
-33.87451171875
-31.1279296875
-38.4521484375
-36.62109375
-36.62109375
-32.04345703125
-37.53662109375
-38.4521484375
-33.87451171875
-34.7900390625
-33.87451171875
-33.87451171875
-37.53662109375
-27.4658203125
-27.4658203125
-24.71923828125
-32.958984375
-36.62109375
-32.958984375
-32.04345703125
-34.7900390625
-30.21240234375
-28.38134765625
-32.04345703125
-34.7900390625
-29.296875
-21.97265625
-20.1416015625
-26.55029296875
-18.310546875
-11.90185546875
-1.8310546875
9.1552734375
10.07080078125
5.4931640625
3.662109375
2.74658203125
13.73291015625
23.8037109375
32.958984375
45.7763671875
50.35400390625
51.26953125
44.86083984375
46.69189453125
40.283203125
35.70556640625
32.04345703125
30.21240234375
34.7900390625
31.1279296875
31.1279296875
27.4658203125
8.23974609375
-3.662109375
-9.1552734375
-13.73291015625
-15.56396484375
-21.97265625
-22.88818359375
-33.87451171875
-43.02978515625
-47.607421875
-50.35400390625
-53.1005859375
-54.01611328125
-56.7626953125
-60.4248046875
-60.4248046875
-54.931640625
-59.50927734375
-58.59375
-57.67822265625
-62.255859375
-59.50927734375
-56.7626953125
-61.34033203125
-58.59375
-53.1005859375
-58.59375
-51.26953125
-58.59375
-65.91796875
-59.50927734375
-59.50927734375
-57.67822265625
-59.50927734375
-54.931640625
-57.67822265625
-58.59375
-62.255859375
-63.17138671875
-55.84716796875
-57.67822265625
-59.50927734375
-65.91796875
-81.48193359375
-89.7216796875
-107.11669921875
-110.77880859375
-99.79248046875
-79.65087890625
-50.35400390625
-2.74658203125
70.49560546875
185.85205078125
302.1240234375
419.3115234375
556.640625
671.9970703125
756.2255859375
870.66650390625
1018.98193359375
1140.7470703125
1186.5234375
1181.0302734375
1088.56201171875
851.4404296875
490.72265625
208.740234375
-12.8173828125
-75.0732421875
-53.1005859375
-25.634765625
-12.8173828125
-10.07080078125
12.8173828125
40.283203125
53.1005859375
46.69189453125
32.04345703125
23.8037109375
18.310546875
15.56396484375
10.07080078125
3.662109375
2.74658203125
-10.07080078125
-15.56396484375
-10.986328125
-15.56396484375
-6.40869140625
-18.310546875
-17.39501953125
-18.310546875
-12.8173828125
-16.4794921875
-11.90185546875
-16.4794921875
-14.6484375
-16.4794921875
-11.90185546875
-16.4794921875
-24.71923828125
-19.22607421875
-18.310546875
-16.4794921875
-16.4794921875
-19.22607421875
-14.6484375
-15.56396484375
-19.22607421875
-14.6484375
-10.986328125
-8.23974609375
-10.07080078125
-11.90185546875
-10.986328125
-10.986328125
-8.23974609375
-8.23974609375
-3.662109375
-4.57763671875
2.74658203125
-0.91552734375
-1.8310546875
0.91552734375
3.662109375
10.986328125
7.32421875
-4.57763671875
3.662109375
7.32421875
4.57763671875
4.57763671875
9.1552734375
15.56396484375
12.8173828125
6.40869140625
15.56396484375
15.56396484375
13.73291015625
8.23974609375
13.73291015625
15.56396484375
16.4794921875
12.8173828125
16.4794921875
22.88818359375
26.55029296875
25.634765625
18.310546875
23.8037109375
32.958984375
31.1279296875
33.87451171875
36.62109375
37.53662109375
32.04345703125
32.958984375
32.958984375
43.02978515625
36.62109375
33.87451171875
36.62109375
44.86083984375
43.9453125
44.86083984375
46.69189453125
51.26953125
56.7626953125
51.26953125
53.1005859375
46.69189453125
49.4384765625
55.84716796875
54.01611328125
55.84716796875
58.59375
54.931640625
57.67822265625
55.84716796875
56.7626953125
59.50927734375
61.34033203125
65.91796875
54.931640625
54.931640625
58.59375
61.34033203125
56.7626953125
54.931640625
59.50927734375
58.59375
60.4248046875
63.17138671875
64.0869140625
66.83349609375
65.91796875
61.34033203125
59.50927734375
61.34033203125
56.7626953125
51.26953125
43.9453125
47.607421875
44.86083984375
40.283203125
35.70556640625
43.02978515625
35.70556640625
32.04345703125
27.4658203125
23.8037109375
15.56396484375
14.6484375
16.4794921875
5.4931640625
5.4931640625
2.74658203125
4.57763671875
0.91552734375
0
0
-5.4931640625
-8.23974609375
-10.07080078125
-5.4931640625
-12.8173828125
-18.310546875
-9.1552734375
-6.40869140625
-10.986328125
-10.986328125
-4.57763671875
-7.32421875
-8.23974609375
-10.07080078125
-10.07080078125
-3.662109375
-14.6484375
-6.40869140625
-10.07080078125
-11.90185546875
-10.07080078125
-6.40869140625
-5.4931640625
-2.74658203125
-4.57763671875
-1.8310546875
-1.8310546875
0.91552734375
-3.662109375
-3.662109375
0
-1.8310546875
-2.74658203125
0
-0.91552734375
0.91552734375
0
-0.91552734375
5.4931640625
-2.74658203125
-4.57763671875
2.74658203125
8.23974609375
-4.57763671875
-2.74658203125
0.91552734375
-0.91552734375
0.91552734375
-2.74658203125
0.91552734375
1.8310546875
0
0
0
-3.662109375
-4.57763671875
-0.91552734375
-3.662109375
-8.23974609375
-5.4931640625
-10.07080078125
-1.8310546875
-7.32421875
-1.8310546875
-3.662109375
-8.23974609375
-10.07080078125
-13.73291015625
-13.73291015625
-10.986328125
-14.6484375
-17.39501953125
-11.90185546875
-18.310546875
-18.310546875
-14.6484375
-15.56396484375
-13.73291015625
-14.6484375
-18.310546875
-19.22607421875
-19.22607421875
-18.310546875
-21.97265625
-24.71923828125
-22.88818359375
-20.1416015625
-21.97265625
-27.4658203125
-21.97265625
-23.8037109375
-29.296875
-29.296875
-30.21240234375
-29.296875
-24.71923828125
-25.634765625
-28.38134765625
-31.1279296875
-30.21240234375
-29.296875
-35.70556640625
-32.958984375
-34.7900390625
-33.87451171875
-33.87451171875
-32.04345703125
-34.7900390625
-31.1279296875
-32.04345703125
-28.38134765625
-32.04345703125
-34.7900390625
-34.7900390625
-43.9453125
-39.36767578125
-40.283203125
-36.62109375
-37.53662109375
-40.283203125
-37.53662109375
-41.19873046875
-36.62109375
-43.9453125
-44.86083984375
-38.4521484375
-36.62109375
-37.53662109375
-45.7763671875
-45.7763671875
-39.36767578125
-43.02978515625
-43.9453125
-41.19873046875
-38.4521484375
-43.02978515625
-40.283203125
-43.02978515625
-43.9453125
-43.9453125
-43.02978515625
-42.1142578125
-43.9453125
-42.1142578125
-43.9453125
-47.607421875
-41.19873046875
-41.19873046875
-40.283203125
-43.02978515625
-43.9453125
-43.02978515625
-45.7763671875
-46.69189453125
-44.86083984375
-40.283203125
-35.70556640625
-38.4521484375
-32.958984375
-22.88818359375
-30.21240234375
-10.07080078125
4.57763671875
3.662109375
6.40869140625
6.40869140625
-2.74658203125
0
10.07080078125
15.56396484375
22.88818359375
42.1142578125
50.35400390625
47.607421875
44.86083984375
37.53662109375
29.296875
27.4658203125
22.88818359375
23.8037109375
25.634765625
21.05712890625
19.22607421875
12.8173828125
-0.91552734375
-5.4931640625
-16.4794921875
-21.05712890625
-23.8037109375
-26.55029296875
-32.04345703125
-40.283203125
-54.931640625
-66.83349609375
-69.580078125
-68.66455078125
-64.0869140625
-67.7490234375
-66.83349609375
-68.66455078125
-68.66455078125
-71.4111328125
-70.49560546875
-66.83349609375
-69.580078125
-73.2421875
-75.98876953125
-75.0732421875
-73.2421875
-68.66455078125
-70.49560546875
-74.15771484375
-68.66455078125
-75.0732421875
-74.15771484375
-74.15771484375
-76.904296875
-71.4111328125
-65.00244140625
-61.34033203125
-67.7490234375
-67.7490234375
-65.91796875
-68.66455078125
-67.7490234375
-72.32666015625
-79.65087890625
-86.97509765625
-101.62353515625
-115.3564453125
-121.76513671875
-112.60986328125
-97.96142578125
-66.83349609375
-22.88818359375
41.19873046875
154.72412109375
270.99609375
400.08544921875
530.09033203125
638.12255859375
719.6044921875
836.7919921875
978.69873046875
1110.53466796875
1166.3818359375
1166.3818359375
1080.322265625
834.04541015625
480.65185546875
208.740234375
-6.40869140625
-81.48193359375
-72.32666015625
-36.62109375
-19.22607421875
-11.90185546875
16.4794921875
34.7900390625
42.1142578125
33.87451171875
24.71923828125
5.4931640625
-4.57763671875
-3.662109375
-6.40869140625
-13.73291015625
-12.8173828125
-17.39501953125
-19.22607421875
-21.05712890625
-29.296875
-26.55029296875
-26.55029296875
-30.21240234375
-30.21240234375
-26.55029296875
-32.04345703125
-28.38134765625
-32.04345703125
-25.634765625
-31.1279296875
-37.53662109375
-33.87451171875
-29.296875
-28.38134765625
-28.38134765625
-31.1279296875
-28.38134765625
-28.38134765625
-26.55029296875
-26.55029296875
-27.4658203125
-26.55029296875
-20.1416015625
-15.56396484375
-15.56396484375
-14.6484375
-21.97265625
-22.88818359375
-24.71923828125
-20.1416015625
-19.22607421875
-21.05712890625
-18.310546875
-14.6484375
-10.986328125
-8.23974609375
-11.90185546875
-10.07080078125
-9.1552734375
-10.07080078125
-8.23974609375
-1.8310546875
-3.662109375
-7.32421875
-6.40869140625
-0.91552734375
-3.662109375
-7.32421875
-6.40869140625
-5.4931640625
-0.91552734375
0.91552734375
3.662109375
4.57763671875
9.1552734375
11.90185546875
12.8173828125
14.6484375
10.986328125
16.4794921875
17.39501953125
13.73291015625
21.97265625
29.296875
16.4794921875
14.6484375
21.05712890625
21.05712890625
23.8037109375
31.1279296875
40.283203125
23.8037109375
31.1279296875
41.19873046875
38.4521484375
35.70556640625
38.4521484375
39.36767578125
43.02978515625
46.69189453125
41.19873046875
41.19873046875
43.02978515625
41.19873046875
47.607421875
53.1005859375
47.607421875
44.86083984375
49.4384765625
52.18505859375
50.35400390625
54.931640625
55.84716796875
51.26953125
58.59375
56.7626953125
52.18505859375
53.1005859375
53.1005859375
54.01611328125
56.7626953125
54.931640625
56.7626953125
61.34033203125
58.59375
59.50927734375
61.34033203125
65.91796875
58.59375
57.67822265625
57.67822265625
56.7626953125
53.1005859375
47.607421875
50.35400390625
51.26953125
43.02978515625
34.7900390625
29.296875
29.296875
27.4658203125
21.97265625
20.1416015625
20.1416015625
15.56396484375
11.90185546875
6.40869140625
1.8310546875
1.8310546875
2.74658203125
-1.8310546875
-5.4931640625
-6.40869140625
-7.32421875
-12.8173828125
-13.73291015625
-12.8173828125
-13.73291015625
-10.07080078125
-12.8173828125
-14.6484375
-13.73291015625
-10.07080078125
-4.57763671875
-10.986328125
-15.56396484375
-16.4794921875
-14.6484375
-11.90185546875
-14.6484375
-13.73291015625
-9.1552734375
-9.1552734375
-13.73291015625
-11.90185546875
-13.73291015625
-7.32421875
-1.8310546875
-9.1552734375
-12.8173828125
-6.40869140625
-1.8310546875
-8.23974609375
-4.57763671875
0
-3.662109375
-8.23974609375
-4.57763671875
-2.74658203125
-6.40869140625
-9.1552734375
-14.6484375
-9.1552734375
-4.57763671875
-11.90185546875
-11.90185546875
-12.8173828125
-10.07080078125
-10.07080078125
-10.986328125
-9.1552734375
-10.07080078125
-7.32421875
-8.23974609375
-10.986328125
-6.40869140625
-5.4931640625
-3.662109375
-3.662109375
-11.90185546875
-5.4931640625
-2.74658203125
-0.91552734375
-9.1552734375
-11.90185546875
-1.8310546875
-3.662109375
-8.23974609375
-10.986328125
-15.56396484375
-13.73291015625
-12.8173828125
-15.56396484375
-21.05712890625
-20.1416015625
-17.39501953125
-13.73291015625
-15.56396484375
-16.4794921875
-17.39501953125
-18.310546875
-18.310546875
-21.05712890625
-22.88818359375
-24.71923828125
-28.38134765625
-24.71923828125
-24.71923828125
-30.21240234375
-28.38134765625
-27.4658203125
-26.55029296875
-28.38134765625
-30.21240234375
-31.1279296875
-31.1279296875
-28.38134765625
-32.958984375
-32.04345703125
-32.958984375
-32.958984375
-36.62109375
-34.7900390625
-34.7900390625
-37.53662109375
-39.36767578125
-38.4521484375
-36.62109375
-35.70556640625
-37.53662109375
-38.4521484375
-36.62109375
-33.87451171875
-33.87451171875
-36.62109375
-36.62109375
-40.283203125
-43.9453125
-42.1142578125
-41.19873046875
-41.19873046875
-43.02978515625
-43.02978515625
-47.607421875
-49.4384765625
-42.1142578125
-42.1142578125
-46.69189453125
-48.52294921875
-47.607421875
-47.607421875
-44.86083984375
-47.607421875
-45.7763671875
-48.52294921875
-46.69189453125
-45.7763671875
-43.9453125
-47.607421875
-51.26953125
-46.69189453125
-48.52294921875
-49.4384765625
-45.7763671875
-49.4384765625
-48.52294921875
-51.26953125
-53.1005859375
-55.84716796875
-53.1005859375
-54.01611328125
-52.18505859375
-52.18505859375
-52.18505859375
-54.931640625
-54.01611328125
-51.26953125
-43.9453125
-32.04345703125
-10.07080078125
-7.32421875
-13.73291015625
-19.22607421875
-17.39501953125
-15.56396484375
-1.8310546875
6.40869140625
15.56396484375
34.7900390625
44.86083984375
44.86083984375
34.7900390625
26.55029296875
22.88818359375
15.56396484375
15.56396484375
20.1416015625
22.88818359375
20.1416015625
9.1552734375
9.1552734375
-0.91552734375
-16.4794921875
-23.8037109375
-23.8037109375
-31.1279296875
-35.70556640625
-44.86083984375
-54.931640625
-66.83349609375
-70.49560546875
-69.580078125
-72.32666015625
-78.7353515625
-81.48193359375
-78.7353515625
-77.81982421875
-79.65087890625
-77.81982421875
-80.56640625
-75.98876953125
-75.0732421875
-80.56640625
-79.65087890625
-77.81982421875
-80.56640625
-80.56640625
-86.0595703125
-84.228515625
-82.3974609375
-82.3974609375
-82.3974609375
-81.48193359375
-80.56640625
-82.3974609375
-78.7353515625
-77.81982421875
-81.48193359375
-81.48193359375
-78.7353515625
-76.904296875
-80.56640625
-81.48193359375
-89.7216796875
-94.29931640625
-102.5390625
-121.76513671875
-130.92041015625
-130.92041015625
-110.77880859375
-94.29931640625
-75.98876953125
-28.38134765625
64.0869140625
181.2744140625
297.54638671875
437.6220703125
570.37353515625
659.1796875
753.47900390625
881.65283203125
1036.376953125
1148.0712890625
1182.861328125
1148.0712890625
983.2763671875
663.75732421875
332.33642578125
87.890625
-75.98876953125
-89.7216796875
-71.4111328125
-42.1142578125
-32.04345703125
-13.73291015625
17.39501953125
28.38134765625
22.88818359375
18.310546875
10.07080078125
1.8310546875
-6.40869140625
-13.73291015625
-21.05712890625
-27.4658203125
-31.1279296875
-35.70556640625
-33.87451171875
-31.1279296875
-42.1142578125
-37.53662109375
-30.21240234375
-31.1279296875
-42.1142578125
-35.70556640625
-31.1279296875
-35.70556640625
-35.70556640625
-36.62109375
-39.36767578125
-35.70556640625
-32.958984375
-35.70556640625
-37.53662109375
-37.53662109375
-31.1279296875
-32.04345703125
-32.958984375
-32.04345703125
-29.296875
-30.21240234375
-31.1279296875
-34.7900390625
-34.7900390625
-32.04345703125
-24.71923828125
-22.88818359375
-30.21240234375
-21.05712890625
-20.1416015625
-21.97265625
-23.8037109375
-19.22607421875
-18.310546875
-24.71923828125
-21.97265625
-23.8037109375
-22.88818359375
-23.8037109375
-14.6484375
-15.56396484375
-10.07080078125
-15.56396484375
-11.90185546875
-7.32421875
-7.32421875
-2.74658203125
-4.57763671875
-8.23974609375
-11.90185546875
-5.4931640625
1.8310546875
5.4931640625
-3.662109375
-2.74658203125
4.57763671875
6.40869140625
6.40869140625
10.986328125
9.1552734375
17.39501953125
23.8037109375
22.88818359375
20.1416015625
25.634765625
21.05712890625
20.1416015625
21.97265625
27.4658203125
23.8037109375
29.296875
30.21240234375
29.296875
30.21240234375
29.296875
32.04345703125
32.958984375
40.283203125
38.4521484375
40.283203125
35.70556640625
37.53662109375
38.4521484375
43.02978515625
49.4384765625
44.86083984375
46.69189453125
50.35400390625
47.607421875
53.1005859375
50.35400390625
55.84716796875
55.84716796875
57.67822265625
54.931640625
58.59375
59.50927734375
63.17138671875
59.50927734375
60.4248046875
59.50927734375
59.50927734375
55.84716796875
58.59375
63.17138671875
55.84716796875
53.1005859375
54.01611328125
56.7626953125
51.26953125
52.18505859375
43.9453125
37.53662109375
38.4521484375
38.4521484375
43.9453125
32.04345703125
26.55029296875
23.8037109375
21.05712890625
19.22607421875
12.8173828125
5.4931640625
0
0.91552734375
-5.4931640625
-10.07080078125
-10.07080078125
-8.23974609375
-18.310546875
-20.1416015625
-20.1416015625
-17.39501953125
-19.22607421875
-23.8037109375
-32.958984375
-27.4658203125
-32.04345703125
-31.1279296875
-27.4658203125
-33.87451171875
-32.958984375
-35.70556640625
-37.53662109375
-31.1279296875
-28.38134765625
-32.958984375
-24.71923828125
-24.71923828125
-28.38134765625
-30.21240234375
-27.4658203125
-32.04345703125
-26.55029296875
-24.71923828125
-21.97265625
-22.88818359375
-25.634765625
-27.4658203125
-24.71923828125
-17.39501953125
-21.05712890625
-24.71923828125
-18.310546875
-18.310546875
-23.8037109375
-22.88818359375
-16.4794921875
-14.6484375
-15.56396484375
-11.90185546875
-11.90185546875
-10.07080078125
-13.73291015625
-12.8173828125
-11.90185546875
-10.986328125
-12.8173828125
-16.4794921875
-16.4794921875
-14.6484375
-15.56396484375
-12.8173828125
-12.8173828125
-14.6484375
-10.07080078125
-10.07080078125
-10.986328125
-9.1552734375
-8.23974609375
-14.6484375
-20.1416015625
-16.4794921875
-12.8173828125
-12.8173828125
-15.56396484375
-18.310546875
-14.6484375
-19.22607421875
-15.56396484375
-19.22607421875
-13.73291015625
-20.1416015625
-21.97265625
-21.97265625
-21.05712890625
-20.1416015625
-21.05712890625
-26.55029296875
-27.4658203125
-26.55029296875
-23.8037109375
-25.634765625
-30.21240234375
-29.296875
-32.958984375
-31.1279296875
-32.958984375
-32.04345703125
-26.55029296875
-25.634765625
-26.55029296875
-34.7900390625
-38.4521484375
-39.36767578125
-37.53662109375
-32.04345703125
-33.87451171875
-36.62109375
-25.634765625
-30.21240234375
-32.04345703125
-31.1279296875
-41.19873046875
-38.4521484375
-34.7900390625
-42.1142578125
-41.19873046875
-41.19873046875
-43.9453125
-41.19873046875
-38.4521484375
-39.36767578125
-35.70556640625
-37.53662109375
-38.4521484375
-43.9453125
-41.19873046875
-39.36767578125
-38.4521484375
-42.1142578125
-39.36767578125
-39.36767578125
-38.4521484375
-36.62109375
-37.53662109375
-41.19873046875
-39.36767578125
-42.1142578125
-44.86083984375
-37.53662109375
-32.958984375
-42.1142578125
-43.9453125
-39.36767578125
-43.9453125
-48.52294921875
-39.36767578125
-38.4521484375
-41.19873046875
-32.958984375
-33.87451171875
-41.19873046875
-40.283203125
-41.19873046875
-37.53662109375
-41.19873046875
-31.1279296875
-21.05712890625
-14.6484375
-3.662109375
-1.8310546875
-10.986328125
-17.39501953125
-8.23974609375
7.32421875
18.310546875
22.88818359375
35.70556640625
44.86083984375
43.9453125
44.86083984375
38.4521484375
33.87451171875
29.296875
24.71923828125
30.21240234375
32.958984375
29.296875
22.88818359375
14.6484375
10.986328125
2.74658203125
-3.662109375
-7.32421875
-12.8173828125
-23.8037109375
-32.04345703125
-38.4521484375
-47.607421875
-55.84716796875
-54.01611328125
-56.7626953125
-54.01611328125
-43.02978515625
-51.26953125
-52.18505859375
-59.50927734375
-64.0869140625
-57.67822265625
-64.0869140625
-59.50927734375
-57.67822265625
-55.84716796875
-58.59375
-63.17138671875
-65.00244140625
-57.67822265625
-62.255859375
-52.18505859375
-54.01611328125
-62.255859375
-64.0869140625
-55.84716796875
-59.50927734375
-59.50927734375
-54.931640625
-51.26953125
-53.1005859375
-59.50927734375
-52.18505859375
-54.01611328125
-63.17138671875
-61.34033203125
-75.98876953125
-86.97509765625
-95.21484375
-104.3701171875
-98.876953125
-77.81982421875
-56.7626953125
-10.986328125
56.7626953125
162.9638671875
285.64453125
409.24072265625
557.55615234375
689.39208984375
780.94482421875
876.15966796875
1011.65771484375
1147.15576171875
1216.73583984375
1212.158203125
1137.0849609375
914.61181640625
574.951171875
263.671875
19.22607421875
-90.63720703125
-79.65087890625
-37.53662109375
-10.07080078125
-10.986328125
-11.90185546875
16.4794921875
37.53662109375
43.02978515625
38.4521484375
24.71923828125
21.97265625
21.97265625
7.32421875
1.8310546875
-2.74658203125
-4.57763671875
-8.23974609375
-10.07080078125
-10.07080078125
-7.32421875
-10.07080078125
-7.32421875
-1.8310546875
-2.74658203125
-10.986328125
-10.986328125
-9.1552734375
-12.8173828125
-15.56396484375
-10.07080078125
-14.6484375
-9.1552734375
-6.40869140625
-1.8310546875
-7.32421875
-8.23974609375
-5.4931640625
-6.40869140625
-3.662109375
1.8310546875
-5.4931640625
-2.74658203125
-0.91552734375
0.91552734375
-3.662109375
4.57763671875
1.8310546875
-3.662109375
-4.57763671875
-1.8310546875
2.74658203125
-1.8310546875
0
1.8310546875
2.74658203125
7.32421875
12.8173828125
11.90185546875
10.07080078125
10.986328125
11.90185546875
15.56396484375
14.6484375
15.56396484375
19.22607421875
21.05712890625
23.8037109375
21.97265625
24.71923828125
24.71923828125
21.05712890625
31.1279296875
29.296875
29.296875
35.70556640625
32.958984375
33.87451171875
32.958984375
36.62109375
39.36767578125
39.36767578125
41.19873046875
38.4521484375
41.19873046875
44.86083984375
48.52294921875
51.26953125
52.18505859375
48.52294921875
51.26953125
52.18505859375
51.26953125
58.59375
52.18505859375
51.26953125
58.59375
62.255859375
61.34033203125
62.255859375
60.4248046875
60.4248046875
62.255859375
65.00244140625
61.34033203125
64.0869140625
65.91796875
63.17138671875
58.59375
63.17138671875
71.4111328125
67.7490234375
68.66455078125
74.15771484375
69.580078125
66.83349609375
67.7490234375
70.49560546875
71.4111328125
74.15771484375
75.98876953125
75.0732421875
80.56640625
81.48193359375
69.580078125
74.15771484375
82.3974609375
79.65087890625
73.2421875
75.0732421875
68.66455078125
72.32666015625
69.580078125
57.67822265625
57.67822265625
60.4248046875
54.01611328125
53.1005859375
48.52294921875
51.26953125
41.19873046875
36.62109375
39.36767578125
37.53662109375
35.70556640625
34.7900390625
20.1416015625
18.310546875
17.39501953125
13.73291015625
13.73291015625
6.40869140625
9.1552734375
9.1552734375
8.23974609375
9.1552734375
8.23974609375
4.57763671875
0.91552734375
-0.91552734375
-1.8310546875
-2.74658203125
1.8310546875
0.91552734375
0
-0.91552734375
-0.91552734375
0.91552734375
-0.91552734375
-2.74658203125
4.57763671875
2.74658203125
0.91552734375
3.662109375
10.07080078125
7.32421875
2.74658203125
6.40869140625
7.32421875
12.8173828125
14.6484375
14.6484375
9.1552734375
13.73291015625
15.56396484375
11.90185546875
16.4794921875
11.90185546875
10.986328125
13.73291015625
17.39501953125
18.310546875
21.97265625
25.634765625
21.05712890625
19.22607421875
22.88818359375
19.22607421875
17.39501953125
18.310546875
9.1552734375
18.310546875
21.97265625
21.97265625
15.56396484375
19.22607421875
21.97265625
22.88818359375
21.05712890625
19.22607421875
19.22607421875
17.39501953125
21.97265625
22.88818359375
23.8037109375
18.310546875
21.05712890625
14.6484375
10.986328125
10.986328125
10.986328125
12.8173828125
14.6484375
9.1552734375
15.56396484375
12.8173828125
7.32421875
6.40869140625
3.662109375
9.1552734375
3.662109375
7.32421875
10.986328125
4.57763671875
2.74658203125
2.74658203125
2.74658203125
1.8310546875
3.662109375
-0.91552734375
-0.91552734375
2.74658203125
-2.74658203125
2.74658203125
2.74658203125
-0.91552734375
-5.4931640625
-4.57763671875
-7.32421875
-4.57763671875
-11.90185546875
-8.23974609375
-4.57763671875
-3.662109375
-4.57763671875
-5.4931640625
-10.07080078125
-10.07080078125
-4.57763671875
-5.4931640625
-10.07080078125
-10.07080078125
-12.8173828125
-7.32421875
-11.90185546875
-15.56396484375
-10.07080078125
-13.73291015625
-15.56396484375
-10.986328125
-6.40869140625
-8.23974609375
-18.310546875
-16.4794921875
-13.73291015625
-14.6484375
-15.56396484375
-13.73291015625
-22.88818359375
-18.310546875
-15.56396484375
-15.56396484375
-16.4794921875
-14.6484375
-17.39501953125
-14.6484375
-6.40869140625
-12.8173828125
-21.97265625
-20.1416015625
-14.6484375
-9.1552734375
-5.4931640625
-14.6484375
-19.22607421875
-9.1552734375
-4.57763671875
-2.74658203125
10.986328125
18.310546875
20.1416015625
20.1416015625
18.310546875
21.97265625
24.71923828125
32.958984375
46.69189453125
62.255859375
72.32666015625
73.2421875
64.0869140625
65.91796875
63.17138671875
52.18505859375
49.4384765625
50.35400390625
51.26953125
50.35400390625
49.4384765625
51.26953125
35.70556640625
28.38134765625
20.1416015625
8.23974609375
0
0
-12.8173828125
-20.1416015625
-24.71923828125
-32.04345703125
-32.04345703125
-31.1279296875
-36.62109375
-34.7900390625
-40.283203125
-35.70556640625
-34.7900390625
-37.53662109375
-43.02978515625
-40.283203125
-37.53662109375
-33.87451171875
-35.70556640625
-36.62109375
-37.53662109375
-38.4521484375
-38.4521484375
-38.4521484375
-39.36767578125
-37.53662109375
-36.62109375
-35.70556640625
-40.283203125
-40.283203125
-35.70556640625
-43.02978515625
-39.36767578125
-38.4521484375
-37.53662109375
-35.70556640625
-40.283203125
-42.1142578125
-41.19873046875
-43.9453125
-59.50927734375
-76.904296875
-86.97509765625
-96.13037109375
-83.31298828125
-57.67822265625
-25.634765625
23.8037109375
107.11669921875
226.13525390625
341.49169921875
473.32763671875
607.91015625
723.2666015625
807.4951171875
921.0205078125
1075.74462890625
1187.43896484375
1217.6513671875
1197.509765625
1073.91357421875
796.5087890625
444.03076171875
168.45703125
-32.958984375
-74.15771484375
-40.283203125
-6.40869140625
5.4931640625
7.32421875
29.296875
57.67822265625
65.91796875
61.34033203125
50.35400390625
39.36767578125
32.04345703125
25.634765625
23.8037109375
13.73291015625
8.23974609375
9.1552734375
8.23974609375
2.74658203125
7.32421875
0
1.8310546875
-1.8310546875
2.74658203125
-1.8310546875
-2.74658203125
2.74658203125
-1.8310546875
-0.91552734375
2.74658203125
-0.91552734375
-3.662109375
-1.8310546875
7.32421875
3.662109375
-2.74658203125
-4.57763671875
0.91552734375
0.91552734375
0.91552734375
1.8310546875
0.91552734375
1.8310546875
2.74658203125
4.57763671875
4.57763671875
4.57763671875
7.32421875
7.32421875
10.07080078125
4.57763671875
7.32421875
6.40869140625
8.23974609375
11.90185546875
12.8173828125
18.310546875
14.6484375
15.56396484375
14.6484375
15.56396484375
21.05712890625
20.1416015625
21.97265625
21.97265625
27.4658203125
33.87451171875
27.4658203125
30.21240234375
34.7900390625
35.70556640625
34.7900390625
35.70556640625
41.19873046875
38.4521484375
34.7900390625
35.70556640625
39.36767578125
35.70556640625
37.53662109375
46.69189453125
55.84716796875
53.1005859375
43.9453125
51.26953125
51.26953125
51.26953125
54.01611328125
49.4384765625
54.931640625
59.50927734375
59.50927734375
59.50927734375
64.0869140625
66.83349609375
64.0869140625
65.00244140625
66.83349609375
68.66455078125
68.66455078125
65.00244140625
66.83349609375
66.83349609375
68.66455078125
67.7490234375
71.4111328125
72.32666015625
76.904296875
71.4111328125
71.4111328125
72.32666015625
72.32666015625
74.15771484375
76.904296875
78.7353515625
76.904296875
76.904296875
86.97509765625
94.29931640625
91.552734375
98.876953125
103.45458984375
99.79248046875
91.552734375
86.0595703125
90.63720703125
95.21484375
94.29931640625
94.29931640625
90.63720703125
85.14404296875
79.65087890625
70.49560546875
74.15771484375
77.81982421875
78.7353515625
65.00244140625
52.18505859375
50.35400390625
43.02978515625
43.02978515625
41.19873046875
43.02978515625
41.19873046875
34.7900390625
27.4658203125
25.634765625
27.4658203125
21.97265625
21.05712890625
23.8037109375
13.73291015625
9.1552734375
9.1552734375
11.90185546875
8.23974609375
4.57763671875
6.40869140625
6.40869140625
-0.91552734375
-0.91552734375
-0.91552734375
3.662109375
-0.91552734375
0
1.8310546875
3.662109375
4.57763671875
1.8310546875
-0.91552734375
-1.8310546875
3.662109375
4.57763671875
6.40869140625
8.23974609375
7.32421875
2.74658203125
8.23974609375
10.07080078125
16.4794921875
14.6484375
14.6484375
18.310546875
14.6484375
13.73291015625
11.90185546875
9.1552734375
12.8173828125
13.73291015625
16.4794921875
18.310546875
20.1416015625
18.310546875
15.56396484375
9.1552734375
15.56396484375
18.310546875
21.97265625
18.310546875
18.310546875
14.6484375
8.23974609375
18.310546875
18.310546875
17.39501953125
21.05712890625
10.986328125
12.8173828125
16.4794921875
15.56396484375
11.90185546875
14.6484375
18.310546875
16.4794921875
12.8173828125
18.310546875
17.39501953125
10.986328125
10.07080078125
10.07080078125
10.986328125
8.23974609375
8.23974609375
7.32421875
5.4931640625
6.40869140625
14.6484375
6.40869140625
-1.8310546875
5.4931640625
7.32421875
5.4931640625
-0.91552734375
-5.4931640625
-8.23974609375
-3.662109375
-6.40869140625
-7.32421875
-6.40869140625
-10.07080078125
-7.32421875
-10.986328125
-13.73291015625
-12.8173828125
-10.986328125
-10.986328125
-10.986328125
-14.6484375
-15.56396484375
-10.986328125
-6.40869140625
-15.56396484375
-14.6484375
-10.986328125
-9.1552734375
-12.8173828125
-17.39501953125
-18.310546875
-18.310546875
-17.39501953125
-21.97265625
-21.05712890625
-18.310546875
-15.56396484375
-21.97265625
-21.97265625
-20.1416015625
-23.8037109375
-25.634765625
-24.71923828125
-24.71923828125
-21.97265625
-21.97265625
-24.71923828125
-18.310546875
-21.05712890625
-21.97265625
-22.88818359375
-28.38134765625
-31.1279296875
-27.4658203125
-31.1279296875
-30.21240234375
-28.38134765625
-26.55029296875
-23.8037109375
-25.634765625
-29.296875
-29.296875
-30.21240234375
-32.958984375
-31.1279296875
-29.296875
-30.21240234375
-29.296875
-32.958984375
-32.04345703125
-23.8037109375
-21.05712890625
-32.04345703125
-35.70556640625
-32.958984375
-26.55029296875
-21.97265625
-33.87451171875
-35.70556640625
-30.21240234375
-31.1279296875
-30.21240234375
-36.62109375
-38.4521484375
-31.1279296875
-34.7900390625
-33.87451171875
-32.04345703125
-32.04345703125
-31.1279296875
-26.55029296875
-28.38134765625
-27.4658203125
-22.88818359375
-17.39501953125
-2.74658203125
14.6484375
13.73291015625
12.8173828125
15.56396484375
4.57763671875
-4.57763671875
14.6484375
21.97265625
32.04345703125
45.7763671875
57.67822265625
52.18505859375
51.26953125
48.52294921875
38.4521484375
34.7900390625
30.21240234375
33.87451171875
40.283203125
38.4521484375
33.87451171875
32.04345703125
23.8037109375
5.4931640625
0
-2.74658203125
-6.40869140625
-12.8173828125
-13.73291015625
-28.38134765625
-37.53662109375
-43.02978515625
-46.69189453125
-54.01611328125
-50.35400390625
-47.607421875
-51.26953125
-50.35400390625
-54.931640625
-52.18505859375
-47.607421875
-52.18505859375
-56.7626953125
-53.1005859375
-53.1005859375
-54.01611328125
-51.26953125
-54.931640625
-52.18505859375
-50.35400390625
-50.35400390625
-51.26953125
-54.931640625
-52.18505859375
-52.18505859375
-49.4384765625
-52.18505859375
-48.52294921875
-45.7763671875
-48.52294921875
-54.01611328125
-50.35400390625
-49.4384765625
-49.4384765625
-45.7763671875
-63.17138671875
-72.32666015625
-86.0595703125
-98.876953125
-98.876953125
-84.228515625
-58.59375
-21.05712890625
34.7900390625
135.498046875
245.361328125
347.900390625
485.2294921875
612.48779296875
705.87158203125
812.07275390625
945.73974609375
1082.1533203125
1175.537109375
1192.93212890625
1159.0576171875
996.09375
681.15234375
360.7177734375
118.10302734375
-38.4521484375
-54.931640625
-33.87451171875
-5.4931640625
-1.8310546875
21.05712890625
51.26953125
65.00244140625
55.84716796875
48.52294921875
36.62109375
31.1279296875
24.71923828125
20.1416015625
9.1552734375
5.4931640625
5.4931640625
0.91552734375
-2.74658203125
2.74658203125
-1.8310546875
-8.23974609375
-3.662109375
0
-8.23974609375
-9.1552734375
-11.90185546875
-10.07080078125
-11.90185546875
-6.40869140625
-7.32421875
-5.4931640625
-4.57763671875
-3.662109375
-4.57763671875
-8.23974609375
-7.32421875
-1.8310546875
-1.8310546875
-1.8310546875
-8.23974609375
-5.4931640625
-5.4931640625
-4.57763671875
-1.8310546875
-1.8310546875
0
4.57763671875
0.91552734375
2.74658203125
2.74658203125
8.23974609375
6.40869140625
3.662109375
0
4.57763671875
5.4931640625
7.32421875
9.1552734375
9.1552734375
10.07080078125
10.986328125
12.8173828125
13.73291015625
10.07080078125
16.4794921875
20.1416015625
15.56396484375
14.6484375
15.56396484375
16.4794921875
22.88818359375
24.71923828125
23.8037109375
24.71923828125
25.634765625
28.38134765625
30.21240234375
33.87451171875
37.53662109375
35.70556640625
32.958984375
32.958984375
39.36767578125
38.4521484375
41.19873046875
43.02978515625
49.4384765625
54.931640625
53.1005859375
51.26953125
48.52294921875
55.84716796875
59.50927734375
62.255859375
73.2421875
61.34033203125
65.00244140625
62.255859375
66.83349609375
63.17138671875
65.00244140625
72.32666015625
71.4111328125
71.4111328125
71.4111328125
75.0732421875
76.904296875
73.2421875
76.904296875
83.31298828125
83.31298828125
85.14404296875
81.48193359375
83.31298828125
87.890625
89.7216796875
89.7216796875
88.80615234375
87.890625
89.7216796875
91.552734375
86.97509765625
89.7216796875
88.80615234375
87.890625
89.7216796875
86.97509765625
85.14404296875
80.56640625
80.56640625
80.56640625
77.81982421875
66.83349609375
63.17138671875
68.66455078125
69.580078125
58.59375
58.59375
44.86083984375
37.53662109375
32.04345703125
27.4658203125
27.4658203125
27.4658203125
31.1279296875
32.958984375
19.22607421875
9.1552734375
12.8173828125
13.73291015625
14.6484375
10.986328125
10.07080078125
13.73291015625
12.8173828125
9.1552734375
11.90185546875
8.23974609375
10.07080078125
8.23974609375
9.1552734375
9.1552734375
8.23974609375
1.8310546875
0
2.74658203125
0.91552734375
5.4931640625
3.662109375
5.4931640625
3.662109375
3.662109375
1.8310546875
0.91552734375
0.91552734375
-1.8310546875
-0.91552734375
-2.74658203125
3.662109375
3.662109375
5.4931640625
4.57763671875
-2.74658203125
9.1552734375
15.56396484375
9.1552734375
4.57763671875
9.1552734375
9.1552734375
10.07080078125
9.1552734375
10.986328125
10.986328125
11.90185546875
8.23974609375
10.07080078125
8.23974609375
9.1552734375
1.8310546875
8.23974609375
10.07080078125
7.32421875
8.23974609375
7.32421875
12.8173828125
14.6484375
8.23974609375
0
10.986328125
13.73291015625
11.90185546875
8.23974609375
10.986328125
8.23974609375
6.40869140625
5.4931640625
10.07080078125
10.986328125
2.74658203125
0.91552734375
5.4931640625
6.40869140625
0.91552734375
5.4931640625
0.91552734375
-1.8310546875
-1.8310546875
-3.662109375
0
7.32421875
0
0.91552734375
-2.74658203125
-2.74658203125
-0.91552734375
-4.57763671875
-6.40869140625
-2.74658203125
-6.40869140625
-2.74658203125
-8.23974609375
-10.986328125
-10.986328125
-14.6484375
-12.8173828125
-10.07080078125
-19.22607421875
-15.56396484375
-19.22607421875
-21.97265625
-21.97265625
-16.4794921875
-20.1416015625
-19.22607421875
-21.97265625
-29.296875
-24.71923828125
-24.71923828125
-24.71923828125
-19.22607421875
-26.55029296875
-35.70556640625
-23.8037109375
-21.97265625
-26.55029296875
-28.38134765625
-19.22607421875
-26.55029296875
-23.8037109375
-26.55029296875
-31.1279296875
-32.958984375
-30.21240234375
-31.1279296875
-32.958984375
-30.21240234375
-27.4658203125
-29.296875
-32.04345703125
-32.958984375
-34.7900390625
-32.04345703125
-32.04345703125
-33.87451171875
-35.70556640625
-30.21240234375
-32.958984375
-29.296875
-30.21240234375
-33.87451171875
-34.7900390625
-32.04345703125
-36.62109375
-36.62109375
-35.70556640625
-32.04345703125
-35.70556640625
-35.70556640625
-36.62109375
-40.283203125
-32.958984375
-30.21240234375
-31.1279296875
-33.87451171875
-34.7900390625
-35.70556640625
-37.53662109375
-32.958984375
-34.7900390625
-38.4521484375
-34.7900390625
-34.7900390625
-35.70556640625
-33.87451171875
-32.958984375
-39.36767578125
-41.19873046875
-36.62109375
-41.19873046875
-40.283203125
-35.70556640625
-32.958984375
-23.8037109375
-20.1416015625
-3.662109375
35.70556640625
53.1005859375
60.4248046875
54.931640625
55.84716796875
56.7626953125
60.4248046875
77.81982421875
86.0595703125
97.0458984375
105.28564453125
109.86328125
108.94775390625
108.0322265625
104.3701171875
89.7216796875
86.97509765625
90.63720703125
97.0458984375
99.79248046875
92.46826171875
86.97509765625
84.228515625
71.4111328125
60.4248046875
57.67822265625
55.84716796875
49.4384765625
40.283203125
30.21240234375
21.05712890625
19.22607421875
15.56396484375
10.07080078125
12.8173828125
10.07080078125
7.32421875
7.32421875
9.1552734375
9.1552734375
4.57763671875
7.32421875
6.40869140625
6.40869140625
7.32421875
4.57763671875
-1.8310546875
2.74658203125
0.91552734375
1.8310546875
4.57763671875
2.74658203125
3.662109375
1.8310546875
1.8310546875
1.8310546875
1.8310546875
1.8310546875
3.662109375
0.91552734375
6.40869140625
10.07080078125
3.662109375
3.662109375
1.8310546875
-1.8310546875
-4.57763671875
-10.986328125
-29.296875
-44.86083984375
-48.52294921875
-42.1142578125
-20.1416015625
9.1552734375
52.18505859375
122.6806640625
229.79736328125
330.50537109375
460.51025390625
598.7548828125
709.53369140625
794.677734375
908.203125
1057.43408203125
1186.5234375
1243.2861328125
1244.20166015625
1158.14208984375
920.10498046875
575.86669921875
297.54638671875
61.34033203125
-10.986328125
-4.57763671875
21.05712890625
34.7900390625
46.69189453125
74.15771484375
97.96142578125
103.45458984375
96.13037109375
89.7216796875
72.32666015625
67.7490234375
63.17138671875
51.26953125
43.9453125
36.62109375
38.4521484375
32.958984375
32.04345703125
32.04345703125
28.38134765625
26.55029296875
30.21240234375
27.4658203125
30.21240234375
28.38134765625
26.55029296875
26.55029296875
26.55029296875
24.71923828125
25.634765625
24.71923828125
23.8037109375
24.71923828125
23.8037109375
25.634765625
27.4658203125
28.38134765625
26.55029296875
27.4658203125
28.38134765625
30.21240234375
29.296875
29.296875
32.04345703125
35.70556640625
40.283203125
35.70556640625
32.958984375
34.7900390625
32.04345703125
36.62109375
37.53662109375
38.4521484375
40.283203125
41.19873046875
41.19873046875
40.283203125
41.19873046875
48.52294921875
51.26953125
48.52294921875
49.4384765625
46.69189453125
48.52294921875
45.7763671875
49.4384765625
54.931640625
51.26953125
50.35400390625
54.931640625
54.01611328125
60.4248046875
62.255859375
60.4248046875
65.91796875
60.4248046875
65.91796875
72.32666015625
70.49560546875
64.0869140625
65.91796875
75.0732421875
69.580078125
75.0732421875
75.0732421875
75.98876953125
78.7353515625
81.48193359375
86.97509765625
82.3974609375
86.0595703125
92.46826171875
90.63720703125
87.890625
93.3837890625
97.96142578125
101.62353515625
101.62353515625
101.62353515625
100.7080078125
104.3701171875
107.11669921875
107.11669921875
108.0322265625
109.86328125
108.94775390625
111.6943359375
109.86328125
115.3564453125
115.3564453125
117.1875
115.3564453125
119.93408203125
122.6806640625
121.76513671875
120.849609375
121.76513671875
130.0048828125
125.42724609375
119.93408203125
118.10302734375
121.76513671875
120.849609375
119.93408203125
128.173828125
122.6806640625
114.44091796875
118.10302734375
112.60986328125
102.5390625
98.876953125
98.876953125
92.46826171875
94.29931640625
83.31298828125
81.48193359375
75.0732421875
73.2421875
68.66455078125
65.91796875
62.255859375
57.67822265625
50.35400390625
46.69189453125
45.7763671875
43.02978515625
36.62109375
32.04345703125
32.04345703125
34.7900390625
26.55029296875
25.634765625
21.05712890625
21.05712890625
19.22607421875
18.310546875
10.07080078125
6.40869140625
13.73291015625
14.6484375
10.07080078125
10.07080078125
5.4931640625
2.74658203125
0
-1.8310546875
5.4931640625
7.32421875
8.23974609375
8.23974609375
5.4931640625
2.74658203125
9.1552734375
9.1552734375
7.32421875
2.74658203125
9.1552734375
10.07080078125
8.23974609375
11.90185546875
10.986328125
9.1552734375
7.32421875
3.662109375
9.1552734375
11.90185546875
10.986328125
10.986328125
17.39501953125
15.56396484375
10.986328125
16.4794921875
18.310546875
18.310546875
15.56396484375
12.8173828125
15.56396484375
16.4794921875
18.310546875
18.310546875
18.310546875
20.1416015625
18.310546875
13.73291015625
17.39501953125
18.310546875
17.39501953125
16.4794921875
20.1416015625
21.05712890625
21.97265625
12.8173828125
12.8173828125
18.310546875
18.310546875
18.310546875
19.22607421875
13.73291015625
13.73291015625
14.6484375
7.32421875
12.8173828125
15.56396484375
8.23974609375
2.74658203125
2.74658203125
6.40869140625
10.07080078125
6.40869140625
-7.32421875
4.57763671875
7.32421875
2.74658203125
0.91552734375
-3.662109375
-8.23974609375
-0.91552734375
5.4931640625
-0.91552734375
-10.07080078125
-9.1552734375
-4.57763671875
-3.662109375
-4.57763671875
-3.662109375
-6.40869140625
-9.1552734375
-4.57763671875
-4.57763671875
-7.32421875
-10.07080078125
-13.73291015625
-9.1552734375
-8.23974609375
-5.4931640625
-15.56396484375
-13.73291015625
-15.56396484375
-18.310546875
-14.6484375
-13.73291015625
-10.986328125
-16.4794921875
-19.22607421875
-13.73291015625
-17.39501953125
-18.310546875
-16.4794921875
-13.73291015625
-17.39501953125
-20.1416015625
-21.05712890625
-16.4794921875
-20.1416015625
-28.38134765625
-21.05712890625
-28.38134765625
-24.71923828125
-24.71923828125
-18.310546875
-21.05712890625
-23.8037109375
-24.71923828125
-30.21240234375
-26.55029296875
-31.1279296875
-31.1279296875
-30.21240234375
-28.38134765625
-22.88818359375
-21.05712890625
-24.71923828125
-30.21240234375
-23.8037109375
-25.634765625
-25.634765625
-29.296875
-36.62109375
-36.62109375
-28.38134765625
-32.04345703125
-30.21240234375
-27.4658203125
-21.97265625
-22.88818359375
-32.04345703125
-30.21240234375
-30.21240234375
-31.1279296875
-39.36767578125
-30.21240234375
-23.8037109375
-24.71923828125
-20.1416015625
-28.38134765625
-24.71923828125
-14.6484375
-18.310546875
1.8310546875
13.73291015625
16.4794921875
4.57763671875
3.662109375
-3.662109375
3.662109375
20.1416015625
35.70556640625
41.19873046875
51.26953125
49.4384765625
48.52294921875
49.4384765625
48.52294921875
37.53662109375
34.7900390625
38.4521484375
37.53662109375
36.62109375
25.634765625
27.4658203125
14.6484375
9.1552734375
5.4931640625
-3.662109375
-10.07080078125
-13.73291015625
-22.88818359375
-26.55029296875
-32.04345703125
-40.283203125
-46.69189453125
-50.35400390625
-48.52294921875
-51.26953125
-50.35400390625
-50.35400390625
-51.26953125
-48.52294921875
-50.35400390625
-50.35400390625
-53.1005859375
-47.607421875
-47.607421875
-47.607421875
-46.69189453125
-45.7763671875
-46.69189453125
-50.35400390625
-50.35400390625
-63.17138671875
-64.0869140625
-63.17138671875
-56.7626953125
-54.01611328125
-52.18505859375
-45.7763671875
-47.607421875
-52.18505859375
-53.1005859375
-51.26953125
-53.1005859375
-52.18505859375
-52.18505859375
-59.50927734375
-66.83349609375
-75.0732421875
-86.0595703125
-94.29931640625
-84.228515625
-75.0732421875
-45.7763671875
-6.40869140625
56.7626953125
158.38623046875
276.4892578125
391.845703125
538.330078125
671.08154296875
761.71875
853.271484375
982.36083984375
1129.7607421875
1211.24267578125
1218.56689453125
1153.564453125
961.3037109375
630.79833984375
316.7724609375
65.91796875
-71.4111328125
-63.17138671875
-31.1279296875
-1.8310546875
-1.8310546875
8.23974609375
32.04345703125
53.1005859375
56.7626953125
46.69189453125
44.86083984375
28.38134765625
20.1416015625
15.56396484375
12.8173828125
11.90185546875
5.4931640625
0
-5.4931640625
-9.1552734375
-10.07080078125
0
-8.23974609375
-6.40869140625
-8.23974609375
-11.90185546875
-4.57763671875
-5.4931640625
-11.90185546875
-7.32421875
-10.986328125
-10.986328125
-4.57763671875
-11.90185546875
-5.4931640625
-10.07080078125
-10.986328125
-3.662109375
-1.8310546875
-6.40869140625
-4.57763671875
-1.8310546875
5.4931640625
4.57763671875
0.91552734375
8.23974609375
1.8310546875
-2.74658203125
0
1.8310546875
-3.662109375
10.986328125
9.1552734375
3.662109375
10.986328125
10.07080078125
9.1552734375
5.4931640625
11.90185546875
12.8173828125
4.57763671875
18.310546875
15.56396484375
14.6484375
16.4794921875
21.05712890625
16.4794921875
27.4658203125
25.634765625
28.38134765625
30.21240234375
30.21240234375
26.55029296875
34.7900390625
42.1142578125
44.86083984375
35.70556640625
33.87451171875
34.7900390625
43.9453125
55.84716796875
46.69189453125
42.1142578125
45.7763671875
42.1142578125
49.4384765625
48.52294921875
52.18505859375
68.66455078125
56.7626953125
51.26953125
58.59375
54.931640625
64.0869140625
65.91796875
64.0869140625
69.580078125
68.66455078125
70.49560546875
70.49560546875
72.32666015625
75.0732421875
75.0732421875
76.904296875
76.904296875
84.228515625
80.56640625
80.56640625
79.65087890625
80.56640625
93.3837890625
94.29931640625
99.79248046875
89.7216796875
84.228515625
92.46826171875
97.96142578125
96.13037109375
100.7080078125
95.21484375
98.876953125
106.201171875
107.11669921875
103.45458984375
98.876953125
97.96142578125
95.21484375
95.21484375
94.29931640625
86.97509765625
79.65087890625
79.65087890625
75.0732421875
70.49560546875
69.580078125
66.83349609375
61.34033203125
58.59375
54.931640625
52.18505859375
52.18505859375
43.9453125
43.9453125
32.04345703125
32.04345703125
25.634765625
23.8037109375
19.22607421875
21.05712890625
15.56396484375
12.8173828125
18.310546875
15.56396484375
11.90185546875
10.07080078125
5.4931640625
2.74658203125
6.40869140625
7.32421875
3.662109375
-0.91552734375
1.8310546875
-0.91552734375
-0.91552734375
0.91552734375
-1.8310546875
-6.40869140625
-7.32421875
-3.662109375
0.91552734375
1.8310546875
-0.91552734375
1.8310546875
5.4931640625
-5.4931640625
-1.8310546875
-4.57763671875
-1.8310546875
-1.8310546875
1.8310546875
11.90185546875
10.986328125
9.1552734375
7.32421875
11.90185546875
8.23974609375
12.8173828125
8.23974609375
5.4931640625
4.57763671875
10.986328125
10.07080078125
10.986328125
11.90185546875
12.8173828125
18.310546875
10.07080078125
15.56396484375
17.39501953125
20.1416015625
19.22607421875
18.310546875
16.4794921875
15.56396484375
18.310546875
13.73291015625
18.310546875
18.310546875
20.1416015625
21.05712890625
22.88818359375
14.6484375
16.4794921875
15.56396484375
18.310546875
15.56396484375
18.310546875
15.56396484375
24.71923828125
21.05712890625
21.05712890625
14.6484375
12.8173828125
5.4931640625
10.986328125
16.4794921875
10.986328125
17.39501953125
20.1416015625
9.1552734375
10.07080078125
9.1552734375
8.23974609375
7.32421875
6.40869140625
7.32421875
3.662109375
3.662109375
5.4931640625
0.91552734375
-2.74658203125
5.4931640625
0.91552734375
-0.91552734375
4.57763671875
-0.91552734375
-7.32421875
-0.91552734375
-0.91552734375
-10.07080078125
-4.57763671875
-3.662109375
-5.4931640625
-4.57763671875
-9.1552734375
-4.57763671875
-10.986328125
-12.8173828125
-9.1552734375
-10.986328125
-14.6484375
-15.56396484375
-13.73291015625
-10.986328125
-15.56396484375
-14.6484375
-7.32421875
-12.8173828125
-11.90185546875
-12.8173828125
-8.23974609375
-12.8173828125
-10.986328125
-17.39501953125
-14.6484375
-11.90185546875
-21.97265625
-17.39501953125
-13.73291015625
-10.986328125
-7.32421875
-14.6484375
-18.310546875
-21.05712890625
-19.22607421875
-10.986328125
-19.22607421875
-23.8037109375
-15.56396484375
-17.39501953125
-18.310546875
-21.97265625
-17.39501953125
-14.6484375
-25.634765625
-23.8037109375
-19.22607421875
-12.8173828125
-18.310546875
-20.1416015625
-28.38134765625
-24.71923828125
-16.4794921875
-21.05712890625
-15.56396484375
-18.310546875
-17.39501953125
-21.97265625
-26.55029296875
-18.310546875
-18.310546875
-20.1416015625
-21.97265625
-24.71923828125
-15.56396484375
-14.6484375
-10.07080078125
0.91552734375
11.90185546875
17.39501953125
11.90185546875
7.32421875
7.32421875
23.8037109375
25.634765625
37.53662109375
51.26953125
61.34033203125
53.1005859375
51.26953125
54.931640625
49.4384765625
44.86083984375
37.53662109375
40.283203125
40.283203125
46.69189453125
44.86083984375
36.62109375
29.296875
13.73291015625
3.662109375
-2.74658203125
1.8310546875
-2.74658203125
-10.07080078125
-21.97265625
-26.55029296875
-30.21240234375
-37.53662109375
-39.36767578125
-43.02978515625
-37.53662109375
-37.53662109375
-37.53662109375
-39.36767578125
-33.87451171875
-37.53662109375
-30.21240234375
-28.38134765625
-35.70556640625
-30.21240234375
-27.4658203125
-36.62109375
-49.4384765625
-44.86083984375
-40.283203125
-46.69189453125
-40.283203125
-41.19873046875
-43.02978515625
-43.9453125
-41.19873046875
-41.19873046875
-39.36767578125
-34.7900390625
-34.7900390625
-41.19873046875
-37.53662109375
-32.958984375
-39.36767578125
-48.52294921875
-56.7626953125
-61.34033203125
-65.91796875
-79.65087890625
-88.80615234375
-76.904296875
-54.931640625
-25.634765625
13.73291015625
83.31298828125
197.75390625
320.4345703125
444.9462890625
587.7685546875
716.85791015625
810.24169921875
903.62548828125
1046.44775390625
1167.29736328125
1217.6513671875
1203.91845703125
1127.01416015625
897.216796875
543.8232421875
232.5439453125
1.8310546875
-91.552734375
-57.67822265625
-19.22607421875
1.8310546875
1.8310546875
8.23974609375
32.04345703125
56.7626953125
59.50927734375
53.1005859375
43.02978515625
31.1279296875
21.05712890625
18.310546875
14.6484375
9.1552734375
8.23974609375
7.32421875
4.57763671875
3.662109375
-4.57763671875
-5.4931640625
-6.40869140625
-2.74658203125
0
-2.74658203125
2.74658203125
-5.4931640625
-3.662109375
-5.4931640625
-1.8310546875
1.8310546875
1.8310546875
0.91552734375
-0.91552734375
-6.40869140625
-1.8310546875
2.74658203125
5.4931640625
2.74658203125
2.74658203125
0.91552734375
-0.91552734375
0
5.4931640625
4.57763671875
10.07080078125
11.90185546875
8.23974609375
3.662109375
11.90185546875
16.4794921875
5.4931640625
10.986328125
10.07080078125
10.986328125
16.4794921875
20.1416015625
18.310546875
19.22607421875
22.88818359375
12.8173828125
20.1416015625
23.8037109375
23.8037109375
27.4658203125
27.4658203125
20.1416015625
27.4658203125
35.70556640625
36.62109375
36.62109375
33.87451171875
31.1279296875
33.87451171875
34.7900390625
42.1142578125
35.70556640625
38.4521484375
38.4521484375
38.4521484375
38.4521484375
42.1142578125
40.283203125
46.69189453125
50.35400390625
53.1005859375
54.931640625
60.4248046875
58.59375
58.59375
59.50927734375
63.17138671875
68.66455078125
67.7490234375
74.15771484375
75.0732421875
66.83349609375
71.4111328125
68.66455078125
72.32666015625
75.0732421875
67.7490234375
73.2421875
79.65087890625
77.81982421875
83.31298828125
83.31298828125
80.56640625
85.14404296875
85.14404296875
86.97509765625
90.63720703125
89.7216796875
89.7216796875
89.7216796875
89.7216796875
90.63720703125
89.7216796875
90.63720703125
89.7216796875
90.63720703125
91.552734375
91.552734375
90.63720703125
93.3837890625
92.46826171875
86.97509765625
85.14404296875
79.65087890625
90.63720703125
81.48193359375
65.91796875
60.4248046875
57.67822265625
56.7626953125
55.84716796875
56.7626953125
51.26953125
47.607421875
43.9453125
39.36767578125
34.7900390625
28.38134765625
25.634765625
21.97265625
19.22607421875
14.6484375
13.73291015625
14.6484375
5.4931640625
6.40869140625
5.4931640625
-0.91552734375
-4.57763671875
-4.57763671875
-2.74658203125
-6.40869140625
-9.1552734375
-4.57763671875
-5.4931640625
-15.56396484375
-13.73291015625
-11.90185546875
-11.90185546875
-17.39501953125
-9.1552734375
-6.40869140625
-7.32421875
-6.40869140625
0
-1.8310546875
-7.32421875
-10.07080078125
-10.986328125
-11.90185546875
-10.986328125
-8.23974609375
-6.40869140625
-5.4931640625
-4.57763671875
-2.74658203125
0.91552734375
0.91552734375
1.8310546875
-1.8310546875
-10.07080078125
-2.74658203125
0
2.74658203125
-0.91552734375
-0.91552734375
6.40869140625
0.91552734375
1.8310546875
4.57763671875
11.90185546875
3.662109375
0
5.4931640625
4.57763671875
10.07080078125
6.40869140625
0.91552734375
4.57763671875
4.57763671875
4.57763671875
0.91552734375
3.662109375
1.8310546875
8.23974609375
3.662109375
1.8310546875
1.8310546875
5.4931640625
0.91552734375
-3.662109375
0
2.74658203125
2.74658203125
-0.91552734375
3.662109375
-0.91552734375
-3.662109375
-6.40869140625
-2.74658203125
-0.91552734375
-10.986328125
-9.1552734375
0.91552734375
-9.1552734375
-13.73291015625
-11.90185546875
-14.6484375
-16.4794921875
-11.90185546875
-10.986328125
-15.56396484375
-17.39501953125
-18.310546875
-17.39501953125
-19.22607421875
-19.22607421875
-16.4794921875
-25.634765625
-27.4658203125
-24.71923828125
-27.4658203125
-24.71923828125
-22.88818359375
-25.634765625
-26.55029296875
-30.21240234375
-29.296875
-27.4658203125
-28.38134765625
-31.1279296875
-29.296875
-31.1279296875
-32.958984375
-30.21240234375
-35.70556640625
-31.1279296875
-38.4521484375
-36.62109375
-38.4521484375
-32.958984375
-36.62109375
-36.62109375
-33.87451171875
-33.87451171875
-36.62109375
-37.53662109375
-37.53662109375
-34.7900390625
-38.4521484375
-41.19873046875
-36.62109375
-39.36767578125
-36.62109375
-37.53662109375
-44.86083984375
-42.1142578125
-40.283203125
-35.70556640625
-43.02978515625
-42.1142578125
-40.283203125
-46.69189453125
-50.35400390625
-50.35400390625
-48.52294921875
-48.52294921875
-43.02978515625
-43.02978515625
-38.4521484375
-45.7763671875
-43.9453125
-45.7763671875
-43.9453125
-46.69189453125
-48.52294921875
-44.86083984375
-46.69189453125
-44.86083984375
-47.607421875
-47.607421875
-49.4384765625
-46.69189453125
-44.86083984375
-49.4384765625
-48.52294921875
-48.52294921875
-46.69189453125
-45.7763671875
-47.607421875
-42.1142578125
-47.607421875
-46.69189453125
-43.9453125
-49.4384765625
-51.26953125
-46.69189453125
-43.9453125
-44.86083984375
-50.35400390625
-51.26953125
-45.7763671875
-34.7900390625
-24.71923828125
-8.23974609375
-4.57763671875
-3.662109375
-2.74658203125
-8.23974609375
-6.40869140625
3.662109375
9.1552734375
10.986328125
22.88818359375
30.21240234375
31.1279296875
32.958984375
32.958984375
22.88818359375
12.8173828125
14.6484375
15.56396484375
27.4658203125
29.296875
10.07080078125
8.23974609375
5.4931640625
-7.32421875
-17.39501953125
-20.1416015625
-24.71923828125
-30.21240234375
-32.958984375
-38.4521484375
-44.86083984375
-57.67822265625
-63.17138671875
-69.580078125
-68.66455078125
-65.00244140625
-68.66455078125
-69.580078125
-69.580078125
-67.7490234375
-64.0869140625
-75.0732421875
-75.98876953125
-66.83349609375
-68.66455078125
-68.66455078125
-73.2421875
-74.15771484375
-75.0732421875
-71.4111328125
-73.2421875
-72.32666015625
-77.81982421875
-76.904296875
-66.83349609375
-72.32666015625
-71.4111328125
-75.0732421875
-70.49560546875
-70.49560546875
-66.83349609375
-66.83349609375
-67.7490234375
-67.7490234375
-72.32666015625
-75.98876953125
-80.56640625
-91.552734375
-101.62353515625
-111.6943359375
-110.77880859375
-94.29931640625
-67.7490234375
-36.62109375
18.310546875
113.525390625
218.81103515625
326.84326171875
453.18603515625
588.68408203125
684.814453125
777.28271484375
906.3720703125
1041.8701171875
1139.83154296875
1158.14208984375
1127.9296875
985.107421875
673.828125
352.47802734375
107.11669921875
-59.50927734375
-81.48193359375
-56.7626953125
-29.296875
-31.1279296875
-10.986328125
18.310546875
27.4658203125
28.38134765625
19.22607421875
10.986328125
3.662109375
-0.91552734375
-5.4931640625
-12.8173828125
-21.05712890625
-23.8037109375
-27.4658203125
-30.21240234375
-32.958984375
-30.21240234375
-30.21240234375
-33.87451171875
-31.1279296875
-32.958984375
-33.87451171875
-30.21240234375
-29.296875
-30.21240234375
-31.1279296875
-32.04345703125
-30.21240234375
-36.62109375
-29.296875
-25.634765625
-31.1279296875
-32.958984375
-30.21240234375
-32.04345703125
-27.4658203125
-27.4658203125
-23.8037109375
-21.97265625
-30.21240234375
-32.958984375
-21.05712890625
-25.634765625
-25.634765625
-20.1416015625
-22.88818359375
-24.71923828125
-20.1416015625
-21.97265625
-21.05712890625
-20.1416015625
-16.4794921875
-14.6484375
-12.8173828125
-11.90185546875
-7.32421875
-5.4931640625
-4.57763671875
-15.56396484375
-16.4794921875
-8.23974609375
-8.23974609375
-7.32421875
-4.57763671875
-3.662109375
-1.8310546875
-2.74658203125
-1.8310546875
-3.662109375
2.74658203125
3.662109375
7.32421875
7.32421875
7.32421875
11.90185546875
11.90185546875
14.6484375
14.6484375
16.4794921875
18.310546875
18.310546875
21.05712890625
27.4658203125
29.296875
26.55029296875
29.296875
31.1279296875
37.53662109375
38.4521484375
36.62109375
37.53662109375
43.9453125
45.7763671875
47.607421875
49.4384765625
48.52294921875
52.18505859375
54.01611328125
55.84716796875
54.931640625
56.7626953125
63.17138671875
61.34033203125
63.17138671875
64.0869140625
72.32666015625
68.66455078125
65.91796875
69.580078125
75.98876953125
76.904296875
75.98876953125
79.65087890625
83.31298828125
81.48193359375
87.890625
84.228515625
87.890625
88.80615234375
79.65087890625
78.7353515625
79.65087890625
74.15771484375
75.98876953125
68.66455078125
66.83349609375
66.83349609375
60.4248046875
55.84716796875
49.4384765625
49.4384765625
43.9453125
39.36767578125
32.04345703125
27.4658203125
22.88818359375
17.39501953125
14.6484375
10.986328125
6.40869140625
-1.8310546875
-2.74658203125
-6.40869140625
-9.1552734375
-12.8173828125
-10.986328125
-11.90185546875
-21.97265625
-23.8037109375
-29.296875
-31.1279296875
-31.1279296875
-31.1279296875
-34.7900390625
-39.36767578125
-40.283203125
-34.7900390625
-38.4521484375
-41.19873046875
-41.19873046875
-40.283203125
-45.7763671875
-47.607421875
-43.9453125
-33.87451171875
-39.36767578125
-35.70556640625
-51.26953125
-40.283203125
-43.9453125
-44.86083984375
-48.52294921875
-49.4384765625
-43.02978515625
-36.62109375
-36.62109375
-39.36767578125
-34.7900390625
-42.1142578125
-33.87451171875
-27.4658203125
-32.958984375
-32.958984375
-35.70556640625
-28.38134765625
-29.296875
-29.296875
-32.04345703125
-32.958984375
-30.21240234375
-25.634765625
-24.71923828125
-33.87451171875
-25.634765625
-25.634765625
-25.634765625
-22.88818359375
-23.8037109375
-25.634765625
-29.296875
-26.55029296875
-24.71923828125
-23.8037109375
-21.97265625
-19.22607421875
-21.97265625
-25.634765625
-29.296875
-23.8037109375
-14.6484375
-20.1416015625
-25.634765625
-26.55029296875
-25.634765625
-15.56396484375
-20.1416015625
-23.8037109375
-25.634765625
-19.22607421875
-18.310546875
-23.8037109375
-22.88818359375
-17.39501953125
-19.22607421875
-22.88818359375
-21.05712890625
-26.55029296875
-29.296875
-24.71923828125
-28.38134765625
-26.55029296875
-29.296875
-27.4658203125
-21.05712890625
-14.6484375
-14.6484375
-18.310546875
-17.39501953125
-22.88818359375
-21.05712890625
-17.39501953125
-19.22607421875
-24.71923828125
-26.55029296875
-32.04345703125
-27.4658203125
-28.38134765625
-27.4658203125
-28.38134765625
-29.296875
-27.4658203125
-31.1279296875
-31.1279296875
-27.4658203125
-34.7900390625
-29.296875
-34.7900390625
-37.53662109375
-34.7900390625
-38.4521484375
-37.53662109375
-38.4521484375
-37.53662109375
-39.36767578125
-33.87451171875
-39.36767578125
-37.53662109375
-40.283203125
-36.62109375
-38.4521484375
-43.9453125
-44.86083984375
-43.9453125
-46.69189453125
-43.02978515625
-41.19873046875
-37.53662109375
-43.02978515625
-43.02978515625
-39.36767578125
-42.1142578125
-45.7763671875
-47.607421875
-44.86083984375
-46.69189453125
-47.607421875
-39.36767578125
-38.4521484375
-41.19873046875
-47.607421875
-50.35400390625
-48.52294921875
-46.69189453125
-46.69189453125
-44.86083984375
-44.86083984375
-46.69189453125
-43.02978515625
-46.69189453125
-48.52294921875
-43.9453125
-41.19873046875
-46.69189453125
-43.9453125
-45.7763671875
-52.18505859375
-48.52294921875
-50.35400390625
-49.4384765625
-49.4384765625
-48.52294921875
-49.4384765625
-48.52294921875
-49.4384765625
-49.4384765625
-47.607421875
-50.35400390625
-47.607421875
-46.69189453125
-46.69189453125
-51.26953125
-49.4384765625
-45.7763671875
-50.35400390625
-47.607421875
-57.67822265625
-42.1142578125
-43.9453125
-44.86083984375
-43.02978515625
-51.26953125
-54.931640625
-52.18505859375
-55.84716796875
-53.1005859375
-39.36767578125
-36.62109375
-51.26953125
-50.35400390625
-41.19873046875
-32.958984375
-16.4794921875
-1.8310546875
8.23974609375
3.662109375
1.8310546875
2.74658203125
-6.40869140625
0.91552734375
14.6484375
23.8037109375
30.21240234375
43.9453125
47.607421875
43.02978515625
36.62109375
32.958984375
22.88818359375
21.05712890625
20.1416015625
26.55029296875
30.21240234375
22.88818359375
21.05712890625
17.39501953125
9.1552734375
2.74658203125
-0.91552734375
-12.8173828125
-11.90185546875
-12.8173828125
-21.97265625
-29.296875
-39.36767578125
-54.01611328125
-54.931640625
-54.01611328125
-54.931640625
-48.52294921875
-44.86083984375
-54.01611328125
-55.84716796875
-53.1005859375
-52.18505859375
-54.931640625
-53.1005859375
-55.84716796875
-56.7626953125
-54.01611328125
-56.7626953125
-55.84716796875
-52.18505859375
-54.931640625
-54.931640625
-54.931640625
-53.1005859375
-53.1005859375
-62.255859375
-53.1005859375
-51.26953125
-49.4384765625
-53.1005859375
-54.931640625
-50.35400390625
-48.52294921875
-52.18505859375
-50.35400390625
-49.4384765625
-57.67822265625
-64.0869140625
-72.32666015625
-84.228515625
-92.46826171875
-89.7216796875
-76.904296875
-54.01611328125
-21.97265625
32.04345703125
123.59619140625
231.62841796875
337.82958984375
466.9189453125
588.68408203125
686.6455078125
797.42431640625
910.0341796875
1046.44775390625
1153.564453125
1181.0302734375
1148.0712890625
1002.50244140625
687.56103515625
379.94384765625
141.90673828125
-26.55029296875
-54.01611328125
-39.36767578125
-18.310546875
-9.1552734375
16.4794921875
47.607421875
49.4384765625
50.35400390625
43.9453125
35.70556640625
33.87451171875
21.97265625
12.8173828125
8.23974609375
9.1552734375
7.32421875
-4.57763671875
-10.07080078125
-5.4931640625
-7.32421875
-6.40869140625
-9.1552734375
-11.90185546875
-10.07080078125
-13.73291015625
-8.23974609375
-5.4931640625
-2.74658203125
-2.74658203125
-7.32421875
-7.32421875
-2.74658203125
-3.662109375
-3.662109375
-5.4931640625
-8.23974609375
-7.32421875
-6.40869140625
-10.07080078125
-1.8310546875
2.74658203125
0.91552734375
3.662109375
2.74658203125
-1.8310546875
0
0
-0.91552734375
-2.74658203125
3.662109375
5.4931640625
0
-1.8310546875
6.40869140625
9.1552734375
8.23974609375
8.23974609375
9.1552734375
11.90185546875
13.73291015625
14.6484375
17.39501953125
15.56396484375
16.4794921875
18.310546875
19.22607421875
20.1416015625
22.88818359375
22.88818359375
21.05712890625
27.4658203125
31.1279296875
26.55029296875
25.634765625
27.4658203125
32.958984375
34.7900390625
35.70556640625
36.62109375
43.9453125
40.283203125
39.36767578125
50.35400390625
43.9453125
48.52294921875
45.7763671875
41.19873046875
47.607421875
52.18505859375
51.26953125
52.18505859375
62.255859375
63.17138671875
58.59375
62.255859375
60.4248046875
61.34033203125
64.0869140625
73.2421875
77.81982421875
79.65087890625
79.65087890625
78.7353515625
84.228515625
83.31298828125
85.14404296875
86.0595703125
91.552734375
95.21484375
94.29931640625
95.21484375
97.0458984375
94.29931640625
97.96142578125
101.62353515625
100.7080078125
105.28564453125
103.45458984375
107.11669921875
107.11669921875
109.86328125
107.11669921875
108.0322265625
108.94775390625
109.86328125
102.5390625
99.79248046875
102.5390625
100.7080078125
87.890625
87.890625
88.80615234375
79.65087890625
76.904296875
77.81982421875
65.91796875
66.83349609375
54.931640625
54.01611328125
51.26953125
45.7763671875
41.19873046875
33.87451171875
30.21240234375
21.05712890625
21.97265625
18.310546875
10.07080078125
8.23974609375
-0.91552734375
-7.32421875
-6.40869140625
-10.986328125
-10.07080078125
-7.32421875
-12.8173828125
-14.6484375
-14.6484375
-18.310546875
-17.39501953125
-24.71923828125
-24.71923828125
-20.1416015625
-21.97265625
-21.05712890625
-19.22607421875
-17.39501953125
-22.88818359375
-20.1416015625
-21.97265625
-22.88818359375
-23.8037109375
-22.88818359375
-18.310546875
-16.4794921875
-15.56396484375
-25.634765625
-26.55029296875
-25.634765625
-17.39501953125
-17.39501953125
-15.56396484375
-14.6484375
-20.1416015625
-19.22607421875
-14.6484375
-10.986328125
-19.22607421875
-17.39501953125
-5.4931640625
-6.40869140625
-7.32421875
-10.986328125
-11.90185546875
-8.23974609375
-5.4931640625
-8.23974609375
-8.23974609375
-10.986328125
-11.90185546875
-11.90185546875
-9.1552734375
-6.40869140625
-4.57763671875
-6.40869140625
-6.40869140625
-5.4931640625
-9.1552734375
-5.4931640625
-2.74658203125
-8.23974609375
-9.1552734375
-9.1552734375
-7.32421875
-6.40869140625
-5.4931640625
-5.4931640625
-1.8310546875
-1.8310546875
-0.91552734375
-5.4931640625
-2.74658203125
-6.40869140625
-2.74658203125
6.40869140625
1.8310546875
-4.57763671875
-4.57763671875
-4.57763671875
-3.662109375
-10.07080078125
-12.8173828125
-15.56396484375
-10.07080078125
-10.986328125
-8.23974609375
-21.05712890625
-15.56396484375
-15.56396484375
-19.22607421875
-14.6484375
-4.57763671875
-4.57763671875
-10.986328125
-15.56396484375
-21.97265625
-17.39501953125
-22.88818359375
-22.88818359375
-22.88818359375
-18.310546875
-25.634765625
-22.88818359375
-21.05712890625
-24.71923828125
-23.8037109375
-24.71923828125
-26.55029296875
-28.38134765625
-28.38134765625
-26.55029296875
-30.21240234375
-32.958984375
-32.04345703125
-30.21240234375
-32.04345703125
-27.4658203125
-26.55029296875
-25.634765625
-24.71923828125
-23.8037109375
-32.04345703125
-32.958984375
-31.1279296875
-28.38134765625
-32.04345703125
-27.4658203125
-31.1279296875
-30.21240234375
-29.296875
-35.70556640625
-39.36767578125
-39.36767578125
-34.7900390625
-30.21240234375
-31.1279296875
-32.04345703125
-36.62109375
-34.7900390625
-34.7900390625
-35.70556640625
-36.62109375
-35.70556640625
-32.958984375
-32.04345703125
-27.4658203125
-30.21240234375
-32.04345703125
-32.958984375
-35.70556640625
-32.04345703125
-35.70556640625
-35.70556640625
-35.70556640625
-30.21240234375
-34.7900390625
-33.87451171875
-44.86083984375
-43.9453125
-41.19873046875
-32.958984375
-34.7900390625
-38.4521484375
-38.4521484375
-37.53662109375
-36.62109375
-36.62109375
-32.04345703125
-32.04345703125
-37.53662109375
-36.62109375
-34.7900390625
-34.7900390625
-37.53662109375
-40.283203125
-39.36767578125
-36.62109375
-33.87451171875
-31.1279296875
-34.7900390625
-37.53662109375
-35.70556640625
-36.62109375
-39.36767578125
-41.19873046875
-41.19873046875
-40.283203125
-35.70556640625
-38.4521484375
-33.87451171875
-34.7900390625
-37.53662109375
-33.87451171875
-17.39501953125
-17.39501953125
-14.6484375
-7.32421875
0.91552734375
7.32421875
5.4931640625
-3.662109375
-2.74658203125
6.40869140625
25.634765625
29.296875
40.283203125
51.26953125
53.1005859375
44.86083984375
49.4384765625
47.607421875
33.87451171875
25.634765625
31.1279296875
33.87451171875
34.7900390625
31.1279296875
31.1279296875
27.4658203125
10.986328125
0.91552734375
-4.57763671875
-10.07080078125
-10.986328125
-18.310546875
-18.310546875
-18.310546875
-37.53662109375
-43.02978515625
-47.607421875
-45.7763671875
-44.86083984375
-53.1005859375
-53.1005859375
-49.4384765625
-47.607421875
-44.86083984375
-48.52294921875
-47.607421875
-45.7763671875
-49.4384765625
-43.9453125
-45.7763671875
-47.607421875
-53.1005859375
-44.86083984375
-54.01611328125
-52.18505859375
-50.35400390625
-52.18505859375
-49.4384765625
-42.1142578125
-43.9453125
-45.7763671875
-52.18505859375
-52.18505859375
-50.35400390625
-44.86083984375
-44.86083984375
-43.9453125
-49.4384765625
-52.18505859375
-54.01611328125
-59.50927734375
-65.00244140625
-70.49560546875
-90.63720703125
-83.31298828125
-63.17138671875
-34.7900390625
4.57763671875
69.580078125
173.03466796875
287.4755859375
404.6630859375
539.24560546875
661.0107421875
751.64794921875
846.86279296875
972.2900390625
1109.619140625
1182.861328125
1191.10107421875
1140.7470703125
951.23291015625
617.98095703125
312.19482421875
73.2421875
-65.91796875
-65.00244140625
-28.38134765625
-2.74658203125
-6.40869140625
6.40869140625
39.36767578125
46.69189453125
45.7763671875
42.1142578125
39.36767578125
25.634765625
16.4794921875
19.22607421875
11.90185546875
7.32421875
2.74658203125
0
2.74658203125
-6.40869140625
1.8310546875
3.662109375
-0.91552734375
0.91552734375
3.662109375
0
-3.662109375
-3.662109375
-4.57763671875
-3.662109375
0.91552734375
4.57763671875
0
-6.40869140625
-6.40869140625
-10.07080078125
-10.07080078125
-5.4931640625
-3.662109375
-0.91552734375
3.662109375
2.74658203125
2.74658203125
4.57763671875
9.1552734375
7.32421875
10.07080078125
11.90185546875
7.32421875
12.8173828125
10.07080078125
7.32421875
4.57763671875
9.1552734375
15.56396484375
15.56396484375
16.4794921875
21.97265625
13.73291015625
21.05712890625
21.05712890625
21.97265625
22.88818359375
22.88818359375
29.296875
28.38134765625
27.4658203125
33.87451171875
43.02978515625
41.19873046875
32.958984375
34.7900390625
34.7900390625
29.296875
33.87451171875
36.62109375
47.607421875
39.36767578125
46.69189453125
44.86083984375
50.35400390625
50.35400390625
59.50927734375
53.1005859375
57.67822265625
64.0869140625
65.91796875
61.34033203125
61.34033203125
70.49560546875
67.7490234375
75.98876953125
75.98876953125
74.15771484375
78.7353515625
77.81982421875
74.15771484375
78.7353515625
82.3974609375
86.97509765625
90.63720703125
90.63720703125
90.63720703125
88.80615234375
103.45458984375
105.28564453125
108.0322265625
97.96142578125
101.62353515625
101.62353515625
104.3701171875
105.28564453125
110.77880859375
113.525390625
113.525390625
113.525390625
123.59619140625
130.92041015625
123.59619140625
120.849609375
120.849609375
127.25830078125
130.92041015625
131.8359375
132.75146484375
127.25830078125
130.92041015625
132.75146484375
125.42724609375
124.51171875
107.11669921875
108.0322265625
110.77880859375
98.876953125
104.3701171875
97.0458984375
92.46826171875
91.552734375
81.48193359375
73.2421875
72.32666015625
65.00244140625
62.255859375
56.7626953125
42.1142578125
45.7763671875
44.86083984375
39.36767578125
46.69189453125
36.62109375
38.4521484375
32.04345703125
26.55029296875
20.1416015625
17.39501953125
21.97265625
24.71923828125
21.97265625
17.39501953125
26.55029296875
12.8173828125
16.4794921875
13.73291015625
16.4794921875
15.56396484375
13.73291015625
19.22607421875
12.8173828125
16.4794921875
17.39501953125
21.05712890625
10.986328125
12.8173828125
13.73291015625
8.23974609375
11.90185546875
17.39501953125
11.90185546875
18.310546875
14.6484375
19.22607421875
21.05712890625
25.634765625
27.4658203125
18.310546875
27.4658203125
32.958984375
24.71923828125
21.05712890625
27.4658203125
22.88818359375
22.88818359375
21.05712890625
17.39501953125
17.39501953125
17.39501953125
16.4794921875
28.38134765625
32.04345703125
22.88818359375
27.4658203125
30.21240234375
21.97265625
23.8037109375
21.97265625
18.310546875
25.634765625
27.4658203125
27.4658203125
28.38134765625
21.97265625
26.55029296875
25.634765625
32.958984375
21.97265625
22.88818359375
21.05712890625
23.8037109375
19.22607421875
22.88818359375
27.4658203125
31.1279296875
26.55029296875
26.55029296875
28.38134765625
29.296875
32.958984375
22.88818359375
21.97265625
16.4794921875
23.8037109375
21.05712890625
17.39501953125
14.6484375
25.634765625
21.97265625
17.39501953125
16.4794921875
19.22607421875
11.90185546875
5.4931640625
10.07080078125
13.73291015625
11.90185546875
15.56396484375
11.90185546875
10.986328125
10.986328125
11.90185546875
6.40869140625
6.40869140625
10.986328125
10.07080078125
8.23974609375
11.90185546875
10.07080078125
3.662109375
12.8173828125
7.32421875
8.23974609375
1.8310546875
1.8310546875
1.8310546875
-0.91552734375
2.74658203125
5.4931640625
2.74658203125
1.8310546875
3.662109375
9.1552734375
3.662109375
-1.8310546875
2.74658203125
0
0
4.57763671875
6.40869140625
1.8310546875
-1.8310546875
8.23974609375
-0.91552734375
-3.662109375
-1.8310546875
-5.4931640625
0.91552734375
-0.91552734375
-4.57763671875
1.8310546875
-3.662109375
-0.91552734375
-1.8310546875
0
-9.1552734375
-3.662109375
-3.662109375
-2.74658203125
-1.8310546875
-8.23974609375
-4.57763671875
-3.662109375
-5.4931640625
-5.4931640625
-3.662109375
-9.1552734375
-5.4931640625
-7.32421875
-10.07080078125
-7.32421875
-4.57763671875
-10.07080078125
-6.40869140625
0.91552734375
-7.32421875
-14.6484375
-11.90185546875
-7.32421875
-11.90185546875
-12.8173828125
-12.8173828125
-10.986328125
-12.8173828125
-15.56396484375
-18.310546875
-17.39501953125
-8.23974609375
-4.57763671875
-1.8310546875
-2.74658203125
4.57763671875
2.74658203125
0.91552734375
-6.40869140625
-4.57763671875
5.4931640625
12.8173828125
29.296875
24.71923828125
25.634765625
26.55029296875
33.87451171875
43.9453125
51.26953125
61.34033203125
75.0732421875
78.7353515625
68.66455078125
66.83349609375
60.4248046875
58.59375
58.59375
52.18505859375
52.18505859375
54.931640625
50.35400390625
53.1005859375
43.02978515625
32.04345703125
26.55029296875
21.05712890625
12.8173828125
0.91552734375
5.4931640625
0
-5.4931640625
-12.8173828125
-31.1279296875
-31.1279296875
-25.634765625
-27.4658203125
-24.71923828125
-24.71923828125
-16.4794921875
-20.1416015625
-22.88818359375
-27.4658203125
-29.296875
-30.21240234375
-23.8037109375
-21.05712890625
-25.634765625
-23.8037109375
-18.310546875
-28.38134765625
-33.87451171875
-38.4521484375
-31.1279296875
-30.21240234375
-30.21240234375
-29.296875
-25.634765625
-26.55029296875
-30.21240234375
-26.55029296875
-32.04345703125
-33.87451171875
-27.4658203125
-27.4658203125
-36.62109375
-36.62109375
-36.62109375
-40.283203125
-52.18505859375
-63.17138671875
-74.15771484375
-72.32666015625
-42.1142578125
-14.6484375
21.05712890625
94.29931640625
195.9228515625
311.279296875
429.38232421875
565.7958984375
686.6455078125
780.029296875
880.7373046875
1003.41796875
1133.4228515625
1192.93212890625
1199.3408203125
1149.90234375
953.9794921875
610.65673828125
298.4619140625
56.7626953125
-64.0869140625
-56.7626953125
-18.310546875
6.40869140625
2.74658203125
9.1552734375
42.1142578125
54.931640625
58.59375
54.01611328125
47.607421875
40.283203125
32.04345703125
29.296875
17.39501953125
14.6484375
11.90185546875
10.07080078125
10.07080078125
7.32421875
4.57763671875
7.32421875
6.40869140625
4.57763671875
3.662109375
5.4931640625
7.32421875
5.4931640625
0
1.8310546875
6.40869140625
5.4931640625
4.57763671875
10.986328125
0
-1.8310546875
0
8.23974609375
11.90185546875
6.40869140625
4.57763671875
3.662109375
6.40869140625
12.8173828125
22.88818359375
7.32421875
9.1552734375
5.4931640625
4.57763671875
8.23974609375
11.90185546875
20.1416015625
19.22607421875
20.1416015625
26.55029296875
26.55029296875
27.4658203125
27.4658203125
25.634765625
22.88818359375
24.71923828125
28.38134765625
23.8037109375
30.21240234375
21.97265625
23.8037109375
33.87451171875
32.958984375
34.7900390625
39.36767578125
38.4521484375
41.19873046875
45.7763671875
41.19873046875
44.86083984375
36.62109375
34.7900390625
41.19873046875
43.02978515625
45.7763671875
48.52294921875
52.18505859375
54.931640625
58.59375
58.59375
54.931640625
59.50927734375
64.0869140625
65.00244140625
64.0869140625
65.00244140625
62.255859375
70.49560546875
67.7490234375
65.91796875
73.2421875
73.2421875
82.3974609375
80.56640625
80.56640625
75.98876953125
77.81982421875
80.56640625
77.81982421875
89.7216796875
87.890625
91.552734375
92.46826171875
88.80615234375
93.3837890625
91.552734375
94.29931640625
97.96142578125
90.63720703125
97.0458984375
95.21484375
94.29931640625
99.79248046875
101.62353515625
102.5390625
97.96142578125
100.7080078125
102.5390625
104.3701171875
100.7080078125
101.62353515625
98.876953125
97.96142578125
97.96142578125
94.29931640625
97.0458984375
85.14404296875
79.65087890625
81.48193359375
72.32666015625
65.91796875
63.17138671875
60.4248046875
56.7626953125
56.7626953125
44.86083984375
36.62109375
42.1142578125
38.4521484375
32.958984375
24.71923828125
21.97265625
21.05712890625
9.1552734375
12.8173828125
2.74658203125
3.662109375
0
8.23974609375
5.4931640625
6.40869140625
-1.8310546875
-3.662109375
1.8310546875
-4.57763671875
-11.90185546875
-14.6484375
-11.90185546875
-13.73291015625
-12.8173828125
-14.6484375
-16.4794921875
-12.8173828125
-13.73291015625
-9.1552734375
-11.90185546875
-19.22607421875
-17.39501953125
-18.310546875
-18.310546875
-11.90185546875
-14.6484375
-13.73291015625
-10.986328125
-19.22607421875
-12.8173828125
-10.986328125
-10.07080078125
-11.90185546875
-9.1552734375
-5.4931640625
-3.662109375
-12.8173828125
-9.1552734375
-5.4931640625
-6.40869140625
-6.40869140625
-7.32421875
-9.1552734375
-9.1552734375
-7.32421875
-4.57763671875
-1.8310546875
-4.57763671875
1.8310546875
-1.8310546875
0
5.4931640625
7.32421875
-0.91552734375
-0.91552734375
-1.8310546875
1.8310546875
-0.91552734375
-4.57763671875
-1.8310546875
-7.32421875
3.662109375
4.57763671875
4.57763671875
-3.662109375
-3.662109375
0
-3.662109375
-2.74658203125
-3.662109375
-8.23974609375
-9.1552734375
-7.32421875
-9.1552734375
-5.4931640625
-4.57763671875
-7.32421875
-7.32421875
-10.986328125
-10.07080078125
-9.1552734375
-10.986328125
-14.6484375
-18.310546875
-16.4794921875
-18.310546875
-15.56396484375
-18.310546875
-15.56396484375
-20.1416015625
-22.88818359375
-20.1416015625
-16.4794921875
-20.1416015625
-25.634765625
-20.1416015625
-19.22607421875
-19.22607421875
-21.97265625
-33.87451171875
-25.634765625
-22.88818359375
-31.1279296875
-31.1279296875
-26.55029296875
-27.4658203125
-31.1279296875
-30.21240234375
-32.04345703125
-27.4658203125
-27.4658203125
-26.55029296875
-35.70556640625
-35.70556640625
-38.4521484375
-35.70556640625
-38.4521484375
-33.87451171875
-34.7900390625
-34.7900390625
-34.7900390625
-31.1279296875
-40.283203125
-44.86083984375
-35.70556640625
-38.4521484375
-39.36767578125
-39.36767578125
-36.62109375
-40.283203125
-38.4521484375
-43.02978515625
-40.283203125
-41.19873046875
-42.1142578125
-41.19873046875
-44.86083984375
-41.19873046875
-46.69189453125
-41.19873046875
-40.283203125
-39.36767578125
-41.19873046875
-51.26953125
-46.69189453125
-43.9453125
-42.1142578125
-37.53662109375
-38.4521484375
-42.1142578125
-44.86083984375
-45.7763671875
-40.283203125
-44.86083984375
-44.86083984375
-46.69189453125
-43.9453125
-44.86083984375
-44.86083984375
-47.607421875
-46.69189453125
-43.9453125
-48.52294921875
-48.52294921875
-45.7763671875
-42.1142578125
-39.36767578125
-40.283203125
-43.02978515625
-43.02978515625
-42.1142578125
-42.1142578125
-47.607421875
-50.35400390625
-49.4384765625
-48.52294921875
-43.9453125
-47.607421875
-47.607421875
-54.931640625
-44.86083984375
-40.283203125
-40.283203125
-43.9453125
-47.607421875
-47.607421875
-45.7763671875
-43.02978515625
-41.19873046875
-39.36767578125
-45.7763671875
-44.86083984375
-37.53662109375
-31.1279296875
-19.22607421875
-4.57763671875
-1.8310546875
-0.91552734375
-5.4931640625
-8.23974609375
-9.1552734375
0.91552734375
9.1552734375
18.310546875
23.8037109375
37.53662109375
37.53662109375
35.70556640625
35.70556640625
27.4658203125
18.310546875
14.6484375
10.986328125
15.56396484375
18.310546875
17.39501953125
14.6484375
2.74658203125
-9.1552734375
-17.39501953125
-19.22607421875
-22.88818359375
-27.4658203125
-27.4658203125
-32.958984375
-40.283203125
-59.50927734375
-66.83349609375
-65.91796875
-64.0869140625
-68.66455078125
-61.34033203125
-63.17138671875
-70.49560546875
-71.4111328125
-67.7490234375
-68.66455078125
-63.17138671875
-68.66455078125
-69.580078125
-66.83349609375
-67.7490234375
-68.66455078125
-77.81982421875
-72.32666015625
-66.83349609375
-66.83349609375
-68.66455078125
-75.0732421875
-77.81982421875
-74.15771484375
-74.15771484375
-75.98876953125
-69.580078125
-69.580078125
-69.580078125
-62.255859375
-57.67822265625
-62.255859375
-59.50927734375
-71.4111328125
-81.48193359375
-83.31298828125
-94.29931640625
-107.11669921875
-111.6943359375
-89.7216796875
-66.83349609375
-28.38134765625
19.22607421875
118.10302734375
226.13525390625
341.49169921875
461.42578125
583.19091796875
679.3212890625
780.94482421875
899.96337890625
1031.79931640625
1128.84521484375
1146.240234375
1125.18310546875
973.20556640625
675.6591796875
357.0556640625
119.93408203125
-46.69189453125
-69.580078125
-58.59375
-31.1279296875
-28.38134765625
-2.74658203125
31.1279296875
41.19873046875
34.7900390625
26.55029296875
21.05712890625
7.32421875
-1.8310546875
-8.23974609375
-12.8173828125
-11.90185546875
-12.8173828125
-17.39501953125
-22.88818359375
-25.634765625
-24.71923828125
-27.4658203125
-27.4658203125
-25.634765625
-28.38134765625
-31.1279296875
-29.296875
-32.04345703125
-25.634765625
-27.4658203125
-25.634765625
-27.4658203125
-25.634765625
-23.8037109375
-27.4658203125
-24.71923828125
-29.296875
-35.70556640625
-28.38134765625
-19.22607421875
-23.8037109375
-25.634765625
-29.296875
-25.634765625
-23.8037109375
-22.88818359375
-21.97265625
-21.97265625
-20.1416015625
-17.39501953125
-21.97265625
-17.39501953125
-18.310546875
-17.39501953125
-18.310546875
-17.39501953125
-10.07080078125
-5.4931640625
-13.73291015625
-22.88818359375
-17.39501953125
-11.90185546875
-10.986328125
-6.40869140625
-5.4931640625
-3.662109375
0
-2.74658203125
1.8310546875
6.40869140625
7.32421875
6.40869140625
4.57763671875
9.1552734375
13.73291015625
10.07080078125
10.07080078125
12.8173828125
11.90185546875
19.22607421875
23.8037109375
20.1416015625
18.310546875
21.97265625
22.88818359375
23.8037109375
26.55029296875
27.4658203125
36.62109375
30.21240234375
25.634765625
31.1279296875
32.958984375
33.87451171875
47.607421875
44.86083984375
46.69189453125
50.35400390625
63.17138671875
64.0869140625
55.84716796875
61.34033203125
62.255859375
64.0869140625
66.83349609375
70.49560546875
73.2421875
71.4111328125
77.81982421875
74.15771484375
75.98876953125
81.48193359375
77.81982421875
77.81982421875
83.31298828125
86.0595703125
82.3974609375
86.97509765625
91.552734375
86.97509765625
91.552734375
95.21484375
99.79248046875
101.62353515625
91.552734375
93.3837890625
87.890625
88.80615234375
91.552734375
86.97509765625
83.31298828125
78.7353515625
75.0732421875
66.83349609375
62.255859375
57.67822265625
56.7626953125
47.607421875
43.9453125
44.86083984375
34.7900390625
27.4658203125
21.05712890625
10.07080078125
14.6484375
7.32421875
3.662109375
-3.662109375
-5.4931640625
-10.986328125
-12.8173828125
-15.56396484375
-16.4794921875
-17.39501953125
-21.97265625
-24.71923828125
-27.4658203125
-26.55029296875
-30.21240234375
-26.55029296875
-26.55029296875
-35.70556640625
-33.87451171875
-34.7900390625
-40.283203125
-37.53662109375
-40.283203125
-40.283203125
-40.283203125
-41.19873046875
-41.19873046875
-41.19873046875
-40.283203125
-42.1142578125
-46.69189453125
-39.36767578125
-42.1142578125
-40.283203125
-39.36767578125
-35.70556640625
-34.7900390625
-40.283203125
-38.4521484375
-34.7900390625
-42.1142578125
-42.1142578125
-40.283203125
-31.1279296875
-33.87451171875
-32.958984375
-26.55029296875
-30.21240234375
-32.958984375
-31.1279296875
-31.1279296875
-32.958984375
-33.87451171875
-30.21240234375
-29.296875
-32.04345703125
-27.4658203125
-22.88818359375
-24.71923828125
-25.634765625
-22.88818359375
-20.1416015625
-21.97265625
-23.8037109375
-27.4658203125
-22.88818359375
-21.97265625
-24.71923828125
-25.634765625
-14.6484375
-27.4658203125
-32.04345703125
-35.70556640625
-30.21240234375
-32.04345703125
-27.4658203125
-32.958984375
-31.1279296875
-30.21240234375
-21.97265625
-23.8037109375
-29.296875
-26.55029296875
-24.71923828125
-26.55029296875
-23.8037109375
-26.55029296875
-27.4658203125
-31.1279296875
-37.53662109375
-35.70556640625
-33.87451171875
-34.7900390625
-35.70556640625
-43.9453125
-39.36767578125
-39.36767578125
-42.1142578125
-37.53662109375
-39.36767578125
-40.283203125
-44.86083984375
-47.607421875
-43.02978515625
-45.7763671875
-49.4384765625
-44.86083984375
-43.02978515625
-45.7763671875
-40.283203125
-47.607421875
-52.18505859375
-50.35400390625
-48.52294921875
-53.1005859375
-51.26953125
-51.26953125
-55.84716796875
-55.84716796875
-52.18505859375
-48.52294921875
-49.4384765625
-47.607421875
-51.26953125
-53.1005859375
-53.1005859375
-56.7626953125
-56.7626953125
-58.59375
-65.91796875
-59.50927734375
-54.931640625
-60.4248046875
-57.67822265625
-55.84716796875
-57.67822265625
-57.67822265625
-58.59375
-58.59375
-59.50927734375
-59.50927734375
-59.50927734375
-55.84716796875
-54.931640625
-57.67822265625
-61.34033203125
-64.0869140625
-64.0869140625
-63.17138671875
-60.4248046875
-65.00244140625
-62.255859375
-60.4248046875
-63.17138671875
-62.255859375
-64.0869140625
-65.91796875
-69.580078125
-69.580078125
-71.4111328125
-68.66455078125
-66.83349609375
-70.49560546875
-65.00244140625
-65.00244140625
-65.91796875
-68.66455078125
-64.0869140625
-67.7490234375
-65.00244140625
-65.00244140625
-60.4248046875
-64.0869140625
-67.7490234375
-66.83349609375
-61.34033203125
-62.255859375
-65.91796875
-71.4111328125
-65.91796875
-65.91796875
-68.66455078125
-73.2421875
-64.0869140625
-57.67822265625
-54.01611328125
-57.67822265625
-59.50927734375
-59.50927734375
-58.59375
-55.84716796875
-54.931640625
-57.67822265625
-53.1005859375
-56.7626953125
-60.4248046875
-59.50927734375
-48.52294921875
-39.36767578125
-32.958984375
-24.71923828125
-25.634765625
-21.05712890625
-21.97265625
-25.634765625
-24.71923828125
-14.6484375
-1.8310546875
-1.8310546875
10.986328125
21.05712890625
20.1416015625
16.4794921875
10.986328125
5.4931640625
-2.74658203125
2.74658203125
7.32421875
9.1552734375
0.91552734375
-4.57763671875
-6.40869140625
-15.56396484375
-24.71923828125
-32.04345703125
-39.36767578125
-41.19873046875
-48.52294921875
-48.52294921875
-60.4248046875
-68.66455078125
-75.98876953125
-82.3974609375
-81.48193359375
-80.56640625
-81.48193359375
-81.48193359375
-82.3974609375
-83.31298828125
-83.31298828125
-84.228515625
-82.3974609375
-88.80615234375
-91.552734375
-87.890625
-94.29931640625
-97.0458984375
-97.0458984375
-88.80615234375
-92.46826171875
-92.46826171875
-86.97509765625
-91.552734375
-96.13037109375
-94.29931640625
-95.21484375
-90.63720703125
-88.80615234375
-95.21484375
-88.80615234375
-86.97509765625
-89.7216796875
-89.7216796875
-87.890625
-88.80615234375
-96.13037109375
-100.7080078125
-114.44091796875
-127.25830078125
-140.07568359375
-138.24462890625
-118.10302734375
-94.29931640625
-55.84716796875
0
93.3837890625
201.416015625
308.53271484375
433.9599609375
547.4853515625
639.95361328125
744.32373046875
861.51123046875
997.9248046875
1093.1396484375
1113.28125
1086.73095703125
930.17578125
617.0654296875
317.68798828125
87.890625
-66.83349609375
-90.63720703125
-79.65087890625
-54.931640625
-37.53662109375
-16.4794921875
8.23974609375
16.4794921875
11.90185546875
5.4931640625
-4.57763671875
-13.73291015625
-17.39501953125
-23.8037109375
-28.38134765625
-34.7900390625
-32.958984375
-42.1142578125
-43.02978515625
-44.86083984375
-48.52294921875
-46.69189453125
-45.7763671875
-44.86083984375
-44.86083984375
-49.4384765625
-50.35400390625
-51.26953125
-49.4384765625
-50.35400390625
-46.69189453125
-47.607421875
-49.4384765625
-43.02978515625
-41.19873046875
-42.1142578125
-45.7763671875
-49.4384765625
-41.19873046875
-36.62109375
-41.19873046875
-46.69189453125
-45.7763671875
-44.86083984375
-40.283203125
-38.4521484375
-39.36767578125
-35.70556640625
-37.53662109375
-42.1142578125
-38.4521484375
-37.53662109375
-40.283203125
-36.62109375
-38.4521484375
-32.958984375
-27.4658203125
-31.1279296875
-28.38134765625
-28.38134765625
-24.71923828125
-29.296875
-30.21240234375
-27.4658203125
-29.296875
-32.958984375
-22.88818359375
-21.97265625
-27.4658203125
-24.71923828125
-20.1416015625
-16.4794921875
-16.4794921875
-21.05712890625
-17.39501953125
-13.73291015625
-13.73291015625
-10.986328125
-15.56396484375
-11.90185546875
-4.57763671875
-2.74658203125
-1.8310546875
-0.91552734375
-5.4931640625
-3.662109375
6.40869140625
11.90185546875
5.4931640625
6.40869140625
6.40869140625
8.23974609375
17.39501953125
15.56396484375
14.6484375
21.05712890625
22.88818359375
24.71923828125
34.7900390625
32.04345703125
32.958984375
32.958984375
34.7900390625
34.7900390625
38.4521484375
42.1142578125
46.69189453125
44.86083984375
43.9453125
47.607421875
46.69189453125
56.7626953125
50.35400390625
49.4384765625
55.84716796875
58.59375
58.59375
65.91796875
70.49560546875
72.32666015625
69.580078125
74.15771484375
69.580078125
68.66455078125
70.49560546875
69.580078125
65.91796875
62.255859375
55.84716796875
59.50927734375
59.50927734375
56.7626953125
54.931640625
43.9453125
37.53662109375
37.53662109375
34.7900390625
26.55029296875
21.05712890625
12.8173828125
8.23974609375
8.23974609375
9.1552734375
-1.8310546875
-8.23974609375
-10.07080078125
-18.310546875
-21.05712890625
-24.71923828125
-21.05712890625
-26.55029296875
-39.36767578125
-37.53662109375
-39.36767578125
-40.283203125
-51.26953125
-43.02978515625
-43.02978515625
-41.19873046875
-48.52294921875
-51.26953125
-54.01611328125
-59.50927734375
-54.931640625
-54.01611328125
-53.1005859375
-54.931640625
-53.1005859375
-53.1005859375
-55.84716796875
-54.01611328125
-52.18505859375
-59.50927734375
-56.7626953125
-50.35400390625
-56.7626953125
-52.18505859375
-53.1005859375
-48.52294921875
-49.4384765625
-49.4384765625
-52.18505859375
-52.18505859375
-51.26953125
-43.02978515625
-47.607421875
-55.84716796875
-41.19873046875
-51.26953125
-54.931640625
-46.69189453125
-46.69189453125
-43.02978515625
-39.36767578125
-53.1005859375
-48.52294921875
-43.02978515625
-43.02978515625
-41.19873046875
-44.86083984375
-43.9453125
-41.19873046875
-42.1142578125
-41.19873046875
