ECG
-8.23974609375
-1.8310546875
-10.07080078125
-4.57763671875
-7.32421875
-0.91552734375
0
7.32421875
-1.8310546875
7.32421875
10.986328125
13.73291015625
16.4794921875
17.39501953125
24.71923828125
21.05712890625
21.05712890625
10.986328125
21.05712890625
39.36767578125
32.958984375
29.296875
28.38134765625
37.53662109375
43.9453125
50.35400390625
51.26953125
46.69189453125
47.607421875
48.52294921875
62.255859375
68.66455078125
69.580078125
70.49560546875
78.7353515625
80.56640625
72.32666015625
85.14404296875
90.63720703125
88.80615234375
81.48193359375
103.45458984375
115.3564453125
115.3564453125
109.86328125
118.10302734375
120.849609375
125.42724609375
134.58251953125
143.73779296875
143.73779296875
151.9775390625
157.470703125
155.6396484375
171.20361328125
195.9228515625
210.5712890625
213.31787109375
206.9091796875
205.078125
206.9091796875
223.388671875
230.712890625
233.45947265625
248.10791015625
255.43212890625
276.4892578125
281.982421875
295.71533203125
310.36376953125
307.6171875
297.54638671875
302.1240234375
314.02587890625
324.0966796875
336.9140625
339.66064453125
343.32275390625
343.32275390625
337.82958984375
342.4072265625
347.900390625
351.5625
344.23828125
343.32275390625
349.7314453125
354.30908203125
347.900390625
343.32275390625
352.47802734375
361.63330078125
359.80224609375
333.251953125
326.84326171875
323.18115234375
315.85693359375
307.6171875
290.22216796875
274.658203125
258.1787109375
245.361328125
239.8681640625
225.2197265625
209.65576171875
195.9228515625
193.17626953125
164.794921875
151.9775390625
132.75146484375
122.6806640625
104.3701171875
86.0595703125
75.98876953125
60.4248046875
57.67822265625
58.59375
41.19873046875
32.04345703125
21.97265625
14.6484375
5.4931640625
-8.23974609375
-11.90185546875
-12.8173828125
-24.71923828125
-30.21240234375
-25.634765625
-21.05712890625
-33.87451171875
-36.62109375
-37.53662109375
-43.9453125
-52.18505859375
-41.19873046875
-39.36767578125
-54.931640625
-58.59375
-59.50927734375
-55.84716796875
-60.4248046875
-61.34033203125
-60.4248046875
-56.7626953125
-50.35400390625
-51.26953125
-50.35400390625
-49.4384765625
-59.50927734375
-60.4248046875
-61.34033203125
-59.50927734375
-54.01611328125
-57.67822265625
-50.35400390625
-51.26953125
-59.50927734375
-54.01611328125
-53.1005859375
-52.18505859375
-39.36767578125
-43.9453125
-64.0869140625
-43.9453125
-43.9453125
-48.52294921875
-46.69189453125
-45.7763671875
-37.53662109375
-34.7900390625
-40.283203125
-42.1142578125
-43.02978515625
-43.02978515625
-40.283203125
-33.87451171875
-24.71923828125
-21.05712890625
-32.958984375
-24.71923828125
-32.04345703125
-36.62109375
-27.4658203125
-27.4658203125
-32.958984375
-28.38134765625
-24.71923828125
-21.97265625
-26.55029296875
-27.4658203125
-30.21240234375
-28.38134765625
-20.1416015625
-26.55029296875
-31.1279296875
-32.958984375
-31.1279296875
-33.87451171875
-28.38134765625
-31.1279296875
-26.55029296875
-32.958984375
-28.38134765625
-23.8037109375
-21.97265625
-31.1279296875
-41.19873046875
-32.04345703125
-31.1279296875
-33.87451171875
-31.1279296875
-33.87451171875
-37.53662109375
-42.1142578125
-38.4521484375
-35.70556640625
-26.55029296875
-29.296875
-52.18505859375
-68.66455078125
-62.255859375
-55.84716796875
-54.931640625
-55.84716796875
-55.84716796875
-48.52294921875
-51.26953125
-56.7626953125
-36.62109375
-34.7900390625
-53.1005859375
-45.7763671875
-38.4521484375
-58.59375
-50.35400390625
-39.36767578125
-54.931640625
-60.4248046875
-57.67822265625
-47.607421875
-49.4384765625
-54.01611328125
-59.50927734375
-53.1005859375
-54.931640625
-67.7490234375
-71.4111328125
-61.34033203125
-57.67822265625
-56.7626953125
-53.1005859375
-49.4384765625
-47.607421875
-57.67822265625
-60.4248046875
-62.255859375
-69.580078125
-63.17138671875
-61.34033203125
-65.00244140625
-60.4248046875
-63.17138671875
-62.255859375
-57.67822265625
-51.26953125
-61.34033203125
-69.580078125
-77.81982421875
-69.580078125
-66.83349609375
-66.83349609375
-58.59375
-63.17138671875
-59.50927734375
-54.01611328125
-62.255859375
-74.15771484375
-65.91796875
-65.91796875
-72.32666015625
-70.49560546875
-73.2421875
-67.7490234375
-45.7763671875
-68.66455078125
-68.66455078125
-71.4111328125
-73.2421875
-70.49560546875
-63.17138671875
-61.34033203125
-64.0869140625
-65.00244140625
-57.67822265625
-54.931640625
-56.7626953125
-58.59375
-70.49560546875
-69.580078125
-62.255859375
-66.83349609375
-80.56640625
-75.98876953125
-57.67822265625
-53.1005859375
-68.66455078125
-78.7353515625
-75.98876953125
-63.17138671875
-67.7490234375
-69.580078125
-70.49560546875
-70.49560546875
-68.66455078125
-57.67822265625
-70.49560546875
-73.2421875
-75.98876953125
-69.580078125
-68.66455078125
-78.7353515625
-81.48193359375
-70.49560546875
-65.91796875
-65.91796875
-58.59375
-63.17138671875
-71.4111328125
-63.17138671875
-60.4248046875
-47.607421875
-59.50927734375
-72.32666015625
-68.66455078125
-65.00244140625
-75.0732421875
-75.98876953125
-67.7490234375
-68.66455078125
-63.17138671875
-62.255859375
-63.17138671875
-66.83349609375
-61.34033203125
-58.59375
-61.34033203125
-76.904296875
-73.2421875
-58.59375
-58.59375
-66.83349609375
-70.49560546875
-71.4111328125
-65.91796875
-57.67822265625
-57.67822265625
-69.580078125
-59.50927734375
-54.01611328125
-63.17138671875
-70.49560546875
-74.15771484375
-85.14404296875
-80.56640625
-74.15771484375
-66.83349609375
-69.580078125
-55.84716796875
-52.18505859375
-65.91796875
-63.17138671875
-66.83349609375
-62.255859375
-64.0869140625
-65.00244140625
-70.49560546875
-58.59375
-63.17138671875
-60.4248046875
-64.0869140625
-65.91796875
-66.83349609375
-68.66455078125
-75.98876953125
-66.83349609375
-46.69189453125
-55.84716796875
-65.00244140625
-67.7490234375
-63.17138671875
-62.255859375
-57.67822265625
-45.7763671875
-50.35400390625
-54.931640625
-51.26953125
-60.4248046875
-70.49560546875
-73.2421875
-79.65087890625
-66.83349609375
-65.91796875
-63.17138671875
-61.34033203125
-70.49560546875
-66.83349609375
-71.4111328125
-67.7490234375
-69.580078125
-59.50927734375
-54.01611328125
-45.7763671875
-42.1142578125
-38.4521484375
-37.53662109375
-46.69189453125
-54.01611328125
-54.01611328125
-65.00244140625
-70.49560546875
-45.7763671875
-47.607421875
-61.34033203125
-68.66455078125
-54.01611328125
-49.4384765625
-41.19873046875
-33.87451171875
-27.4658203125
-25.634765625
-14.6484375
-17.39501953125
-18.310546875
-27.4658203125
-36.62109375
-32.958984375
-23.8037109375
-32.958984375
-35.70556640625
-50.35400390625
-50.35400390625
-50.35400390625
-39.36767578125
-40.283203125
-42.1142578125
-46.69189453125
-49.4384765625
-48.52294921875
-51.26953125
-51.26953125
-54.01611328125
-57.67822265625
-56.7626953125
-61.34033203125
-54.931640625
-62.255859375
-64.0869140625
-65.00244140625
-65.91796875
-75.98876953125
-77.81982421875
-79.65087890625
-71.4111328125
-71.4111328125
-64.0869140625
-70.49560546875
-68.66455078125
-69.580078125
-63.17138671875
-67.7490234375
-73.2421875
-71.4111328125
-69.580078125
-59.50927734375
-61.34033203125
-66.83349609375
-64.0869140625
-70.49560546875
-69.580078125
-109.86328125
-144.6533203125
-160.21728515625
-162.04833984375
-145.56884765625
-98.876953125
-51.26953125
-10.07080078125
75.0732421875
177.6123046875
288.39111328125
397.3388671875
525.5126953125
708.6181640625
891.7236328125
1048.27880859375
1142.578125
1195.6787109375
1208.49609375
1160.888671875
1063.8427734375
874.32861328125
601.50146484375
332.33642578125
53.1005859375
-316.7724609375
-519.10400390625
-525.5126953125
-495.30029296875
-438.53759765625
-403.74755859375
-346.0693359375
-292.05322265625
-251.77001953125
-212.40234375
-153.80859375
-104.3701171875
-75.98876953125
-57.67822265625
-39.36767578125
-35.70556640625
-43.9453125
-34.7900390625
-23.8037109375
-32.04345703125
-29.296875
-23.8037109375
-12.8173828125
-9.1552734375
-6.40869140625
-2.74658203125
-10.986328125
-4.57763671875
-2.74658203125
-10.07080078125
10.986328125
19.22607421875
10.986328125
11.90185546875
8.23974609375
8.23974609375
13.73291015625
18.310546875
24.71923828125
28.38134765625
27.4658203125
26.55029296875
22.88818359375
33.87451171875
31.1279296875
31.1279296875
32.04345703125
41.19873046875
42.1142578125
49.4384765625
49.4384765625
49.4384765625
41.19873046875
37.53662109375
39.36767578125
42.1142578125
53.1005859375
55.84716796875
58.59375
65.00244140625
67.7490234375
73.2421875
72.32666015625
79.65087890625
86.0595703125
88.80615234375
95.21484375
93.3837890625
97.96142578125
102.5390625
107.11669921875
111.6943359375
108.0322265625
99.79248046875
110.77880859375
121.76513671875
130.92041015625
139.16015625
135.498046875
146.484375
155.6396484375
155.6396484375
157.470703125
168.45703125
171.20361328125
174.86572265625
184.02099609375
197.75390625
205.078125
202.33154296875
211.48681640625
227.96630859375
244.44580078125
255.43212890625
249.0234375
260.92529296875
257.26318359375
266.41845703125
277.40478515625
290.22216796875
302.1240234375
305.7861328125
312.19482421875
321.35009765625
324.0966796875
338.7451171875
346.0693359375
356.14013671875
363.46435546875
357.97119140625
366.2109375
371.7041015625
378.11279296875
383.60595703125
379.0283203125
379.94384765625
383.60595703125
381.77490234375
379.0283203125
369.873046875
363.46435546875
357.97119140625
364.3798828125
365.29541015625
364.3798828125
362.548828125
363.46435546875
366.2109375
348.81591796875
325.927734375
311.279296875
303.955078125
281.06689453125
267.333984375
253.60107421875
244.44580078125
228.8818359375
218.81103515625
205.99365234375
184.9365234375
180.35888671875
171.20361328125
160.21728515625
130.92041015625
116.27197265625
104.3701171875
97.96142578125
86.97509765625
66.83349609375
59.50927734375
57.67822265625
49.4384765625
40.283203125
41.19873046875
35.70556640625
29.296875
17.39501953125
1.8310546875
-0.91552734375
-8.23974609375
-9.1552734375
-8.23974609375
0.91552734375
-10.07080078125
-21.97265625
-6.40869140625
-12.8173828125
-23.8037109375
-21.05712890625
-27.4658203125
-26.55029296875
-20.1416015625
-13.73291015625
-24.71923828125
-19.22607421875
-19.22607421875
-25.634765625
-30.21240234375
-36.62109375
-22.88818359375
-24.71923828125
-25.634765625
-22.88818359375
-28.38134765625
-34.7900390625
-31.1279296875
-30.21240234375
-29.296875
-26.55029296875
-25.634765625
-23.8037109375
-19.22607421875
-28.38134765625
-29.296875
-20.1416015625
-10.986328125
-6.40869140625
-7.32421875
-9.1552734375
-12.8173828125
-15.56396484375
-20.1416015625
-22.88818359375
-10.07080078125
-2.74658203125
-18.310546875
-10.986328125
-8.23974609375
-10.07080078125
-8.23974609375
-5.4931640625
-6.40869140625
-3.662109375
-7.32421875
-1.8310546875
-3.662109375
-1.8310546875
-2.74658203125
-7.32421875
-1.8310546875
1.8310546875
6.40869140625
10.986328125
0.91552734375
9.1552734375
9.1552734375
-1.8310546875
-7.32421875
-9.1552734375
-6.40869140625
-13.73291015625
-3.662109375
-0.91552734375
-4.57763671875
-7.32421875
-6.40869140625
-2.74658203125
-9.1552734375
-4.57763671875
-15.56396484375
-10.07080078125
-9.1552734375
-10.07080078125
-3.662109375
-4.57763671875
-12.8173828125
-18.310546875
-22.88818359375
-27.4658203125
-22.88818359375
-10.07080078125
-11.90185546875
-10.07080078125
-6.40869140625
-7.32421875
-17.39501953125
-10.986328125
-30.21240234375
-30.21240234375
-23.8037109375
-17.39501953125
-27.4658203125
-36.62109375
-26.55029296875
-27.4658203125
-30.21240234375
-31.1279296875
-36.62109375
-32.04345703125
-29.296875
-28.38134765625
-39.36767578125
-32.958984375
-32.04345703125
-33.87451171875
-39.36767578125
-26.55029296875
-28.38134765625
-32.958984375
-26.55029296875
-32.958984375
-30.21240234375
-32.04345703125
-27.4658203125
-40.283203125
-46.69189453125
-42.1142578125
-42.1142578125
-38.4521484375
-34.7900390625
-32.04345703125
-32.04345703125
-33.87451171875
-32.958984375
-37.53662109375
-44.86083984375
-47.607421875
-49.4384765625
-46.69189453125
-43.9453125
-36.62109375
-38.4521484375
-47.607421875
-43.02978515625
-36.62109375
-36.62109375
-43.02978515625
-43.02978515625
-30.21240234375
-25.634765625
-24.71923828125
-40.283203125
-41.19873046875
-39.36767578125
-45.7763671875
-50.35400390625
-42.1142578125
-29.296875
-28.38134765625
-43.02978515625
-48.52294921875
-48.52294921875
-45.7763671875
-43.9453125
-45.7763671875
-45.7763671875
-38.4521484375
-42.1142578125
-36.62109375
-28.38134765625
-31.1279296875
-41.19873046875
-57.67822265625
-47.607421875
-49.4384765625
-46.69189453125
-39.36767578125
-43.9453125
-46.69189453125
-54.931640625
-55.84716796875
-47.607421875
-50.35400390625
-42.1142578125
-38.4521484375
-41.19873046875
-39.36767578125
-43.9453125
-49.4384765625
-47.607421875
-49.4384765625
-35.70556640625
-36.62109375
-46.69189453125
-53.1005859375
-47.607421875
-43.02978515625
-41.19873046875
-41.19873046875
-31.1279296875
-35.70556640625
-44.86083984375
-50.35400390625
-49.4384765625
-44.86083984375
-44.86083984375
-43.9453125
-35.70556640625
-41.19873046875
-51.26953125
-39.36767578125
-43.02978515625
-48.52294921875
-39.36767578125
-34.7900390625
-30.21240234375
-32.04345703125
-37.53662109375
-56.7626953125
-58.59375
-43.02978515625
-40.283203125
-39.36767578125
-38.4521484375
-44.86083984375
-38.4521484375
-42.1142578125
-54.01611328125
-54.01611328125
-51.26953125
-43.02978515625
-43.02978515625
-35.70556640625
-46.69189453125
-46.69189453125
-41.19873046875
-37.53662109375
-34.7900390625
-51.26953125
-54.01611328125
-57.67822265625
-45.7763671875
-46.69189453125
-50.35400390625
-44.86083984375
-39.36767578125
-39.36767578125
-35.70556640625
-35.70556640625
-33.87451171875
-32.958984375
-43.02978515625
-40.283203125
-47.607421875
-51.26953125
-34.7900390625
-45.7763671875
-55.84716796875
-49.4384765625
-33.87451171875
-52.18505859375
-54.01611328125
-39.36767578125
-40.283203125
-44.86083984375
-49.4384765625
-37.53662109375
-38.4521484375
-43.02978515625
-41.19873046875
-43.02978515625
-48.52294921875
-43.02978515625
-45.7763671875
-36.62109375
-32.958984375
-60.4248046875
-56.7626953125
-43.9453125
-52.18505859375
-53.1005859375
-49.4384765625
-42.1142578125
-42.1142578125
-55.84716796875
-49.4384765625
-52.18505859375
-56.7626953125
-57.67822265625
-54.01611328125
-48.52294921875
-40.283203125
-37.53662109375
-29.296875
-24.71923828125
-26.55029296875
-24.71923828125
-50.35400390625
-57.67822265625
-73.2421875
-62.255859375
-57.67822265625
-62.255859375
-53.1005859375
-47.607421875
-54.931640625
-50.35400390625
-32.04345703125
-20.1416015625
-16.4794921875
-14.6484375
-10.986328125
-4.57763671875
-5.4931640625
-7.32421875
-12.8173828125
-20.1416015625
-26.55029296875
-25.634765625
-27.4658203125
-26.55029296875
-40.283203125
-50.35400390625
-49.4384765625
-48.52294921875
-30.21240234375
-25.634765625
-41.19873046875
-43.02978515625
-52.18505859375
-49.4384765625
-45.7763671875
-53.1005859375
-60.4248046875
-60.4248046875
-56.7626953125
-51.26953125
-53.1005859375
-47.607421875
-58.59375
-66.83349609375
-70.49560546875
-77.81982421875
-68.66455078125
-65.91796875
-71.4111328125
-62.255859375
-62.255859375
-67.7490234375
-74.15771484375
-72.32666015625
-64.0869140625
-54.931640625
-58.59375
-57.67822265625
-54.931640625
-64.0869140625
-79.65087890625
-72.32666015625
-69.580078125
-78.7353515625
-109.86328125
-126.3427734375
-142.822265625
-151.9775390625
-154.72412109375
-127.25830078125
-80.56640625
-47.607421875
22.88818359375
117.1875
233.45947265625
337.82958984375
465.087890625
609.7412109375
800.1708984375
985.107421875
1099.54833984375
1176.45263671875
1209.41162109375
1166.3818359375
1094.970703125
940.24658203125
694.88525390625
403.74755859375
145.56884765625
-182.18994140625
-459.5947265625
-505.37109375
-492.5537109375
-437.6220703125
-397.3388671875
-354.30908203125
-325.01220703125
-276.4892578125
-227.96630859375
-194.091796875
-136.41357421875
-97.96142578125
-75.98876953125
-49.4384765625
-30.21240234375
-25.634765625
-16.4794921875
-12.8173828125
-28.38134765625
-21.97265625
-26.55029296875
-18.310546875
-8.23974609375
-19.22607421875
-17.39501953125
-12.8173828125
-7.32421875
0
15.56396484375
-6.40869140625
-6.40869140625
7.32421875
0.91552734375
13.73291015625
18.310546875
21.97265625
21.05712890625
26.55029296875
25.634765625
19.22607421875
15.56396484375
19.22607421875
14.6484375
20.1416015625
19.22607421875
21.05712890625
33.87451171875
44.86083984375
42.1142578125
43.02978515625
43.9453125
52.18505859375
54.931640625
51.26953125
49.4384765625
42.1142578125
54.01611328125
65.00244140625
65.00244140625
65.91796875
74.15771484375
68.66455078125
74.15771484375
76.904296875
73.2421875
75.98876953125
84.228515625
98.876953125
102.5390625
102.5390625
112.60986328125
110.77880859375
111.6943359375
117.1875
119.0185546875
125.42724609375
139.16015625
140.07568359375
144.6533203125
140.07568359375
143.73779296875
159.3017578125
168.45703125
167.54150390625
168.45703125
180.35888671875
182.18994140625
185.85205078125
193.17626953125
205.99365234375
211.48681640625
226.13525390625
229.79736328125
230.712890625
247.1923828125
253.60107421875
251.77001953125
262.75634765625
285.64453125
291.1376953125
281.06689453125
296.630859375
300.29296875
314.94140625
309.4482421875
322.265625
327.7587890625
341.49169921875
344.23828125
344.23828125
348.81591796875
357.0556640625
363.46435546875
360.7177734375
362.548828125
362.548828125
372.61962890625
370.78857421875
366.2109375
365.29541015625
356.14013671875
351.5625
347.900390625
362.548828125
366.2109375
353.3935546875
335.0830078125
334.16748046875
320.4345703125
308.53271484375
292.05322265625
289.306640625
279.23583984375
270.99609375
252.685546875
221.5576171875
219.7265625
209.65576171875
191.34521484375
179.443359375
171.20361328125
144.6533203125
144.6533203125
130.92041015625
119.0185546875
105.28564453125
90.63720703125
69.580078125
54.931640625
56.7626953125
39.36767578125
30.21240234375
36.62109375
22.88818359375
10.986328125
3.662109375
3.662109375
-7.32421875
-1.8310546875
-10.986328125
-13.73291015625
-21.97265625
-21.05712890625
-12.8173828125
-21.05712890625
-32.04345703125
-31.1279296875
-31.1279296875
-29.296875
-25.634765625
-24.71923828125
-22.88818359375
-29.296875
-59.50927734375
-57.67822265625
-45.7763671875
-42.1142578125
-41.19873046875
-38.4521484375
-43.02978515625
-32.958984375
-36.62109375
-45.7763671875
-43.02978515625
-33.87451171875
-36.62109375
-43.9453125
-43.9453125
-40.283203125
-40.283203125
-41.19873046875
-35.70556640625
-25.634765625
-16.4794921875
-21.97265625
-28.38134765625
-28.38134765625
-37.53662109375
-42.1142578125
-34.7900390625
-32.04345703125
-21.97265625
-28.38134765625
-24.71923828125
-20.1416015625
-4.57763671875
-16.4794921875
-32.958984375
-37.53662109375
-29.296875
-20.1416015625
-16.4794921875
-24.71923828125
-22.88818359375
-23.8037109375
-18.310546875
-19.22607421875
-14.6484375
-9.1552734375
-21.05712890625
-10.07080078125
-20.1416015625
-32.958984375
-23.8037109375
-15.56396484375
-14.6484375
-17.39501953125
-22.88818359375
-20.1416015625
-19.22607421875
-26.55029296875
-25.634765625
-28.38134765625
-21.05712890625
-16.4794921875
-27.4658203125
-28.38134765625
-26.55029296875
-32.958984375
-30.21240234375
-32.958984375
-31.1279296875
-16.4794921875
-21.97265625
-36.62109375
-35.70556640625
-35.70556640625
-43.9453125
-40.283203125
-33.87451171875
-28.38134765625
-22.88818359375
-33.87451171875
-38.4521484375
-36.62109375
-47.607421875
-48.52294921875
-36.62109375
-41.19873046875
-43.9453125
-38.4521484375
-32.04345703125
-36.62109375
-44.86083984375
-44.86083984375
-50.35400390625
-45.7763671875
-37.53662109375
-53.1005859375
-63.17138671875
-60.4248046875
-54.931640625
-58.59375
-61.34033203125
-54.01611328125
-51.26953125
-62.255859375
-61.34033203125
-57.67822265625
-47.607421875
-54.01611328125
-51.26953125
-50.35400390625
-54.01611328125
-46.69189453125
-56.7626953125
-60.4248046875
-54.01611328125
-60.4248046875
-65.00244140625
-50.35400390625
-43.9453125
-54.01611328125
-58.59375
-51.26953125
-53.1005859375
-57.67822265625
-60.4248046875
-56.7626953125
-61.34033203125
-57.67822265625
-50.35400390625
-56.7626953125
-66.83349609375
-65.91796875
-55.84716796875
-46.69189453125
-59.50927734375
-67.7490234375
-61.34033203125
-58.59375
-54.01611328125
-57.67822265625
-60.4248046875
-58.59375
-58.59375
-57.67822265625
-50.35400390625
-62.255859375
-68.66455078125
-70.49560546875
-64.0869140625
-65.91796875
-56.7626953125
-75.98876953125
-81.48193359375
-69.580078125
-69.580078125
-70.49560546875
-68.66455078125
-65.91796875
-65.00244140625
-68.66455078125
-64.0869140625
-60.4248046875
-56.7626953125
-56.7626953125
-65.91796875
-64.0869140625
-63.17138671875
-67.7490234375
-75.0732421875
-73.2421875
-65.91796875
-65.91796875
-60.4248046875
-60.4248046875
-62.255859375
-77.81982421875
-74.15771484375
-70.49560546875
-70.49560546875
-67.7490234375
-67.7490234375
-69.580078125
-74.15771484375
-75.0732421875
-64.0869140625
-53.1005859375
-61.34033203125
-67.7490234375
-56.7626953125
-62.255859375
-65.91796875
-72.32666015625
-69.580078125
-68.66455078125
-65.91796875
-66.83349609375
-67.7490234375
-74.15771484375
-65.00244140625
-65.91796875
-64.0869140625
-83.31298828125
-88.80615234375
-69.580078125
-63.17138671875
-65.00244140625
-65.00244140625
-53.1005859375
-54.01611328125
-53.1005859375
-57.67822265625
-58.59375
-64.0869140625
-66.83349609375
-71.4111328125
-72.32666015625
-65.91796875
-64.0869140625
-65.91796875
-66.83349609375
-73.2421875
-73.2421875
-74.15771484375
-77.81982421875
-65.91796875
-69.580078125
-74.15771484375
-74.15771484375
-68.66455078125
-65.00244140625
-66.83349609375
-61.34033203125
-50.35400390625
-64.0869140625
-74.15771484375
-81.48193359375
-86.0595703125
-73.2421875
-81.48193359375
-83.31298828125
-71.4111328125
-76.904296875
-76.904296875
-76.904296875
-73.2421875
-75.0732421875
-67.7490234375
-67.7490234375
-71.4111328125
-66.83349609375
-67.7490234375
-73.2421875
-69.580078125
-68.66455078125
-60.4248046875
-55.84716796875
-65.00244140625
-76.904296875
-82.3974609375
-73.2421875
-65.91796875
-62.255859375
-65.00244140625
-67.7490234375
-65.00244140625
-73.2421875
-75.98876953125
-76.904296875
-74.15771484375
-66.83349609375
-68.66455078125
-65.00244140625
-64.0869140625
-72.32666015625
-66.83349609375
-65.00244140625
-61.34033203125
-73.2421875
-76.904296875
-74.15771484375
-71.4111328125
-77.81982421875
-72.32666015625
-56.7626953125
-63.17138671875
-65.91796875
-65.00244140625
-59.50927734375
-73.2421875
-80.56640625
-69.580078125
-67.7490234375
-72.32666015625
-66.83349609375
-72.32666015625
-76.904296875
-75.98876953125
-79.65087890625
-79.65087890625
-84.228515625
-80.56640625
-72.32666015625
-83.31298828125
-84.228515625
-60.4248046875
-55.84716796875
-52.18505859375
-41.19873046875
-27.4658203125
-21.05712890625
-31.1279296875
-33.87451171875
-28.38134765625
-25.634765625
-28.38134765625
-38.4521484375
-46.69189453125
-50.35400390625
-36.62109375
-38.4521484375
-52.18505859375
-52.18505859375
-57.67822265625
-63.17138671875
-67.7490234375
-76.904296875
-77.81982421875
-65.00244140625
-54.931640625
-54.931640625
-54.931640625
-76.904296875
-91.552734375
-87.890625
-82.3974609375
-76.904296875
-84.228515625
-86.97509765625
-87.890625
-89.7216796875
-82.3974609375
-78.7353515625
-72.32666015625
-83.31298828125
-81.48193359375
-82.3974609375
-89.7216796875
-87.890625
-80.56640625
-76.904296875
-80.56640625
-80.56640625
-85.14404296875
-101.62353515625
-91.552734375
-86.0595703125
-86.97509765625
-89.7216796875
-98.876953125
-117.1875
-138.24462890625
-152.89306640625
-178.52783203125
-185.85205078125
-162.9638671875
-119.0185546875
-83.31298828125
-47.607421875
33.87451171875
140.9912109375
250.8544921875
371.7041015625
498.046875
681.15234375
877.99072265625
1025.390625
1105.04150390625
1150.81787109375
1152.64892578125
1078.4912109375
954.89501953125
737.9150390625
430.2978515625
179.443359375
-106.201171875
-392.76123046875
-475.15869140625
-476.07421875
-443.115234375
-427.55126953125
-412.90283203125
-366.2109375
-316.7724609375
-280.1513671875
-227.05078125
-175.78125
-135.498046875
-109.86328125
-86.0595703125
-68.66455078125
-65.00244140625
-67.7490234375
-65.91796875
-62.255859375
-54.931640625
-52.18505859375
-48.52294921875
-48.52294921875
-37.53662109375
-24.71923828125
-30.21240234375
-30.21240234375
-32.04345703125
-29.296875
-24.71923828125
-33.87451171875
-33.87451171875
-28.38134765625
-16.4794921875
-17.39501953125
-14.6484375
-10.986328125
-10.986328125
-8.23974609375
-9.1552734375
2.74658203125
8.23974609375
-6.40869140625
-9.1552734375
-10.986328125
-17.39501953125
-9.1552734375
-2.74658203125
0
7.32421875
17.39501953125
11.90185546875
18.310546875
24.71923828125
31.1279296875
36.62109375
25.634765625
23.8037109375
22.88818359375
30.21240234375
25.634765625
34.7900390625
40.283203125
60.4248046875
63.17138671875
45.7763671875
50.35400390625
63.17138671875
65.91796875
56.7626953125
74.15771484375
72.32666015625
76.904296875
85.14404296875
83.31298828125
95.21484375
98.876953125
91.552734375
102.5390625
118.10302734375
119.93408203125
128.173828125
140.9912109375
138.24462890625
138.24462890625
144.6533203125
149.23095703125
155.6396484375
158.38623046875
161.1328125
169.37255859375
174.86572265625
190.4296875
199.5849609375
199.5849609375
206.9091796875
214.2333984375
219.7265625
233.45947265625
246.27685546875
243.5302734375
260.009765625
268.24951171875
279.23583984375
289.306640625
293.88427734375
292.96875
301.20849609375
307.6171875
316.7724609375
328.67431640625
319.51904296875
320.4345703125
328.67431640625
317.68798828125
316.7724609375
316.7724609375
320.4345703125
325.01220703125
329.58984375
333.251953125
335.99853515625
321.35009765625
312.19482421875
306.70166015625
298.4619140625
294.7998046875
292.96875
290.22216796875
277.40478515625
277.40478515625
270.99609375
264.58740234375
252.685546875
255.43212890625
241.69921875
205.078125
176.69677734375
166.6259765625
152.89306640625
144.6533203125
125.42724609375
109.86328125
97.0458984375
80.56640625
76.904296875
65.00244140625
53.1005859375
47.607421875
35.70556640625
23.8037109375
17.39501953125
7.32421875
4.57763671875
0.91552734375
-7.32421875
-15.56396484375
-23.8037109375
-23.8037109375
-38.4521484375
-32.04345703125
-32.04345703125
-32.958984375
-41.19873046875
-60.4248046875
-62.255859375
-52.18505859375
-49.4384765625
-48.52294921875
-57.67822265625
-57.67822265625
-53.1005859375
-63.17138671875
-64.0869140625
-62.255859375
-58.59375
-66.83349609375
-57.67822265625
-55.84716796875
-59.50927734375
-54.01611328125
-52.18505859375
-47.607421875
-52.18505859375
-58.59375
-64.0869140625
-58.59375
-55.84716796875
-57.67822265625
-43.9453125
-58.59375
-64.0869140625
-54.01611328125
-48.52294921875
-48.52294921875
-43.9453125
-44.86083984375
-39.36767578125
-45.7763671875
-55.84716796875
-49.4384765625
-49.4384765625
-55.84716796875
-53.1005859375
-55.84716796875
-58.59375
-46.69189453125
-38.4521484375
-44.86083984375
-40.283203125
-29.296875
-31.1279296875
-47.607421875
-48.52294921875
-51.26953125
-51.26953125
-43.9453125
-43.9453125
-45.7763671875
-39.36767578125
-40.283203125
-38.4521484375
-38.4521484375
-41.19873046875
-33.87451171875
-32.04345703125
-36.62109375
-40.283203125
-40.283203125
-44.86083984375
-48.52294921875
-47.607421875
-44.86083984375
-50.35400390625
-52.18505859375
-54.01611328125
-48.52294921875
-47.607421875
-51.26953125
-44.86083984375
-40.283203125
-45.7763671875
-48.52294921875
-47.607421875
-48.52294921875
-35.70556640625
-40.283203125
-45.7763671875
-49.4384765625
-56.7626953125
-44.86083984375
-43.02978515625
-55.84716796875
-60.4248046875
-73.2421875
-70.49560546875
-77.81982421875
-82.3974609375
-78.7353515625
-66.83349609375
-72.32666015625
-65.00244140625
-58.59375
-62.255859375
-71.4111328125
-76.904296875
-58.59375
-65.00244140625
-68.66455078125
-65.91796875
-59.50927734375
-65.00244140625
-72.32666015625
-79.65087890625
-81.48193359375
-83.31298828125
-82.3974609375
-70.49560546875
-70.49560546875
-81.48193359375
-73.2421875
-80.56640625
-87.890625
-81.48193359375
-70.49560546875
-73.2421875
-71.4111328125
-80.56640625
-90.63720703125
-85.14404296875
-80.56640625
-83.31298828125
-77.81982421875
-82.3974609375
-75.98876953125
-81.48193359375
-82.3974609375
-80.56640625
-77.81982421875
-70.49560546875
-75.98876953125
-85.14404296875
-86.0595703125
-86.97509765625
-81.48193359375
-67.7490234375
-74.15771484375
-85.14404296875
-80.56640625
-80.56640625
-86.0595703125
-90.63720703125
-96.13037109375
-87.890625
-85.14404296875
-89.7216796875
-87.890625
-84.228515625
-75.0732421875
-66.83349609375
-81.48193359375
-85.14404296875
-84.228515625
-91.552734375
-87.890625
-80.56640625
-76.904296875
-77.81982421875
-75.98876953125
-76.904296875
-74.15771484375
-81.48193359375
-83.31298828125
-76.904296875
-85.14404296875
-81.48193359375
-70.49560546875
-84.228515625
-80.56640625
-74.15771484375
-78.7353515625
-80.56640625
-86.97509765625
-91.552734375
-86.97509765625
-86.0595703125
-87.890625
-86.0595703125
-88.80615234375
-86.0595703125
-79.65087890625
-83.31298828125
-64.0869140625
-65.91796875
-90.63720703125
-89.7216796875
-71.4111328125
-83.31298828125
-90.63720703125
-91.552734375
-78.7353515625
-79.65087890625
-94.29931640625
-95.21484375
-87.890625
-80.56640625
-84.228515625
-83.31298828125
-85.14404296875
-88.80615234375
-88.80615234375
-96.13037109375
-91.552734375
-86.97509765625
-81.48193359375
-86.97509765625
-79.65087890625
-84.228515625
-86.0595703125
-84.228515625
-80.56640625
-90.63720703125
-80.56640625
-75.98876953125
-82.3974609375
-85.14404296875
-75.98876953125
-82.3974609375
-76.904296875
-68.66455078125
-72.32666015625
-72.32666015625
-77.81982421875
-77.81982421875
-72.32666015625
-74.15771484375
-87.890625
-85.14404296875
-79.65087890625
-76.904296875
-82.3974609375
-81.48193359375
-81.48193359375
-77.81982421875
-80.56640625
-81.48193359375
-82.3974609375
-82.3974609375
-68.66455078125
-60.4248046875
-85.14404296875
-87.890625
-84.228515625
-82.3974609375
-75.98876953125
-77.81982421875
-78.7353515625
-84.228515625
-92.46826171875
-87.890625
-93.3837890625
-82.3974609375
-77.81982421875
-77.81982421875
-76.904296875
-70.49560546875
-71.4111328125
-69.580078125
-84.228515625
-87.890625
-85.14404296875
-82.3974609375
-80.56640625
-75.98876953125
-75.0732421875
-79.65087890625
-78.7353515625
-65.00244140625
-60.4248046875
-73.2421875
-77.81982421875
-68.66455078125
-66.83349609375
-84.228515625
-81.48193359375
-73.2421875
-67.7490234375
-70.49560546875
-71.4111328125
-72.32666015625
-76.904296875
-64.0869140625
-68.66455078125
-71.4111328125
-68.66455078125
-62.255859375
-71.4111328125
-70.49560546875
-64.0869140625
-53.1005859375
-48.52294921875
-60.4248046875
-62.255859375
-64.0869140625
-75.0732421875
-87.890625
-86.0595703125
-79.65087890625
-72.32666015625
-65.00244140625
-77.81982421875
-83.31298828125
-71.4111328125
-54.01611328125
-38.4521484375
-33.87451171875
-27.4658203125
-34.7900390625
-33.87451171875
-40.283203125
-37.53662109375
-22.88818359375
-23.8037109375
-32.958984375
-37.53662109375
-43.9453125
-56.7626953125
-72.32666015625
-66.83349609375
-72.32666015625
-61.34033203125
-47.607421875
-52.18505859375
-57.67822265625
-52.18505859375
-46.69189453125
-43.9453125
-52.18505859375
-67.7490234375
-71.4111328125
-72.32666015625
-80.56640625
-71.4111328125
-81.48193359375
-82.3974609375
-84.228515625
-80.56640625
-81.48193359375
-75.98876953125
-75.98876953125
-76.904296875
-79.65087890625
-81.48193359375
-76.904296875
-97.0458984375
-84.228515625
-84.228515625
-66.83349609375
-61.34033203125
-75.0732421875
-88.80615234375
-82.3974609375
-85.14404296875
-86.0595703125
-80.56640625
-87.890625
-101.62353515625
-115.3564453125
-125.42724609375
-153.80859375
-169.37255859375
-167.54150390625
-130.92041015625
-93.3837890625
-48.52294921875
10.986328125
87.890625
198.66943359375
329.58984375
466.9189453125
599.67041015625
791.93115234375
978.69873046875
1090.39306640625
1159.0576171875
1195.6787109375
1139.83154296875
1032.71484375
867.00439453125
585.9375
310.36376953125
49.4384765625
-263.671875
-420.22705078125
-445.86181640625
-426.6357421875
-396.42333984375
-388.18359375
-373.53515625
-327.7587890625
-280.1513671875
-232.5439453125
-186.767578125
-157.470703125
-126.3427734375
-95.21484375
-70.49560546875
-65.91796875
-55.84716796875
-37.53662109375
-34.7900390625
-39.36767578125
-35.70556640625
-35.70556640625
-35.70556640625
-31.1279296875
-25.634765625
-21.05712890625
-13.73291015625
-19.22607421875
-29.296875
-14.6484375
-12.8173828125
-10.986328125
0.91552734375
-8.23974609375
-21.05712890625
-4.57763671875
0
1.8310546875
7.32421875
9.1552734375
17.39501953125
23.8037109375
15.56396484375
10.07080078125
10.07080078125
19.22607421875
22.88818359375
19.22607421875
20.1416015625
21.05712890625
37.53662109375
32.958984375
30.21240234375
43.02978515625
35.70556640625
26.55029296875
34.7900390625
41.19873046875
42.1142578125
49.4384765625
50.35400390625
52.18505859375
52.18505859375
55.84716796875
58.59375
63.17138671875
70.49560546875
69.580078125
78.7353515625
84.228515625
92.46826171875
108.94775390625
94.29931640625
93.3837890625
103.45458984375
105.28564453125
115.3564453125
122.6806640625
125.42724609375
129.08935546875
133.6669921875
135.498046875
131.8359375
143.73779296875
148.3154296875
155.6396484375
155.6396484375
171.20361328125
195.00732421875
195.00732421875
181.2744140625
184.9365234375
197.75390625
205.078125
226.13525390625
237.12158203125
249.0234375
242.61474609375
241.69921875
249.0234375
261.8408203125
276.4892578125
295.71533203125
301.20849609375
291.1376953125
290.22216796875
292.96875
308.53271484375
319.51904296875
321.35009765625
322.265625
329.58984375
341.49169921875
346.98486328125
341.49169921875
341.49169921875
342.4072265625
348.81591796875
346.98486328125
358.88671875
359.80224609375
351.5625
342.4072265625
340.576171875
338.7451171875
325.927734375
324.0966796875
321.35009765625
315.85693359375
310.36376953125
297.54638671875
289.306640625
275.57373046875
266.41845703125
257.26318359375
235.29052734375
238.037109375
238.95263671875
201.416015625
181.2744140625
179.443359375
154.72412109375
134.58251953125
123.59619140625
114.44091796875
100.7080078125
87.890625
86.0595703125
70.49560546875
63.17138671875
37.53662109375
26.55029296875
27.4658203125
20.1416015625
13.73291015625
11.90185546875
9.1552734375
1.8310546875
-10.07080078125
-17.39501953125
-40.283203125
-39.36767578125
-34.7900390625
-24.71923828125
-23.8037109375
-33.87451171875
-47.607421875
-47.607421875
-43.9453125
-51.26953125
-51.26953125
-52.18505859375
-53.1005859375
-52.18505859375
-50.35400390625
-48.52294921875
-58.59375
-61.34033203125
-47.607421875
-53.1005859375
-54.01611328125
-57.67822265625
-55.84716796875
-52.18505859375
-49.4384765625
-64.0869140625
-64.0869140625
-63.17138671875
-61.34033203125
-52.18505859375
-50.35400390625
-51.26953125
-69.580078125
-65.91796875
-56.7626953125
-53.1005859375
-50.35400390625
-43.9453125
-46.69189453125
-44.86083984375
-41.19873046875
-43.9453125
-33.87451171875
-43.02978515625
-65.91796875
-53.1005859375
-48.52294921875
-51.26953125
-54.01611328125
-54.01611328125
-51.26953125
-56.7626953125
-57.67822265625
-45.7763671875
-39.36767578125
-46.69189453125
-54.931640625
-36.62109375
-49.4384765625
-61.34033203125
-60.4248046875
-52.18505859375
-35.70556640625
-40.283203125
-46.69189453125
-54.931640625
-54.931640625
-45.7763671875
-43.9453125
-43.9453125
-53.1005859375
-55.84716796875
-54.01611328125
-51.26953125
-57.67822265625
-58.59375
-47.607421875
-55.84716796875
-58.59375
-59.50927734375
-53.1005859375
-59.50927734375
-70.49560546875
-73.2421875
-62.255859375
-58.59375
-58.59375
-69.580078125
-65.00244140625
-69.580078125
-74.15771484375
-75.0732421875
-69.580078125
-73.2421875
-75.98876953125
-78.7353515625
-81.48193359375
-87.890625
-80.56640625
-85.14404296875
-83.31298828125
-78.7353515625
-86.97509765625
-88.80615234375
-78.7353515625
-88.80615234375
-88.80615234375
-88.80615234375
-82.3974609375
-82.3974609375
-88.80615234375
-99.79248046875
-107.11669921875
-109.86328125
-108.94775390625
-110.77880859375
-99.79248046875
-94.29931640625
-92.46826171875
-89.7216796875
-86.0595703125
-97.0458984375
-97.0458984375
-100.7080078125
-92.46826171875
-85.14404296875
-100.7080078125
-98.876953125
-105.28564453125
-109.86328125
-105.28564453125
-113.525390625
-112.60986328125
-109.86328125
-107.11669921875
-108.94775390625
-108.94775390625
-96.13037109375
-108.0322265625
-99.79248046875
-107.11669921875
-105.28564453125
-97.96142578125
-85.14404296875
-98.876953125
-113.525390625
-122.6806640625
-118.10302734375
-114.44091796875
-117.1875
-108.0322265625
-109.86328125
-115.3564453125
-117.1875
-112.60986328125
-115.3564453125
-118.10302734375
-115.3564453125
-112.60986328125
-116.27197265625
-115.3564453125
-111.6943359375
-105.28564453125
-116.27197265625
-115.3564453125
-119.0185546875
-124.51171875
-117.1875
-110.77880859375
-115.3564453125
-123.59619140625
-126.3427734375
-126.3427734375
-108.0322265625
-120.849609375
-115.3564453125
-127.25830078125
-115.3564453125
-112.60986328125
-127.25830078125
-120.849609375
-120.849609375
-124.51171875
-118.10302734375
-124.51171875
-123.59619140625
-123.59619140625
-129.08935546875
-117.1875
-107.11669921875
-119.93408203125
-130.0048828125
-127.25830078125
-116.27197265625
-115.3564453125
-121.76513671875
-124.51171875
-118.10302734375
-118.10302734375
-122.6806640625
-115.3564453125
-122.6806640625
-117.1875
-114.44091796875
-133.6669921875
-140.9912109375
-135.498046875
-131.8359375
-127.25830078125
-119.93408203125
-125.42724609375
-120.849609375
-126.3427734375
-128.173828125
-115.3564453125
-117.1875
-120.849609375
-127.25830078125
-130.92041015625
-132.75146484375
-131.8359375
-133.6669921875
-125.42724609375
-133.6669921875
-138.24462890625
-127.25830078125
-119.93408203125
-123.59619140625
-113.525390625
-117.1875
-126.3427734375
-117.1875
-129.08935546875
-127.25830078125
-135.498046875
-135.498046875
-132.75146484375
-130.0048828125
-128.173828125
-129.08935546875
-140.07568359375
-139.16015625
-128.173828125
-137.3291015625
-125.42724609375
-134.58251953125
-129.08935546875
-118.10302734375
-125.42724609375
-132.75146484375
-130.92041015625
-130.92041015625
-129.08935546875
-123.59619140625
-135.498046875
-150.146484375
-148.3154296875
-134.58251953125
-136.41357421875
-131.8359375
-129.08935546875
-135.498046875
-135.498046875
-140.07568359375
-143.73779296875
-131.8359375
-127.25830078125
-131.8359375
-137.3291015625
-131.8359375
-124.51171875
-132.75146484375
-132.75146484375
-130.92041015625
-137.3291015625
-143.73779296875
-137.3291015625
-126.3427734375
-127.25830078125
-137.3291015625
-139.16015625
-127.25830078125
-115.3564453125
-101.62353515625
-97.0458984375
-89.7216796875
-96.13037109375
-97.0458984375
-98.876953125
-91.552734375
-97.0458984375
-97.0458984375
-92.46826171875
-101.62353515625
-103.45458984375
-108.94775390625
-109.86328125
-119.0185546875
-119.0185546875
-108.0322265625
-109.86328125
-133.6669921875
-136.41357421875
-125.42724609375
-116.27197265625
-130.0048828125
-144.6533203125
-139.16015625
-134.58251953125
-129.08935546875
-132.75146484375
-140.9912109375
-150.146484375
-152.89306640625
-151.06201171875
-148.3154296875
-152.89306640625
-144.6533203125
-136.41357421875
-147.39990234375
-151.9775390625
-145.56884765625
-140.9912109375
-131.8359375
-133.6669921875
-151.06201171875
-144.6533203125
-143.73779296875
-143.73779296875
-149.23095703125
-146.484375
-139.16015625
-132.75146484375
-131.8359375
-142.822265625
-152.89306640625
-188.5986328125
-211.48681640625
-227.05078125
-254.5166015625
-249.0234375
-211.48681640625
-182.18994140625
-141.90673828125
-65.00244140625
29.296875
148.3154296875
281.06689453125
419.3115234375
568.54248046875
747.0703125
912.78076171875
1025.390625
1094.05517578125
1120.60546875
1065.673828125
947.57080078125
789.1845703125
488.8916015625
173.9501953125
-122.6806640625
-401.0009765625
-510.8642578125
-484.31396484375
-456.84814453125
-458.67919921875
-455.9326171875
-434.87548828125
-403.74755859375
-374.45068359375
-327.7587890625
-281.982421875
-241.69921875
-218.81103515625
-191.34521484375
-170.2880859375
-149.23095703125
-124.51171875
-106.201171875
-96.13037109375
-90.63720703125
-86.0595703125
-80.56640625
-88.80615234375
-86.0595703125
-82.3974609375
-75.0732421875
-81.48193359375
-75.98876953125
-68.66455078125
-74.15771484375
-68.66455078125
-58.59375
-67.7490234375
-71.4111328125
-66.83349609375
-61.34033203125
-55.84716796875
-56.7626953125
-54.931640625
-53.1005859375
-43.02978515625
-34.7900390625
-39.36767578125
-35.70556640625
-30.21240234375
-28.38134765625
-30.21240234375
-28.38134765625
-25.634765625
-35.70556640625
-36.62109375
-24.71923828125
-16.4794921875
-9.1552734375
-10.986328125
-6.40869140625
5.4931640625
3.662109375
-2.74658203125
-0.91552734375
10.07080078125
16.4794921875
14.6484375
18.310546875
18.310546875
31.1279296875
28.38134765625
28.38134765625
24.71923828125
38.4521484375
40.283203125
37.53662109375
40.283203125
54.931640625
53.1005859375
59.50927734375
70.49560546875
74.15771484375
80.56640625
84.228515625
96.13037109375
97.96142578125
91.552734375
97.0458984375
113.525390625
130.0048828125
122.6806640625
116.27197265625
126.3427734375
136.41357421875
141.90673828125
154.72412109375
167.54150390625
174.86572265625
184.9365234375
185.85205078125
203.2470703125
213.31787109375
225.2197265625
227.05078125
240.78369140625
235.29052734375
253.60107421875
254.5166015625
263.671875
277.40478515625
286.56005859375
282.89794921875
274.658203125
293.88427734375
303.955078125
302.1240234375
303.955078125
319.51904296875
323.18115234375
312.19482421875
315.85693359375
309.4482421875
313.1103515625
332.33642578125
333.251953125
320.4345703125
309.4482421875
306.70166015625
300.29296875
303.955078125
289.306640625
282.89794921875
281.982421875
279.23583984375
265.5029296875
256.34765625
231.62841796875
215.14892578125
196.83837890625
176.69677734375
174.86572265625
163.87939453125
150.146484375
140.9912109375
126.3427734375
108.0322265625
85.14404296875
86.97509765625
76.904296875
58.59375
34.7900390625
19.22607421875
10.986328125
-5.4931640625
-13.73291015625
-17.39501953125
-16.4794921875
-21.97265625
-23.8037109375
-40.283203125
-35.70556640625
-42.1142578125
-48.52294921875
-56.7626953125
-60.4248046875
-70.49560546875
-74.15771484375
-77.81982421875
-70.49560546875
-69.580078125
-76.904296875
-71.4111328125
-75.98876953125
-75.0732421875
-66.83349609375
-85.14404296875
-87.890625
-89.7216796875
-82.3974609375
-86.97509765625
-84.228515625
-81.48193359375
-75.0732421875
-71.4111328125
-76.904296875
-77.81982421875
-73.2421875
-72.32666015625
-78.7353515625
-73.2421875
-80.56640625
-75.98876953125
-65.91796875
-67.7490234375
-70.49560546875
-68.66455078125
-81.48193359375
-85.14404296875
-75.98876953125
-71.4111328125
-71.4111328125
-72.32666015625
-76.904296875
-77.81982421875
-71.4111328125
-74.15771484375
-63.17138671875
-67.7490234375
-71.4111328125
-59.50927734375
-53.1005859375
-59.50927734375
-58.59375
-59.50927734375
-62.255859375
-60.4248046875
-56.7626953125
-67.7490234375
-67.7490234375
-58.59375
-61.34033203125
-65.00244140625
-62.255859375
-58.59375
-70.49560546875
-62.255859375
-66.83349609375
-65.00244140625
-66.83349609375
-66.83349609375
-64.0869140625
-60.4248046875
-56.7626953125
-57.67822265625
-57.67822265625
-55.84716796875
-70.49560546875
-61.34033203125
-67.7490234375
-76.904296875
-76.904296875
-79.65087890625
-72.32666015625
-79.65087890625
-74.15771484375
-62.255859375
-61.34033203125
-74.15771484375
-73.2421875
-81.48193359375
-82.3974609375
-86.97509765625
-90.63720703125
-85.14404296875
-88.80615234375
-92.46826171875
-75.0732421875
-83.31298828125
-88.80615234375
-85.14404296875
-65.00244140625
-72.32666015625
-88.80615234375
-98.876953125
-95.21484375
-86.0595703125
-97.96142578125
-97.96142578125
-90.63720703125
-88.80615234375
-84.228515625
-84.228515625
-79.65087890625
-88.80615234375
-98.876953125
-91.552734375
-98.876953125
-98.876953125
-88.80615234375
-91.552734375
-97.0458984375
-103.45458984375
-101.62353515625
-90.63720703125
-88.80615234375
-100.7080078125
-97.96142578125
-94.29931640625
-91.552734375
-87.890625
-93.3837890625
-106.201171875
-97.96142578125
-92.46826171875
-101.62353515625
-103.45458984375
-99.79248046875
-92.46826171875
-94.29931640625
-101.62353515625
-100.7080078125
-105.28564453125
-107.11669921875
-101.62353515625
-104.3701171875
-93.3837890625
-93.3837890625
-101.62353515625
-98.876953125
-97.0458984375
-87.890625
-97.96142578125
-97.0458984375
-88.80615234375
-97.0458984375
-104.3701171875
-104.3701171875
-99.79248046875
-101.62353515625
-102.5390625
-107.11669921875
-100.7080078125
-103.45458984375
-102.5390625
-97.96142578125
-108.0322265625
-102.5390625
-87.890625
-95.21484375
-90.63720703125
-93.3837890625
-89.7216796875
-88.80615234375
-89.7216796875
-93.3837890625
-108.0322265625
-103.45458984375
-96.13037109375
-103.45458984375
-100.7080078125
-96.13037109375
-99.79248046875
-102.5390625
-108.0322265625
-106.201171875
-101.62353515625
-105.28564453125
-103.45458984375
-99.79248046875
-96.13037109375
-91.552734375
-96.13037109375
-97.0458984375
-105.28564453125
-89.7216796875
-86.97509765625
-106.201171875
-113.525390625
-111.6943359375
-108.94775390625
-103.45458984375
-98.876953125
-89.7216796875
-87.890625
-99.79248046875
-92.46826171875
-104.3701171875
-100.7080078125
-101.62353515625
-108.94775390625
-104.3701171875
-94.29931640625
-97.96142578125
-93.3837890625
-94.29931640625
-98.876953125
-103.45458984375
-103.45458984375
-97.0458984375
-97.0458984375
-97.0458984375
-94.29931640625
-90.63720703125
-93.3837890625
-94.29931640625
-97.0458984375
-94.29931640625
-97.96142578125
-96.13037109375
-95.21484375
-96.13037109375
-99.79248046875
-100.7080078125
-102.5390625
-86.0595703125
-82.3974609375
-92.46826171875
-100.7080078125
-105.28564453125
-105.28564453125
-92.46826171875
-94.29931640625
-103.45458984375
-113.525390625
-108.94775390625
-102.5390625
-97.0458984375
-91.552734375
-93.3837890625
-97.0458984375
-102.5390625
-91.552734375
-84.228515625
-86.97509765625
-102.5390625
-96.13037109375
-98.876953125
-98.876953125
-91.552734375
-89.7216796875
-86.97509765625
-83.31298828125
-94.29931640625
-94.29931640625
-100.7080078125
-109.86328125
-111.6943359375
-109.86328125
-102.5390625
-89.7216796875
-97.0458984375
-103.45458984375
-104.3701171875
-86.97509765625
-80.56640625
-72.32666015625
-65.00244140625
-60.4248046875
-55.84716796875
-51.26953125
-54.931640625
-61.34033203125
-74.15771484375
-74.15771484375
-70.49560546875
-73.2421875
-80.56640625
-80.56640625
-83.31298828125
-77.81982421875
-72.32666015625
-86.0595703125
-93.3837890625
-86.0595703125
-91.552734375
-85.14404296875
-86.0595703125
-88.80615234375
-82.3974609375
-86.0595703125
-88.80615234375
-90.63720703125
-94.29931640625
-99.79248046875
-108.0322265625
-111.6943359375
-110.77880859375
-121.76513671875
-115.3564453125
-107.11669921875
-100.7080078125
-100.7080078125
-105.28564453125
-105.28564453125
-98.876953125
-92.46826171875
-112.60986328125
-117.1875
-112.60986328125
-114.44091796875
-119.0185546875
-112.60986328125
-102.5390625
-99.79248046875
-111.6943359375
-120.849609375
-121.76513671875
-136.41357421875
-153.80859375
-183.10546875
-207.82470703125
-211.48681640625
-184.02099609375
-136.41357421875
-91.552734375
-40.283203125
48.52294921875
168.45703125
281.06689453125
401.0009765625
538.330078125
721.435546875
917.3583984375
1057.43408203125
1124.267578125
1180.11474609375
1173.7060546875
1113.28125
1007.080078125
789.1845703125
467.83447265625
203.2470703125
-107.11669921875
-422.05810546875
-516.357421875
-508.11767578125
-467.83447265625
-441.2841796875
-416.56494140625
-379.0283203125
-337.82958984375
-300.29296875
-266.41845703125
-212.40234375
-170.2880859375
-143.73779296875
-108.94775390625
-92.46826171875
-77.81982421875
-70.49560546875
-65.91796875
-65.00244140625
-65.00244140625
-66.83349609375
-55.84716796875
-49.4384765625
-54.931640625
-43.9453125
-31.1279296875
-30.21240234375
-36.62109375
-44.86083984375
-57.67822265625
-43.02978515625
-28.38134765625
-21.97265625
-19.22607421875
-11.90185546875
-4.57763671875
-5.4931640625
-23.8037109375
-24.71923828125
-22.88818359375
-7.32421875
-2.74658203125
-3.662109375
-6.40869140625
-2.74658203125
2.74658203125
7.32421875
7.32421875
13.73291015625
12.8173828125
10.07080078125
7.32421875
9.1552734375
21.05712890625
18.310546875
17.39501953125
35.70556640625
37.53662109375
22.88818359375
31.1279296875
43.9453125
44.86083984375
50.35400390625
57.67822265625
44.86083984375
47.607421875
54.931640625
56.7626953125
71.4111328125
76.904296875
89.7216796875
100.7080078125
101.62353515625
97.96142578125
105.28564453125
111.6943359375
103.45458984375
92.46826171875
97.0458984375
114.44091796875
105.28564453125
117.1875
124.51171875
125.42724609375
134.58251953125
145.56884765625
152.89306640625
162.9638671875
169.37255859375
173.03466796875
174.86572265625
184.9365234375
199.5849609375
215.14892578125
215.14892578125
222.47314453125
227.96630859375
238.95263671875
251.77001953125
259.09423828125
279.23583984375
289.306640625
288.39111328125
288.39111328125
300.29296875
309.4482421875
313.1103515625
323.18115234375
324.0966796875
332.33642578125
331.4208984375
339.66064453125
347.900390625
353.3935546875
350.64697265625
356.14013671875
352.47802734375
347.900390625
344.23828125
348.81591796875
345.15380859375
349.7314453125
346.98486328125
335.0830078125
328.67431640625
321.35009765625
316.7724609375
313.1103515625
297.54638671875
281.06689453125
270.99609375
269.1650390625
263.671875
242.61474609375
233.45947265625
220.64208984375
197.75390625
182.18994140625
173.9501953125
150.146484375
135.498046875
104.3701171875
94.29931640625
101.62353515625
85.14404296875
65.91796875
54.01611328125
50.35400390625
52.18505859375
29.296875
17.39501953125
9.1552734375
4.57763671875
5.4931640625
-3.662109375
-20.1416015625
-27.4658203125
-32.958984375
-38.4521484375
-43.9453125
-46.69189453125
-41.19873046875
-42.1142578125
-48.52294921875
-44.86083984375
-63.17138671875
-81.48193359375
-63.17138671875
-43.9453125
-62.255859375
-67.7490234375
-59.50927734375
-57.67822265625
-63.17138671875
-65.91796875
-72.32666015625
-73.2421875
-80.56640625
-75.98876953125
-56.7626953125
-51.26953125
-41.19873046875
-38.4521484375
-64.0869140625
-80.56640625
-70.49560546875
-76.904296875
-85.14404296875
-72.32666015625
-82.3974609375
-74.15771484375
-63.17138671875
-72.32666015625
-75.0732421875
-67.7490234375
-65.91796875
-56.7626953125
-43.02978515625
-49.4384765625
-49.4384765625
-59.50927734375
-76.904296875
-78.7353515625
-63.17138671875
-57.67822265625
-61.34033203125
-50.35400390625
-59.50927734375
-43.9453125
-49.4384765625
-68.66455078125
-73.2421875
-60.4248046875
-51.26953125
-44.86083984375
-63.17138671875
-48.52294921875
-47.607421875
-53.1005859375
-60.4248046875
-44.86083984375
-35.70556640625
-45.7763671875
-51.26953125
-52.18505859375
-48.52294921875
-49.4384765625
-47.607421875
-34.7900390625
-31.1279296875
-51.26953125
-40.283203125
-36.62109375
-50.35400390625
-43.9453125
-38.4521484375
-53.1005859375
-51.26953125
-56.7626953125
-55.84716796875
-60.4248046875
-59.50927734375
-54.01611328125
-46.69189453125
-49.4384765625
-43.9453125
-39.36767578125
-37.53662109375
-42.1142578125
-43.02978515625
-44.86083984375
-50.35400390625
-74.15771484375
-76.904296875
-71.4111328125
-70.49560546875
-84.228515625
-75.98876953125
-66.83349609375
-66.83349609375
-56.7626953125
-70.49560546875
-80.56640625
-88.80615234375
-91.552734375
-105.28564453125
-108.0322265625
-82.3974609375
-83.31298828125
-75.98876953125
-75.98876953125
-86.97509765625
-88.80615234375
-100.7080078125
-80.56640625
-80.56640625
-89.7216796875
-85.14404296875
-87.890625
-80.56640625
-92.46826171875
-96.13037109375
-90.63720703125
-83.31298828125
-71.4111328125
-71.4111328125
-70.49560546875
-72.32666015625
-75.0732421875
-75.98876953125
-83.31298828125
-71.4111328125
-71.4111328125
-72.32666015625
-76.904296875
-90.63720703125
-89.7216796875
-86.0595703125
-90.63720703125
-86.0595703125
-88.80615234375
-100.7080078125
-85.14404296875
-89.7216796875
-92.46826171875
-90.63720703125
-92.46826171875
-86.0595703125
-93.3837890625
-84.228515625
-83.31298828125
-57.67822265625
-75.0732421875
-98.876953125
-102.5390625
-101.62353515625
-97.0458984375
-96.13037109375
-90.63720703125
-101.62353515625
-100.7080078125
-90.63720703125
-85.14404296875
-85.14404296875
-86.0595703125
-76.904296875
-76.904296875
-95.21484375
-94.29931640625
-84.228515625
-80.56640625
-83.31298828125
-85.14404296875
-87.890625
-73.2421875
-82.3974609375
-86.97509765625
-90.63720703125
-79.65087890625
-94.29931640625
-96.13037109375
-120.849609375
-129.08935546875
-125.42724609375
-113.525390625
-95.21484375
-75.98876953125
-81.48193359375
-97.0458984375
-92.46826171875
-83.31298828125
-79.65087890625
-91.552734375
-68.66455078125
-48.52294921875
-62.255859375
-80.56640625
-85.14404296875
-106.201171875
-111.6943359375
-102.5390625
-91.552734375
-79.65087890625
-68.66455078125
-75.98876953125
-84.228515625
-62.255859375
-85.14404296875
-99.79248046875
-98.876953125
-100.7080078125
-100.7080078125
-108.0322265625
-88.80615234375
-95.21484375
-101.62353515625
-88.80615234375
-87.890625
-89.7216796875
-90.63720703125
-86.97509765625
-75.0732421875
-86.0595703125
-96.13037109375
-94.29931640625
-100.7080078125
-85.14404296875
-103.45458984375
-105.28564453125
-123.59619140625
-112.60986328125
-97.96142578125
-81.48193359375
-80.56640625
-80.56640625
-94.29931640625
-90.63720703125
-86.97509765625
-87.890625
-98.876953125
-97.96142578125
-116.27197265625
-108.0322265625
-116.27197265625
-107.11669921875
-106.201171875
-87.890625
-90.63720703125
-81.48193359375
-76.904296875
-79.65087890625
-89.7216796875
-86.97509765625
-81.48193359375
-94.29931640625
-92.46826171875
-95.21484375
-99.79248046875
-97.0458984375
-98.876953125
-97.0458984375
-82.3974609375
-70.49560546875
-74.15771484375
-74.15771484375
-71.4111328125
-79.65087890625
-98.876953125
-101.62353515625
-93.3837890625
-104.3701171875
-104.3701171875
-93.3837890625
-99.79248046875
-103.45458984375
-109.86328125
-96.13037109375
-103.45458984375
-94.29931640625
-52.18505859375
-75.98876953125
-97.96142578125
-93.3837890625
-100.7080078125
-99.79248046875
-114.44091796875
-103.45458984375
-103.45458984375
-110.77880859375
-92.46826171875
-85.14404296875
-81.48193359375
-70.49560546875
-55.84716796875
-56.7626953125
-63.17138671875
-64.0869140625
-48.52294921875
-61.34033203125
-72.32666015625
-57.67822265625
-49.4384765625
-62.255859375
-107.11669921875
-117.1875
-112.60986328125
-99.79248046875
-93.3837890625
-106.201171875
-104.3701171875
-89.7216796875
-96.13037109375
-97.96142578125
-75.98876953125
-72.32666015625
-83.31298828125
-90.63720703125
-107.11669921875
-108.94775390625
-119.0185546875
-108.0322265625
-102.5390625
-111.6943359375
-124.51171875
-148.3154296875
-141.90673828125
-106.201171875
-88.80615234375
-102.5390625
-104.3701171875
-86.0595703125
-98.876953125
-86.0595703125
-78.7353515625
-104.3701171875
-107.11669921875
-99.79248046875
-102.5390625
-116.27197265625
-145.56884765625
-149.23095703125
-143.73779296875
-129.08935546875
-151.9775390625
-150.146484375
-151.06201171875
-169.37255859375
-183.10546875
-194.091796875
-175.78125
-129.08935546875
-86.0595703125
-33.87451171875
65.91796875
194.091796875
319.51904296875
445.86181640625
578.61328125
735.16845703125
924.6826171875
1064.75830078125
1110.53466796875
1162.7197265625
1180.11474609375
1110.53466796875
963.134765625
781.8603515625
522.76611328125
228.8818359375
-83.31298828125
-454.1015625
-575.86669921875
-556.640625
-509.94873046875
-484.31396484375
-453.18603515625
-390.93017578125
-336.9140625
-283.8134765625
-228.8818359375
-179.443359375
-140.9912109375
-128.173828125
-99.79248046875
-76.904296875
-58.59375
-46.69189453125
-67.7490234375
-56.7626953125
-59.50927734375
-74.15771484375
-70.49560546875
-54.01611328125
-60.4248046875
-48.52294921875
-35.70556640625
-35.70556640625
-63.17138671875
-78.7353515625
-76.904296875
-65.91796875
-41.19873046875
-43.02978515625
-68.66455078125
-43.9453125
-20.1416015625
-30.21240234375
-56.7626953125
-54.01611328125
-42.1142578125
-54.01611328125
-42.1142578125
-36.62109375
-46.69189453125
-33.87451171875
22.88818359375
26.55029296875
-2.74658203125
-21.97265625
-30.21240234375
-28.38134765625
-5.4931640625
-10.07080078125
-32.958984375
-41.19873046875
-25.634765625
10.07080078125
10.986328125
0
-2.74658203125
26.55029296875
29.296875
26.55029296875
30.21240234375
16.4794921875
0.91552734375
23.8037109375
59.50927734375
75.0732421875
65.00244140625
41.19873046875
21.97265625
27.4658203125
30.21240234375
28.38134765625
46.69189453125
61.34033203125
82.3974609375
62.255859375
67.7490234375
73.2421875
94.29931640625
108.0322265625
119.93408203125
119.93408203125
97.0458984375
90.63720703125
113.525390625
107.11669921875
111.6943359375
123.59619140625
133.6669921875
155.6396484375
162.04833984375
160.21728515625
180.35888671875
193.17626953125
195.9228515625
243.5302734375
263.671875
281.06689453125
276.4892578125
244.44580078125
214.2333984375
226.13525390625
225.2197265625
243.5302734375
248.10791015625
277.40478515625
277.40478515625
282.89794921875
287.4755859375
298.4619140625
303.03955078125
304.87060546875
303.03955078125
303.955078125
325.927734375
314.94140625
331.4208984375
326.84326171875
307.6171875
311.279296875
306.70166015625
303.955078125
291.1376953125
285.64453125
265.5029296875
256.34765625
258.1787109375
264.58740234375
225.2197265625
194.091796875
195.9228515625
173.03466796875
149.23095703125
138.24462890625
119.93408203125
97.96142578125
97.96142578125
92.46826171875
86.97509765625
47.607421875
18.310546875
12.8173828125
3.662109375
-8.23974609375
-5.4931640625
-21.05712890625
-45.7763671875
-61.34033203125
-70.49560546875
-68.66455078125
-66.83349609375
-84.228515625
-97.0458984375
-78.7353515625
-70.49560546875
-86.0595703125
-102.5390625
-114.44091796875
-108.94775390625
-117.1875
-118.10302734375
-114.44091796875
-131.8359375
-149.23095703125
-140.07568359375
-125.42724609375
-115.3564453125
-144.6533203125
-140.07568359375
-130.0048828125
-140.07568359375
-145.56884765625
-159.3017578125
-184.9365234375
-177.6123046875
-148.3154296875
-130.0048828125
-127.25830078125
-102.5390625
-125.42724609375
-152.89306640625
-161.1328125
-137.3291015625
-127.25830078125
-115.3564453125
-116.27197265625
-135.498046875
-147.39990234375
-148.3154296875
-121.76513671875
-128.173828125
-126.3427734375
-146.484375
-146.484375
-154.72412109375
-164.794921875
-145.56884765625
-129.08935546875
-126.3427734375
-132.75146484375
-119.93408203125
-126.3427734375
-128.173828125
-128.173828125
-131.8359375
-114.44091796875
-82.3974609375
-90.63720703125
-130.0048828125
-136.41357421875
-115.3564453125
-118.10302734375
-140.9912109375
-153.80859375
-136.41357421875
-124.51171875
-115.3564453125
-108.0322265625
-95.21484375
-100.7080078125
-114.44091796875
-138.24462890625
-126.3427734375
-119.0185546875
-106.201171875
-120.849609375
-153.80859375
-160.21728515625
-144.6533203125
-140.07568359375
-110.77880859375
-97.0458984375
-90.63720703125
-113.525390625
-125.42724609375
-118.10302734375
-105.28564453125
-107.11669921875
-110.77880859375
-123.59619140625
-147.39990234375
-141.90673828125
-135.498046875
-136.41357421875
-127.25830078125
-101.62353515625
-110.77880859375
-120.849609375
-121.76513671875
-138.24462890625
-148.3154296875
-145.56884765625
-131.8359375
-129.08935546875
-118.10302734375
-128.173828125
-137.3291015625
-130.0048828125
-144.6533203125
-151.9775390625
-151.9775390625
-147.39990234375
-148.3154296875
-149.23095703125
-130.0048828125
-129.08935546875
-130.92041015625
-126.3427734375
-114.44091796875
-121.76513671875
-126.3427734375
-144.6533203125
-146.484375
-133.6669921875
-136.41357421875
-125.42724609375
-135.498046875
-126.3427734375
-138.24462890625
-165.71044921875
-163.87939453125
-155.6396484375
-161.1328125
-162.04833984375
-153.80859375
-145.56884765625
-163.87939453125
-164.794921875
-136.41357421875
-135.498046875
-119.0185546875
-104.3701171875
-129.08935546875
-135.498046875
-151.9775390625
-150.146484375
-143.73779296875
-130.92041015625
-135.498046875
-154.72412109375
-139.16015625
-150.146484375
-159.3017578125
-148.3154296875
-140.9912109375
-117.1875
-140.07568359375
-136.41357421875
-130.0048828125
-133.6669921875
-130.0048828125
-135.498046875
-127.25830078125
-129.08935546875
-139.16015625
-143.73779296875
-136.41357421875
-131.8359375
-133.6669921875
-129.08935546875
-147.39990234375
-156.55517578125
-155.6396484375
-146.484375
-132.75146484375
-115.3564453125
-138.24462890625
-139.16015625
-137.3291015625
-129.08935546875
-132.75146484375
-130.0048828125
-130.0048828125
-147.39990234375
-163.87939453125
-162.9638671875
-149.23095703125
-125.42724609375
-130.0048828125
-126.3427734375
-128.173828125
-130.0048828125
-147.39990234375
-137.3291015625
-143.73779296875
-145.56884765625
-140.07568359375
-136.41357421875
-133.6669921875
-126.3427734375
-160.21728515625
-166.6259765625
-144.6533203125
-135.498046875
-128.173828125
-119.93408203125
-108.94775390625
-118.10302734375
-135.498046875
-143.73779296875
-143.73779296875
-140.9912109375
-142.822265625
-136.41357421875
-144.6533203125
-126.3427734375
-115.3564453125
-107.11669921875
-130.92041015625
-129.08935546875
-125.42724609375
-121.76513671875
-124.51171875
-123.59619140625
-108.94775390625
-120.849609375
-138.24462890625
-138.24462890625
-129.08935546875
-121.76513671875
-140.9912109375
-138.24462890625
-136.41357421875
-123.59619140625
-119.93408203125
-110.77880859375
-116.27197265625
-120.849609375
-145.56884765625
-140.9912109375
-129.08935546875
-130.0048828125
-103.45458984375
-103.45458984375
-128.173828125
-132.75146484375
-133.6669921875
-120.849609375
-131.8359375
-125.42724609375
-119.0185546875
-118.10302734375
-111.6943359375
-122.6806640625
-129.08935546875
-130.0048828125
-132.75146484375
-117.1875
-101.62353515625
-100.7080078125
-98.876953125
-105.28564453125
-103.45458984375
-100.7080078125
-97.0458984375
-102.5390625
-102.5390625
-104.3701171875
-88.80615234375
-101.62353515625
-105.28564453125
-99.79248046875
-86.97509765625
-62.255859375
-69.580078125
-78.7353515625
-81.48193359375
-84.228515625
-75.0732421875
-77.81982421875
-82.3974609375
-83.31298828125
-89.7216796875
-102.5390625
-97.96142578125
-87.890625
-87.890625
-89.7216796875
-83.31298828125
-82.3974609375
-116.27197265625
-126.3427734375
-124.51171875
-108.94775390625
-97.0458984375
-94.29931640625
-106.201171875
-102.5390625
-112.60986328125
-112.60986328125
-105.28564453125
-110.77880859375
-119.0185546875
-107.11669921875
-108.0322265625
-120.849609375
-119.93408203125
-132.75146484375
-130.0048828125
-129.08935546875
-144.6533203125
-137.3291015625
-127.25830078125
-121.76513671875
-116.27197265625
-128.173828125
-128.173828125
-119.93408203125
-118.10302734375
-121.76513671875
-108.94775390625
-109.86328125
-143.73779296875
-146.484375
-157.470703125
-177.6123046875
-189.51416015625
-210.5712890625
-218.81103515625
-193.17626953125
-154.72412109375
-111.6943359375
-80.56640625
-10.986328125
98.876953125
215.14892578125
324.0966796875
443.115234375
616.14990234375
840.4541015625
1017.15087890625
1122.4365234375
1178.28369140625
1192.93212890625
1122.4365234375
988.76953125
779.11376953125
490.72265625
226.13525390625
-44.86083984375
-377.197265625
-519.10400390625
-529.1748046875
-504.45556640625
-468.75
-435.791015625
-372.61962890625
-326.84326171875
-305.7861328125
-256.34765625
-216.97998046875
-174.86572265625
-136.41357421875
-108.0322265625
-94.29931640625
-89.7216796875
-85.14404296875
-79.65087890625
-86.0595703125
-86.97509765625
-90.63720703125
-86.0595703125
-87.890625
-75.0732421875
-65.91796875
-48.52294921875
-56.7626953125
-59.50927734375
-49.4384765625
-46.69189453125
-42.1142578125
-49.4384765625
-48.52294921875
-42.1142578125
-45.7763671875
-32.04345703125
-35.70556640625
-59.50927734375
-41.19873046875
-31.1279296875
-33.87451171875
-32.04345703125
-36.62109375
-41.19873046875
-41.19873046875
-42.1142578125
-37.53662109375
-36.62109375
-8.23974609375
-10.07080078125
-15.56396484375
-8.23974609375
-6.40869140625
-3.662109375
1.8310546875
-10.986328125
-10.986328125
10.07080078125
20.1416015625
13.73291015625
25.634765625
30.21240234375
38.4521484375
14.6484375
30.21240234375
32.958984375
36.62109375
40.283203125
40.283203125
37.53662109375
56.7626953125
61.34033203125
60.4248046875
65.00244140625
81.48193359375
90.63720703125
105.28564453125
108.94775390625
86.97509765625
92.46826171875
98.876953125
97.96142578125
108.94775390625
109.86328125
123.59619140625
140.07568359375
140.9912109375
140.07568359375
128.173828125
151.06201171875
177.6123046875
174.86572265625
195.9228515625
195.00732421875
193.17626953125
215.14892578125
213.31787109375
205.078125
232.5439453125
251.77001953125
233.45947265625
248.10791015625
281.06689453125
292.96875
281.982421875
279.23583984375
298.4619140625
290.22216796875
324.0966796875
340.576171875
334.16748046875
314.02587890625
303.03955078125
324.0966796875
344.23828125
329.58984375
316.7724609375
328.67431640625
329.58984375
325.01220703125
330.50537109375
335.99853515625
347.900390625
355.224609375
332.33642578125
330.50537109375
313.1103515625
309.4482421875
293.88427734375
287.4755859375
276.4892578125
260.009765625
230.712890625
235.29052734375
238.037109375
197.75390625
180.35888671875
169.37255859375
153.80859375
155.6396484375
151.06201171875
129.08935546875
103.45458984375
81.48193359375
47.607421875
42.1142578125
36.62109375
57.67822265625
57.67822265625
38.4521484375
26.55029296875
-0.91552734375
-18.310546875
-10.986328125
-8.23974609375
-14.6484375
-29.296875
-20.1416015625
-26.55029296875
-32.958984375
-46.69189453125
-57.67822265625
-53.1005859375
-52.18505859375
-54.01611328125
-61.34033203125
-66.83349609375
-77.81982421875
-79.65087890625
-66.83349609375
-44.86083984375
-54.931640625
-68.66455078125
-52.18505859375
-39.36767578125
-29.296875
-48.52294921875
-62.255859375
-62.255859375
-74.15771484375
-80.56640625
-65.00244140625
-51.26953125
-43.02978515625
-52.18505859375
-69.580078125
-55.84716796875
-63.17138671875
-48.52294921875
-51.26953125
-73.2421875
-65.00244140625
-59.50927734375
-46.69189453125
-39.36767578125
-48.52294921875
-49.4384765625
-36.62109375
-47.607421875
-62.255859375
-47.607421875
-46.69189453125
-42.1142578125
-36.62109375
-31.1279296875
-31.1279296875
-51.26953125
-38.4521484375
-46.69189453125
-43.9453125
-54.01611328125
-55.84716796875
-55.84716796875
-54.01611328125
-45.7763671875
-42.1142578125
-34.7900390625
-35.70556640625
-27.4658203125
-35.70556640625
-40.283203125
-58.59375
-52.18505859375
-40.283203125
-43.9453125
-29.296875
-38.4521484375
-31.1279296875
-42.1142578125
-24.71923828125
-12.8173828125
-29.296875
-30.21240234375
-43.9453125
-63.17138671875
-59.50927734375
-58.59375
-42.1142578125
-36.62109375
-31.1279296875
-38.4521484375
-45.7763671875
-50.35400390625
-57.67822265625
-53.1005859375
-54.931640625
-51.26953125
-45.7763671875
-51.26953125
-43.02978515625
-53.1005859375
-46.69189453125
-61.34033203125
-48.52294921875
-39.36767578125
-41.19873046875
-40.283203125
-41.19873046875
-58.59375
-52.18505859375
-43.9453125
-51.26953125
-67.7490234375
-58.59375
-55.84716796875
-79.65087890625
-85.14404296875
-75.98876953125
-66.83349609375
-59.50927734375
-53.1005859375
-64.0869140625
-75.98876953125
-67.7490234375
-56.7626953125
-73.2421875
-71.4111328125
-71.4111328125
-65.91796875
-52.18505859375
-50.35400390625
-78.7353515625
-86.97509765625
-67.7490234375
-61.34033203125
-71.4111328125
-63.17138671875
-71.4111328125
-75.0732421875
-64.0869140625
-81.48193359375
-90.63720703125
-86.97509765625
-87.890625
-86.0595703125
-76.904296875
-94.29931640625
-99.79248046875
-90.63720703125
-73.2421875
-52.18505859375
-68.66455078125
-94.29931640625
-102.5390625
-103.45458984375
-109.86328125
-107.11669921875
-97.96142578125
-97.0458984375
-83.31298828125
-77.81982421875
-89.7216796875
-71.4111328125
-73.2421875
-78.7353515625
-93.3837890625
-88.80615234375
-83.31298828125
-86.97509765625
-89.7216796875
-91.552734375
-108.0322265625
-89.7216796875
-97.0458984375
-89.7216796875
-80.56640625
-97.0458984375
-108.0322265625
-140.9912109375
-115.3564453125
-104.3701171875
-106.201171875
-97.0458984375
-99.79248046875
-99.79248046875
-86.97509765625
-88.80615234375
-87.890625
-112.60986328125
-106.201171875
-99.79248046875
-91.552734375
-89.7216796875
-92.46826171875
-95.21484375
-110.77880859375
-121.76513671875
-128.173828125
-128.173828125
-113.525390625
-100.7080078125
-101.62353515625
-97.0458984375
-103.45458984375
-118.10302734375
-104.3701171875
-94.29931640625
-109.86328125
-115.3564453125
-97.96142578125
-117.1875
-110.77880859375
-100.7080078125
-104.3701171875
-119.0185546875
-114.44091796875
-118.10302734375
-108.94775390625
-102.5390625
-107.11669921875
-113.525390625
-115.3564453125
-126.3427734375
-118.10302734375
-99.79248046875
-115.3564453125
-118.10302734375
-114.44091796875
-115.3564453125
-125.42724609375
-130.0048828125
-128.173828125
-116.27197265625
-117.1875
-117.1875
-126.3427734375
-125.42724609375
-111.6943359375
-107.11669921875
-128.173828125
-139.16015625
-108.94775390625
-116.27197265625
-113.525390625
-109.86328125
-120.849609375
-112.60986328125
-121.76513671875
-130.92041015625
-142.822265625
-130.0048828125
-131.8359375
-126.3427734375
-130.0048828125
-155.6396484375
-130.0048828125
-93.3837890625
-79.65087890625
-71.4111328125
-69.580078125
-76.904296875
-86.0595703125
-94.29931640625
-95.21484375
-106.201171875
-71.4111328125
-72.32666015625
-120.849609375
-130.0048828125
-111.6943359375
-97.0458984375
-94.29931640625
-79.65087890625
-97.0458984375
-97.96142578125
-115.3564453125
-114.44091796875
-126.3427734375
-126.3427734375
-134.58251953125
-138.24462890625
-130.92041015625
-109.86328125
-113.525390625
-120.849609375
-111.6943359375
-117.1875
-133.6669921875
-151.9775390625
-147.39990234375
-135.498046875
-137.3291015625
-135.498046875
-135.498046875
-123.59619140625
-134.58251953125
-156.55517578125
-166.6259765625
-165.71044921875
-153.80859375
-135.498046875
-135.498046875
-133.6669921875
-134.58251953125
-124.51171875
-138.24462890625
-135.498046875
-126.3427734375
-135.498046875
-151.06201171875
-151.9775390625
-165.71044921875
-216.064453125
-234.375
-242.61474609375
-195.00732421875
-161.1328125
-140.9912109375
-85.14404296875
21.05712890625
130.92041015625
260.009765625
388.18359375
554.8095703125
741.5771484375
922.8515625
1055.60302734375
1128.84521484375
1168.212890625
1094.05517578125
992.431640625
813.90380859375
515.44189453125
246.27685546875
-26.55029296875
-333.251953125
-460.51025390625
-467.83447265625
-455.9326171875
-422.9736328125
-412.90283203125
-404.6630859375
-369.873046875
-342.4072265625
-304.87060546875
-256.34765625
-228.8818359375
-188.5986328125
-162.9638671875
-129.08935546875
-115.3564453125
-105.28564453125
-96.13037109375
-85.14404296875
-88.80615234375
-95.21484375
-90.63720703125
-74.15771484375
-63.17138671875
-37.53662109375
-27.4658203125
-68.66455078125
-69.580078125
-65.00244140625
-63.17138671875
-60.4248046875
-41.19873046875
-43.9453125
-43.02978515625
-48.52294921875
-36.62109375
-38.4521484375
-32.04345703125
-32.958984375
-41.19873046875
-38.4521484375
-43.02978515625
-21.97265625
-18.310546875
-24.71923828125
-23.8037109375
-25.634765625
-10.07080078125
-9.1552734375
-5.4931640625
-26.55029296875
-23.8037109375
0.91552734375
1.8310546875
16.4794921875
8.23974609375
4.57763671875
10.07080078125
-11.90185546875
-0.91552734375
7.32421875
2.74658203125
7.32421875
16.4794921875
19.22607421875
21.97265625
32.958984375
33.87451171875
35.70556640625
38.4521484375
31.1279296875
45.7763671875
46.69189453125
48.52294921875
48.52294921875
55.84716796875
64.0869140625
59.50927734375
72.32666015625
82.3974609375
97.96142578125
103.45458984375
100.7080078125
115.3564453125
116.27197265625
114.44091796875
140.9912109375
150.146484375
162.9638671875
150.146484375
173.03466796875
175.78125
191.34521484375
195.9228515625
196.83837890625
215.14892578125
236.2060546875
233.45947265625
232.5439453125
250.8544921875
260.009765625
265.5029296875
269.1650390625
272.8271484375
284.72900390625
293.88427734375
298.4619140625
301.20849609375
322.265625
318.603515625
325.01220703125
313.1103515625
305.7861328125
305.7861328125
309.4482421875
321.35009765625
325.01220703125
325.927734375
335.0830078125
322.265625
323.18115234375
303.03955078125
345.15380859375
346.98486328125
325.927734375
301.20849609375
300.29296875
291.1376953125
275.57373046875
259.09423828125
253.60107421875
244.44580078125
228.8818359375
223.388671875
218.81103515625
187.68310546875
175.78125
147.39990234375
140.07568359375
131.8359375
121.76513671875
119.0185546875
86.0595703125
49.4384765625
35.70556640625
27.4658203125
35.70556640625
30.21240234375
15.56396484375
12.8173828125
12.8173828125
-3.662109375
-1.8310546875
-7.32421875
-12.8173828125
-14.6484375
-26.55029296875
-30.21240234375
-27.4658203125
-54.01611328125
-65.00244140625
-67.7490234375
-68.66455078125
-66.83349609375
-83.31298828125
-74.15771484375
-71.4111328125
-76.904296875
-75.0732421875
-74.15771484375
-75.98876953125
-86.97509765625
-82.3974609375
-75.0732421875
-77.81982421875
-109.86328125
-96.13037109375
-83.31298828125
-67.7490234375
-65.00244140625
-77.81982421875
-90.63720703125
-82.3974609375
-88.80615234375
-84.228515625
-83.31298828125
-95.21484375
-86.0595703125
-93.3837890625
-91.552734375
-88.80615234375
-93.3837890625
-82.3974609375
-88.80615234375
-77.81982421875
-81.48193359375
-75.98876953125
-73.2421875
-71.4111328125
-79.65087890625
-67.7490234375
-65.00244140625
-63.17138671875
-78.7353515625
-83.31298828125
-75.98876953125
-80.56640625
-83.31298828125
-74.15771484375
-71.4111328125
-67.7490234375
-59.50927734375
-56.7626953125
-73.2421875
-59.50927734375
-45.7763671875
-57.67822265625
-51.26953125
-48.52294921875
-54.931640625
-65.91796875
-68.66455078125
-75.0732421875
-67.7490234375
-64.0869140625
-77.81982421875
-86.0595703125
-84.228515625
-76.904296875
-75.0732421875
-78.7353515625
-80.56640625
-76.904296875
-67.7490234375
-53.1005859375
-50.35400390625
-65.91796875
-58.59375
-54.931640625
-48.52294921875
-54.01611328125
-68.66455078125
-69.580078125
-61.34033203125
-65.00244140625
-65.91796875
-73.2421875
-77.81982421875
-81.48193359375
-83.31298828125
-78.7353515625
-81.48193359375
-86.97509765625
-87.890625
-86.0595703125
-77.81982421875
-78.7353515625
-86.0595703125
-98.876953125
-86.0595703125
-79.65087890625
-83.31298828125
-89.7216796875
-76.904296875
-95.21484375
-92.46826171875
-93.3837890625
-87.890625
-99.79248046875
-98.876953125
-97.0458984375
-90.63720703125
-86.97509765625
-85.14404296875
-82.3974609375
-82.3974609375
-79.65087890625
-105.28564453125
-98.876953125
-90.63720703125
-83.31298828125
-84.228515625
-97.0458984375
-101.62353515625
-106.201171875
-100.7080078125
-104.3701171875
-115.3564453125
-104.3701171875
-96.13037109375
-102.5390625
-92.46826171875
-84.228515625
-91.552734375
-108.0322265625
-94.29931640625
-91.552734375
-93.3837890625
-99.79248046875
-97.0458984375
-99.79248046875
-104.3701171875
-115.3564453125
-107.11669921875
-104.3701171875
-95.21484375
-94.29931640625
-95.21484375
-92.46826171875
-90.63720703125
-103.45458984375
-118.10302734375
-119.0185546875
-141.90673828125
-130.0048828125
-117.1875
-125.42724609375
-133.6669921875
-107.11669921875
-96.13037109375
-85.14404296875
-76.904296875
-88.80615234375
-100.7080078125
-94.29931640625
-94.29931640625
-88.80615234375
-95.21484375
-94.29931640625
-97.0458984375
-94.29931640625
-88.80615234375
-98.876953125
-99.79248046875
-97.96142578125
-87.890625
-89.7216796875
-96.13037109375
-97.0458984375
-99.79248046875
-97.96142578125
-107.11669921875
-107.11669921875
-109.86328125
-109.86328125
-108.0322265625
-107.11669921875
-97.96142578125
-91.552734375
-105.28564453125
-110.77880859375
-101.62353515625
-90.63720703125
-96.13037109375
-111.6943359375
-102.5390625
-114.44091796875
-110.77880859375
-116.27197265625
-100.7080078125
-90.63720703125
-86.97509765625
-93.3837890625
-119.0185546875
-143.73779296875
-139.16015625
-122.6806640625
-124.51171875
-137.3291015625
-108.0322265625
-87.890625
-79.65087890625
-91.552734375
-111.6943359375
-108.94775390625
-126.3427734375
-119.93408203125
-106.201171875
-102.5390625
-114.44091796875
-108.94775390625
-113.525390625
-137.3291015625
-140.9912109375
-117.1875
-98.876953125
-82.3974609375
-69.580078125
-70.49560546875
-75.0732421875
-66.83349609375
-67.7490234375
-86.0595703125
-95.21484375
-82.3974609375
-75.0732421875
-100.7080078125
-109.86328125
-110.77880859375
-120.849609375
-119.93408203125
-110.77880859375
-108.94775390625
-106.201171875
-121.76513671875
-118.10302734375
-130.0048828125
-142.822265625
-119.93408203125
-116.27197265625
-132.75146484375
-119.93408203125
-120.849609375
-126.3427734375
-136.41357421875
-138.24462890625
-148.3154296875
-145.56884765625
-145.56884765625
-158.38623046875
-157.470703125
-130.92041015625
-132.75146484375
-140.07568359375
-140.07568359375
-145.56884765625
-144.6533203125
-141.90673828125
-148.3154296875
-153.80859375
-145.56884765625
-142.822265625
-147.39990234375
-154.72412109375
-157.470703125
-150.146484375
-144.6533203125
-160.21728515625
-163.87939453125
-189.51416015625
-207.82470703125
-227.05078125
-274.658203125
-272.8271484375
-220.64208984375
-180.35888671875
-147.39990234375
-88.80615234375
-13.73291015625
98.876953125
241.69921875
383.60595703125
528.25927734375
707.70263671875
883.48388671875
1016.2353515625
1086.73095703125
1120.60546875
1087.646484375
963.134765625
785.5224609375
507.2021484375
213.31787109375
-70.49560546875
-376.28173828125
-510.8642578125
-504.45556640625
-477.9052734375
-466.9189453125
-466.9189453125
-448.6083984375
-406.494140625
-379.0283203125
-345.15380859375
-303.955078125
-267.333984375
-232.5439453125
-215.14892578125
-182.18994140625
-167.54150390625
-142.822265625
-126.3427734375
-119.0185546875
-119.93408203125
-119.0185546875
-110.77880859375
-95.21484375
-88.80615234375
-100.7080078125
-114.44091796875
-91.552734375
-105.28564453125
-97.0458984375
-94.29931640625
-82.3974609375
-83.31298828125
-68.66455078125
-62.255859375
-67.7490234375
-63.17138671875
-71.4111328125
-78.7353515625
-73.2421875
-85.14404296875
-76.904296875
-53.1005859375
-60.4248046875
-60.4248046875
-51.26953125
-46.69189453125
-50.35400390625
-51.26953125
-47.607421875
-54.931640625
-54.01611328125
-55.84716796875
-54.01611328125
-44.86083984375
-19.22607421875
6.40869140625
-19.22607421875
-32.04345703125
-22.88818359375
-22.88818359375
-22.88818359375
-12.8173828125
-6.40869140625
-6.40869140625
-3.662109375
7.32421875
11.90185546875
17.39501953125
25.634765625
16.4794921875
21.97265625
42.1142578125
49.4384765625
55.84716796875
32.958984375
33.87451171875
35.70556640625
56.7626953125
49.4384765625
54.01611328125
67.7490234375
72.32666015625
70.49560546875
72.32666015625
79.65087890625
84.228515625
101.62353515625
108.0322265625
103.45458984375
118.10302734375
132.75146484375
163.87939453125
169.37255859375
190.4296875
195.00732421875
189.51416015625
182.18994140625
193.17626953125
200.50048828125
223.388671875
224.30419921875
232.5439453125
239.8681640625
241.69921875
253.60107421875
259.09423828125
270.08056640625
268.24951171875
285.64453125
292.96875
292.05322265625
304.87060546875
303.955078125
297.54638671875
302.1240234375
300.29296875
294.7998046875
306.70166015625
304.87060546875
300.29296875
311.279296875
288.39111328125
288.39111328125
275.57373046875
270.08056640625
271.91162109375
280.1513671875
265.5029296875
249.0234375
237.12158203125
222.47314453125
215.14892578125
191.34521484375
172.119140625
170.2880859375
155.6396484375
129.08935546875
119.93408203125
114.44091796875
102.5390625
86.97509765625
61.34033203125
60.4248046875
51.26953125
43.9453125
32.958984375
6.40869140625
-21.97265625
-24.71923828125
-32.958984375
-44.86083984375
-46.69189453125
-55.84716796875
-64.0869140625
-73.2421875
-75.98876953125
-78.7353515625
-78.7353515625
-87.890625
-100.7080078125
-115.3564453125
-112.60986328125
-93.3837890625
-100.7080078125
-102.5390625
-96.13037109375
-118.10302734375
-117.1875
-113.525390625
-106.201171875
-106.201171875
-109.86328125
-111.6943359375
-119.93408203125
-119.93408203125
-120.849609375
-108.94775390625
-117.1875
-133.6669921875
-108.94775390625
-101.62353515625
-107.11669921875
-118.10302734375
-128.173828125
-130.0048828125
-132.75146484375
-131.8359375
-113.525390625
-112.60986328125
-122.6806640625
-105.28564453125
-102.5390625
-107.11669921875
-95.21484375
-103.45458984375
-104.3701171875
-96.13037109375
-97.96142578125
-103.45458984375
-88.80615234375
-96.13037109375
-114.44091796875
-97.96142578125
-118.10302734375
-98.876953125
-87.890625
-95.21484375
-98.876953125
-91.552734375
-93.3837890625
-102.5390625
-100.7080078125
-107.11669921875
-97.96142578125
-99.79248046875
-98.876953125
-106.201171875
-111.6943359375
-80.56640625
-63.17138671875
-101.62353515625
-103.45458984375
-102.5390625
-100.7080078125
-98.876953125
-94.29931640625
-96.13037109375
-101.62353515625
-86.97509765625
-94.29931640625
-105.28564453125
-112.60986328125
-108.94775390625
-105.28564453125
-94.29931640625
-89.7216796875
-114.44091796875
-121.76513671875
-124.51171875
-118.10302734375
-119.93408203125
-112.60986328125
-121.76513671875
-124.51171875
-111.6943359375
-108.0322265625
-121.76513671875
-130.92041015625
-115.3564453125
-122.6806640625
-103.45458984375
-127.25830078125
-152.89306640625
-130.0048828125
-120.849609375
-139.16015625
-127.25830078125
-129.08935546875
-119.0185546875
-112.60986328125
-126.3427734375
-140.9912109375
-151.9775390625
-137.3291015625
-134.58251953125
-135.498046875
-131.8359375
-134.58251953125
-136.41357421875
-135.498046875
-139.16015625
-137.3291015625
-128.173828125
-141.90673828125
-148.3154296875
-142.822265625
-134.58251953125
-151.9775390625
-163.87939453125
-154.72412109375
-152.89306640625
-147.39990234375
-156.55517578125
-149.23095703125
-146.484375
-148.3154296875
-141.90673828125
-153.80859375
-155.6396484375
-144.6533203125
-148.3154296875
-141.90673828125
-159.3017578125
-169.37255859375
-156.55517578125
-156.55517578125
-148.3154296875
-139.16015625
-149.23095703125
-162.9638671875
-157.470703125
-173.9501953125
-174.86572265625
-157.470703125
-158.38623046875
-165.71044921875
-165.71044921875
-152.89306640625
-164.794921875
-164.794921875
-156.55517578125
-166.6259765625
-165.71044921875
-153.80859375
-151.9775390625
-145.56884765625
-146.484375
-166.6259765625
-161.1328125
-168.45703125
-169.37255859375
-168.45703125
-166.6259765625
-164.794921875
-170.2880859375
-161.1328125
-159.3017578125
-151.06201171875
-136.41357421875
-156.55517578125
-155.6396484375
-146.484375
-160.21728515625
-153.80859375
-164.794921875
-165.71044921875
-162.04833984375
-155.6396484375
-155.6396484375
-162.04833984375
-157.470703125
-153.80859375
-159.3017578125
-164.794921875
-168.45703125
-156.55517578125
-181.2744140625
-181.2744140625
-172.119140625
-162.9638671875
-172.119140625
-163.87939453125
-154.72412109375
-164.794921875
-163.87939453125
-162.9638671875
-166.6259765625
-159.3017578125
-129.08935546875
-117.1875
-128.173828125
-127.25830078125
-133.6669921875
-132.75146484375
-125.42724609375
-130.0048828125
-116.27197265625
-122.6806640625
-133.6669921875
-143.73779296875
-141.90673828125
-146.484375
-147.39990234375
-145.56884765625
-139.16015625
-147.39990234375
-147.39990234375
-155.6396484375
-160.21728515625
-158.38623046875
-157.470703125
-162.9638671875
-172.119140625
-179.443359375
-159.3017578125
-158.38623046875
-164.794921875
-151.9775390625
-168.45703125
-170.2880859375
-164.794921875
-164.794921875
-173.03466796875
-162.9638671875
-169.37255859375
-174.86572265625
-177.6123046875
-177.6123046875
-166.6259765625
-154.72412109375
-147.39990234375
-159.3017578125
-158.38623046875
-163.87939453125
-158.38623046875
-161.1328125
-157.470703125
-169.37255859375
-174.86572265625
-165.71044921875
-176.69677734375
-211.48681640625
-238.95263671875
-268.24951171875
-286.56005859375
-285.64453125
-238.95263671875
-193.17626953125
-148.3154296875
-86.0595703125
11.90185546875
133.6669921875
273.74267578125
412.90283203125
570.37353515625
757.14111328125
935.6689453125
1055.60302734375
1125.18310546875
1164.55078125
1079.40673828125
960.38818359375
802.91748046875
518.1884765625
196.83837890625
-115.3564453125
-413.818359375
-517.27294921875
-498.96240234375
-472.412109375
-469.66552734375
-471.49658203125
-455.9326171875
-415.6494140625
-380.859375
-346.98486328125
-300.29296875
-260.92529296875
-228.8818359375
-221.5576171875
-191.34521484375
-159.3017578125
-141.90673828125
-133.6669921875
-122.6806640625
-110.77880859375
-117.1875
-116.27197265625
-98.876953125
-103.45458984375
-110.77880859375
-93.3837890625
-77.81982421875
-80.56640625
-79.65087890625
-84.228515625
-76.904296875
-75.0732421875
-68.66455078125
-67.7490234375
-66.83349609375
-62.255859375
-57.67822265625
-58.59375
-48.52294921875
-49.4384765625
-56.7626953125
-46.69189453125
-24.71923828125
-46.69189453125
-51.26953125
-60.4248046875
-45.7763671875
-22.88818359375
-36.62109375
-36.62109375
-29.296875
-21.97265625
-19.22607421875
-21.97265625
-26.55029296875
-36.62109375
-28.38134765625
-19.22607421875
-21.97265625
-22.88818359375
-12.8173828125
1.8310546875
19.22607421875
19.22607421875
32.958984375
30.21240234375
33.87451171875
50.35400390625
43.9453125
39.36767578125
37.53662109375
32.04345703125
34.7900390625
39.36767578125
45.7763671875
60.4248046875
61.34033203125
70.49560546875
86.0595703125
86.97509765625
93.3837890625
91.552734375
99.79248046875
102.5390625
114.44091796875
119.93408203125
124.51171875
145.56884765625
138.24462890625
132.75146484375
130.92041015625
164.794921875
184.02099609375
178.52783203125
199.5849609375
214.2333984375
221.5576171875
230.712890625
233.45947265625
237.12158203125
260.92529296875
271.91162109375
267.333984375
276.4892578125
289.306640625
292.96875
299.37744140625
311.279296875
314.02587890625
324.0966796875
316.7724609375
305.7861328125
298.4619140625
293.88427734375
310.36376953125
314.02587890625
311.279296875
322.265625
341.49169921875
344.23828125
315.85693359375
288.39111328125
298.4619140625
306.70166015625
297.54638671875
291.1376953125
275.57373046875
263.671875
268.24951171875
254.5166015625
240.78369140625
234.375
231.62841796875
209.65576171875
191.34521484375
190.4296875
171.20361328125
151.9775390625
135.498046875
126.3427734375
104.3701171875
75.0732421875
49.4384765625
31.1279296875
35.70556640625
26.55029296875
7.32421875
5.4931640625
-17.39501953125
-25.634765625
-37.53662109375
-39.36767578125
-42.1142578125
-43.9453125
-40.283203125
-54.01611328125
-60.4248046875
-47.607421875
-75.98876953125
-77.81982421875
-67.7490234375
-76.904296875
-86.97509765625
-75.0732421875
-81.48193359375
-105.28564453125
-98.876953125
-99.79248046875
-105.28564453125
-101.62353515625
-98.876953125
-97.0458984375
-104.3701171875
-94.29931640625
-101.62353515625
-106.201171875
-113.525390625
-112.60986328125
-118.10302734375
-106.201171875
-91.552734375
-107.11669921875
-116.27197265625
-109.86328125
-97.96142578125
-95.21484375
-80.56640625
-69.580078125
-84.228515625
-79.65087890625
-94.29931640625
-90.63720703125
-91.552734375
-86.97509765625
-86.97509765625
-97.96142578125
-105.28564453125
-75.0732421875
-90.63720703125
-101.62353515625
-88.80615234375
-86.0595703125
-83.31298828125
-75.0732421875
-83.31298828125
-87.890625
-84.228515625
-96.13037109375
-81.48193359375
-77.81982421875
-100.7080078125
-102.5390625
-93.3837890625
-87.890625
-81.48193359375
-78.7353515625
-83.31298828125
-87.890625
-82.3974609375
-71.4111328125
-74.15771484375
-79.65087890625
-75.0732421875
-83.31298828125
-103.45458984375
-103.45458984375
-102.5390625
-93.3837890625
-93.3837890625
-103.45458984375
-75.0732421875
-92.46826171875
-92.46826171875
-105.28564453125
-107.11669921875
-97.0458984375
-86.97509765625
-96.13037109375
-109.86328125
-97.96142578125
-91.552734375
-103.45458984375
-108.94775390625
-105.28564453125
-103.45458984375
-84.228515625
-92.46826171875
-87.890625
-96.13037109375
-91.552734375
-88.80615234375
-102.5390625
-98.876953125
-93.3837890625
-87.890625
-94.29931640625
-102.5390625
-103.45458984375
-105.28564453125
-98.876953125
-90.63720703125
-107.11669921875
-112.60986328125
-100.7080078125
-105.28564453125
-111.6943359375
-120.849609375
-123.59619140625
-112.60986328125
-119.0185546875
-118.10302734375
-111.6943359375
-120.849609375
-124.51171875
-110.77880859375
-98.876953125
-97.0458984375
-112.60986328125
-119.93408203125
-126.3427734375
-135.498046875
-129.08935546875
-105.28564453125
-108.0322265625
-119.0185546875
-124.51171875
-119.93408203125
-120.849609375
-126.3427734375
-124.51171875
-119.93408203125
-100.7080078125
-132.75146484375
-119.93408203125
-119.0185546875
-118.10302734375
-118.10302734375
-106.201171875
-97.96142578125
-94.29931640625
-113.525390625
-119.0185546875
-112.60986328125
-94.29931640625
-86.97509765625
-86.0595703125
-74.15771484375
-80.56640625
-77.81982421875
-70.49560546875
-67.7490234375
-73.2421875
-63.17138671875
-50.35400390625
-59.50927734375
-75.0732421875
-63.17138671875
-73.2421875
-78.7353515625
-80.56640625
-69.580078125
-66.83349609375
-78.7353515625
-86.0595703125
-86.97509765625
-76.904296875
-61.34033203125
-73.2421875
-74.15771484375
-50.35400390625
-33.87451171875
-47.607421875
-54.931640625
-57.67822265625
-59.50927734375
-65.00244140625
-54.931640625
-53.1005859375
-65.91796875
-65.91796875
-70.49560546875
-94.29931640625
-97.96142578125
-102.5390625
-101.62353515625
-117.1875
-114.44091796875
-114.44091796875
-129.08935546875
-130.0048828125
-138.24462890625
-146.484375
-132.75146484375
-130.0048828125
-134.58251953125
-141.90673828125
-146.484375
-152.89306640625
-138.24462890625
-130.0048828125
-131.8359375
-135.498046875
-131.8359375
-133.6669921875
-141.90673828125
-134.58251953125
-126.3427734375
-128.173828125
-130.92041015625
-132.75146484375
-131.8359375
-129.08935546875
-141.90673828125
-134.58251953125
-131.8359375
-131.8359375
-131.8359375
-143.73779296875
-159.3017578125
-185.85205078125
-203.2470703125
-216.97998046875
-235.29052734375
-227.05078125
-180.35888671875
-132.75146484375
-96.13037109375
-43.02978515625
57.67822265625
182.18994140625
314.02587890625
453.18603515625
618.896484375
808.41064453125
975.9521484375
1079.40673828125
1147.15576171875
1188.3544921875
1163.63525390625
1078.4912109375
934.75341796875
671.9970703125
392.76123046875
113.525390625
-249.0234375
-487.97607421875
-520.93505859375
-497.13134765625
-464.17236328125
-466.9189453125
-436.70654296875
-398.25439453125
-350.64697265625
-303.955078125
-241.69921875
-226.13525390625
-196.83837890625
-161.1328125
-130.0048828125
-119.0185546875
-113.525390625
-103.45458984375
-104.3701171875
-97.0458984375
-86.97509765625
-86.0595703125
-108.94775390625
-104.3701171875
-86.0595703125
-73.2421875
-75.0732421875
-67.7490234375
-45.7763671875
-43.02978515625
-100.7080078125
-103.45458984375
-64.0869140625
-65.00244140625
-64.0869140625
-63.17138671875
-64.0869140625
-47.607421875
-50.35400390625
-56.7626953125
-61.34033203125
-61.34033203125
-38.4521484375
-35.70556640625
-27.4658203125
-21.97265625
-21.05712890625
-25.634765625
-30.21240234375
-20.1416015625
-17.39501953125
-23.8037109375
-24.71923828125
-18.310546875
-12.8173828125
-5.4931640625
15.56396484375
17.39501953125
-20.1416015625
-9.1552734375
7.32421875
6.40869140625
10.986328125
14.6484375
17.39501953125
5.4931640625
23.8037109375
28.38134765625
18.310546875
27.4658203125
47.607421875
48.52294921875
41.19873046875
54.931640625
56.7626953125
77.81982421875
97.96142578125
108.0322265625
86.97509765625
86.97509765625
98.876953125
108.94775390625
104.3701171875
118.10302734375
119.93408203125
131.8359375
149.23095703125
152.89306640625
154.72412109375
166.6259765625
167.54150390625
173.03466796875
190.4296875
193.17626953125
186.767578125
199.5849609375
215.14892578125
227.96630859375
244.44580078125
263.671875
270.08056640625
278.3203125
281.06689453125
291.1376953125
314.94140625
315.85693359375
307.6171875
322.265625
314.02587890625
320.4345703125
320.4345703125
331.4208984375
336.9140625
346.0693359375
331.4208984375
332.33642578125
331.4208984375
344.23828125
340.576171875
343.32275390625
340.576171875
331.4208984375
346.0693359375
326.84326171875
295.71533203125
288.39111328125
290.22216796875
288.39111328125
274.658203125
265.5029296875
256.34765625
240.78369140625
226.13525390625
210.5712890625
197.75390625
183.10546875
164.794921875
147.39990234375
134.58251953125
115.3564453125
97.0458984375
94.29931640625
77.81982421875
52.18505859375
49.4384765625
45.7763671875
16.4794921875
6.40869140625
13.73291015625
11.90185546875
-25.634765625
-20.1416015625
-40.283203125
-48.52294921875
-29.296875
-63.17138671875
-72.32666015625
-63.17138671875
-55.84716796875
-48.52294921875
-33.87451171875
-39.36767578125
-43.02978515625
-45.7763671875
-46.69189453125
-46.69189453125
-59.50927734375
-58.59375
-57.67822265625
-65.00244140625
-58.59375
-60.4248046875
-72.32666015625
-59.50927734375
-65.00244140625
-69.580078125
-70.49560546875
-72.32666015625
-72.32666015625
-79.65087890625
-72.32666015625
-77.81982421875
-81.48193359375
-70.49560546875
-65.91796875
-50.35400390625
-59.50927734375
-70.49560546875
-65.00244140625
-49.4384765625
-54.931640625
-68.66455078125
-48.52294921875
-62.255859375
-68.66455078125
-62.255859375
-58.59375
-55.84716796875
-48.52294921875
-43.02978515625
-43.02978515625
-43.02978515625
-39.36767578125
-39.36767578125
-29.296875
-32.958984375
-41.19873046875
-41.19873046875
-37.53662109375
-45.7763671875
-40.283203125
-43.02978515625
-42.1142578125
-30.21240234375
-20.1416015625
-40.283203125
-37.53662109375
-37.53662109375
-36.62109375
-38.4521484375
-49.4384765625
-36.62109375
-38.4521484375
-33.87451171875
-35.70556640625
-33.87451171875
-13.73291015625
-18.310546875
-37.53662109375
-32.04345703125
-28.38134765625
-47.607421875
-61.34033203125
-45.7763671875
-45.7763671875
-45.7763671875
-49.4384765625
-45.7763671875
-40.283203125
-37.53662109375
-41.19873046875
-43.02978515625
-43.02978515625
-52.18505859375
-44.86083984375
-32.04345703125
-19.22607421875
-38.4521484375
-54.931640625
-52.18505859375
-43.02978515625
-47.607421875
-40.283203125
-43.9453125
-48.52294921875
-25.634765625
-29.296875
-58.59375
-51.26953125
-43.02978515625
-47.607421875
-56.7626953125
-54.01611328125
-49.4384765625
-51.26953125
-40.283203125
-48.52294921875
-54.931640625
-67.7490234375
-55.84716796875
-63.17138671875
-59.50927734375
-59.50927734375
-51.26953125
-49.4384765625
-51.26953125
-70.49560546875
-60.4248046875
-54.01611328125
-27.4658203125
-51.26953125
-55.84716796875
-57.67822265625
-58.59375
-57.67822265625
-60.4248046875
-65.00244140625
-58.59375
-54.01611328125
-45.7763671875
-48.52294921875
-45.7763671875
-37.53662109375
-38.4521484375
-35.70556640625
-32.958984375
-27.4658203125
-22.88818359375
-18.310546875
-18.310546875
-19.22607421875
-14.6484375
-14.6484375
2.74658203125
8.23974609375
-10.986328125
-14.6484375
-12.8173828125
-14.6484375
-12.8173828125
-10.07080078125
-8.23974609375
-19.22607421875
-12.8173828125
-6.40869140625
-11.90185546875
-17.39501953125
-3.662109375
0.91552734375
3.662109375
13.73291015625
21.05712890625
10.986328125
-3.662109375
-3.662109375
-6.40869140625
-0.91552734375
-12.8173828125
-17.39501953125
-13.73291015625
-18.310546875
-17.39501953125
4.57763671875
-8.23974609375
-41.19873046875
-49.4384765625
-59.50927734375
-58.59375
-60.4248046875
-66.83349609375
-71.4111328125
-78.7353515625
-76.904296875
-72.32666015625
-77.81982421875
-82.3974609375
-72.32666015625
-64.0869140625
-77.81982421875
-79.65087890625
-80.56640625
-84.228515625
-69.580078125
-61.34033203125
-74.15771484375
-81.48193359375
-86.0595703125
-79.65087890625
-76.904296875
-83.31298828125
-75.0732421875
-68.66455078125
-65.00244140625
-68.66455078125
-67.7490234375
-69.580078125
-76.904296875
-72.32666015625
-75.0732421875
-82.3974609375
-83.31298828125
-142.822265625
-180.35888671875
-193.17626953125
-162.04833984375
-120.849609375
-62.255859375
-18.310546875
46.69189453125
143.73779296875
263.671875
385.43701171875
520.93505859375
684.814453125
877.99072265625
1055.60302734375
1144.4091796875
1203.0029296875
1240.53955078125
1205.74951171875
1114.19677734375
928.3447265625
652.77099609375
377.197265625
103.45458984375
-257.26318359375
-429.38232421875
-454.1015625
-439.453125
-404.6630859375
-384.521484375
-359.80224609375
-323.18115234375
-260.009765625
-216.064453125
-174.86572265625
-151.9775390625
-100.7080078125
-86.97509765625
-62.255859375
-43.9453125
-34.7900390625
-25.634765625
-25.634765625
-28.38134765625
-22.88818359375
-26.55029296875
-24.71923828125
-24.71923828125
-15.56396484375
-14.6484375
-4.57763671875
10.07080078125
-10.986328125
-29.296875
-15.56396484375
-5.4931640625
-4.57763671875
-7.32421875
-0.91552734375
-0.91552734375
2.74658203125
13.73291015625
16.4794921875
10.986328125
13.73291015625
15.56396484375
21.05712890625
24.71923828125
17.39501953125
20.1416015625
25.634765625
24.71923828125
24.71923828125
33.87451171875
55.84716796875
69.580078125
73.2421875
37.53662109375
41.19873046875
46.69189453125
54.931640625
60.4248046875
67.7490234375
68.66455078125
58.59375
73.2421875
73.2421875
83.31298828125
104.3701171875
96.13037109375
75.0732421875
83.31298828125
90.63720703125
99.79248046875
95.21484375
98.876953125
116.27197265625
129.08935546875
126.3427734375
126.3427734375
115.3564453125
118.10302734375
127.25830078125
136.41357421875
156.55517578125
159.3017578125
166.6259765625
173.03466796875
188.5986328125
190.4296875
201.416015625
208.740234375
226.13525390625
233.45947265625
234.375
218.81103515625
237.12158203125
251.77001953125
275.57373046875
281.06689453125
279.23583984375
308.53271484375
303.955078125
292.96875
316.7724609375
317.68798828125
322.265625
328.67431640625
337.82958984375
350.64697265625
359.80224609375
360.7177734375
353.3935546875
367.12646484375
376.28173828125
370.78857421875
370.78857421875
381.77490234375
377.197265625
371.7041015625
371.7041015625
380.859375
381.77490234375
380.859375
372.61962890625
368.0419921875
358.88671875
357.0556640625
351.5625
350.64697265625
336.9140625
325.01220703125
314.02587890625
293.88427734375
278.3203125
264.58740234375
255.43212890625
247.1923828125
235.29052734375
215.14892578125
196.83837890625
178.52783203125
163.87939453125
151.06201171875
136.41357421875
122.6806640625
137.3291015625
113.525390625
93.3837890625
77.81982421875
65.91796875
57.67822265625
51.26953125
43.9453125
32.958984375
35.70556640625
35.70556640625
32.04345703125
28.38134765625
24.71923828125
27.4658203125
6.40869140625
10.986328125
0.91552734375
-20.1416015625
-11.90185546875
1.8310546875
-8.23974609375
-14.6484375
-9.1552734375
-14.6484375
-23.8037109375
-3.662109375
-16.4794921875
-22.88818359375
-21.97265625
-11.90185546875
0
-17.39501953125
-33.87451171875
-24.71923828125
-24.71923828125
-11.90185546875
-8.23974609375
-12.8173828125
-8.23974609375
-20.1416015625
-24.71923828125
-17.39501953125
-22.88818359375
-9.1552734375
-5.4931640625
-23.8037109375
-19.22607421875
-10.07080078125
-13.73291015625
-16.4794921875
-10.07080078125
-14.6484375
-15.56396484375
-16.4794921875
-15.56396484375
-6.40869140625
-2.74658203125
-4.57763671875
6.40869140625
-3.662109375
-23.8037109375
-9.1552734375
20.1416015625
26.55029296875
-0.91552734375
-14.6484375
-4.57763671875
0.91552734375
-7.32421875
-6.40869140625
-6.40869140625
3.662109375
0.91552734375
-1.8310546875
0
-1.8310546875
6.40869140625
6.40869140625
10.986328125
11.90185546875
11.90185546875
-19.22607421875
-10.986328125
10.986328125
17.39501953125
6.40869140625
0
2.74658203125
-1.8310546875
-8.23974609375
0.91552734375
3.662109375
-0.91552734375
-6.40869140625
-6.40869140625
1.8310546875
0.91552734375
-5.4931640625
-14.6484375
-13.73291015625
-9.1552734375
-14.6484375
-21.97265625
-11.90185546875
-10.07080078125
-11.90185546875
-11.90185546875
-21.05712890625
-18.310546875
-15.56396484375
-15.56396484375
-22.88818359375
-10.986328125
-18.310546875
-13.73291015625
-13.73291015625
-25.634765625
-28.38134765625
-33.87451171875
-24.71923828125
-16.4794921875
-10.07080078125
-21.05712890625
-27.4658203125
-24.71923828125
-33.87451171875
-31.1279296875
-23.8037109375
-23.8037109375
-26.55029296875
-32.958984375
-32.958984375
-18.310546875
-30.21240234375
-40.283203125
-27.4658203125
-23.8037109375
-24.71923828125
-29.296875
-40.283203125
-35.70556640625
-27.4658203125
-16.4794921875
-36.62109375
-32.958984375
-34.7900390625
-38.4521484375
-26.55029296875
-31.1279296875
-37.53662109375
-38.4521484375
-34.7900390625
-32.958984375
-36.62109375
-37.53662109375
-38.4521484375
-35.70556640625
-30.21240234375
-19.22607421875
-20.1416015625
-30.21240234375
-43.02978515625
-30.21240234375
-25.634765625
-43.02978515625
-43.9453125
-32.958984375
-35.70556640625
-33.87451171875
-34.7900390625
-29.296875
-33.87451171875
-33.87451171875
-30.21240234375
-40.283203125
-41.19873046875
-32.04345703125
-42.1142578125
-34.7900390625
-35.70556640625
-49.4384765625
-44.86083984375
-32.04345703125
-51.26953125
-45.7763671875
-36.62109375
-27.4658203125
-10.986328125
-21.97265625
-34.7900390625
-32.04345703125
-47.607421875
-54.01611328125
-36.62109375
-34.7900390625
-36.62109375
-24.71923828125
-33.87451171875
-37.53662109375
-32.04345703125
-38.4521484375
-39.36767578125
-40.283203125
-40.283203125
-43.02978515625
-41.19873046875
-38.4521484375
-26.55029296875
-33.87451171875
-28.38134765625
-38.4521484375
-34.7900390625
-51.26953125
-34.7900390625
-30.21240234375
-42.1142578125
-25.634765625
-30.21240234375
-34.7900390625
-38.4521484375
-39.36767578125
-43.9453125
-40.283203125
-40.283203125
-35.70556640625
-27.4658203125
-21.97265625
-35.70556640625
-28.38134765625
-21.05712890625
-26.55029296875
-28.38134765625
-22.88818359375
-19.22607421875
-20.1416015625
-21.05712890625
0.91552734375
-2.74658203125
-7.32421875
-1.8310546875
4.57763671875
21.97265625
13.73291015625
9.1552734375
19.22607421875
11.90185546875
10.986328125
16.4794921875
24.71923828125
22.88818359375
28.38134765625
28.38134765625
17.39501953125
19.22607421875
20.1416015625
14.6484375
10.07080078125
11.90185546875
9.1552734375
10.07080078125
6.40869140625
26.55029296875
35.70556640625
27.4658203125
25.634765625
20.1416015625
27.4658203125
43.9453125
29.296875
-7.32421875
9.1552734375
25.634765625
9.1552734375
-8.23974609375
-16.4794921875
-17.39501953125
-23.8037109375
-21.05712890625
-37.53662109375
-34.7900390625
-25.634765625
-45.7763671875
-63.17138671875
-59.50927734375
-45.7763671875
-50.35400390625
-58.59375
-56.7626953125
-40.283203125
-45.7763671875
-44.86083984375
-44.86083984375
-52.18505859375
-54.01611328125
-54.01611328125
-28.38134765625
-38.4521484375
-71.4111328125
-53.1005859375
-55.84716796875
-55.84716796875
-51.26953125
-48.52294921875
-53.1005859375
-50.35400390625
-60.4248046875
-61.34033203125
-58.59375
-58.59375
-65.00244140625
-80.56640625
-97.0458984375
-119.93408203125
-138.24462890625
-151.9775390625
-140.07568359375
-100.7080078125
-59.50927734375
-16.4794921875
33.87451171875
145.56884765625
256.34765625
386.3525390625
505.37109375
643.61572265625
852.35595703125
1035.46142578125
1135.25390625
1184.6923828125
1218.56689453125
1185.60791015625
1112.36572265625
968.6279296875
660.09521484375
378.11279296875
133.6669921875
-181.2744140625
-396.42333984375
-433.9599609375
-413.818359375
-379.0283203125
-370.78857421875
-346.0693359375
-304.87060546875
-275.57373046875
-249.93896484375
-199.5849609375
-161.1328125
-106.201171875
-85.14404296875
-58.59375
-37.53662109375
-39.36767578125
-32.958984375
-26.55029296875
-23.8037109375
-29.296875
-26.55029296875
-13.73291015625
4.57763671875
-1.8310546875
-2.74658203125
4.57763671875
-6.40869140625
-1.8310546875
-6.40869140625
12.8173828125
-2.74658203125
8.23974609375
11.90185546875
10.986328125
19.22607421875
12.8173828125
18.310546875
13.73291015625
20.1416015625
13.73291015625
28.38134765625
32.958984375
58.59375
16.4794921875
14.6484375
33.87451171875
48.52294921875
42.1142578125
50.35400390625
50.35400390625
48.52294921875
52.18505859375
50.35400390625
48.52294921875
50.35400390625
53.1005859375
72.32666015625
72.32666015625
68.66455078125
69.580078125
77.81982421875
78.7353515625
92.46826171875
79.65087890625
81.48193359375
94.29931640625
101.62353515625
123.59619140625
112.60986328125
120.849609375
113.525390625
114.44091796875
119.0185546875
121.76513671875
118.10302734375
130.92041015625
135.498046875
140.9912109375
152.89306640625
156.55517578125
163.87939453125
168.45703125
189.51416015625
179.443359375
176.69677734375
193.17626953125
201.416015625
210.5712890625
220.64208984375
218.81103515625
224.30419921875
237.12158203125
247.1923828125
249.93896484375
266.41845703125
264.58740234375
277.40478515625
286.56005859375
302.1240234375
307.6171875
305.7861328125
312.19482421875
320.4345703125
322.265625
334.16748046875
345.15380859375
353.3935546875
367.12646484375
365.29541015625
373.53515625
387.26806640625
388.18359375
407.40966796875
398.25439453125
368.0419921875
377.197265625
383.60595703125
393.6767578125
384.521484375
390.0146484375
386.3525390625
383.60595703125
390.93017578125
379.94384765625
393.6767578125
382.6904296875
367.12646484375
362.548828125
346.98486328125
345.15380859375
330.50537109375
312.19482421875
314.94140625
302.1240234375
286.56005859375
274.658203125
263.671875
249.0234375
217.8955078125
222.47314453125
203.2470703125
182.18994140625
166.6259765625
155.6396484375
148.3154296875
134.58251953125
122.6806640625
115.3564453125
105.28564453125
95.21484375
82.3974609375
70.49560546875
61.34033203125
53.1005859375
60.4248046875
46.69189453125
46.69189453125
32.958984375
13.73291015625
29.296875
24.71923828125
13.73291015625
11.90185546875
0.91552734375
6.40869140625
5.4931640625
1.8310546875
-10.07080078125
-8.23974609375
-1.8310546875
3.662109375
3.662109375
0
4.57763671875
1.8310546875
8.23974609375
7.32421875
8.23974609375
-7.32421875
9.1552734375
-2.74658203125
-1.8310546875
-18.310546875
-5.4931640625
-5.4931640625
-12.8173828125
-11.90185546875
-8.23974609375
-4.57763671875
-0.91552734375
0.91552734375
16.4794921875
-8.23974609375
-29.296875
7.32421875
-0.91552734375
-1.8310546875
4.57763671875
-2.74658203125
-4.57763671875
0.91552734375
5.4931640625
3.662109375
-0.91552734375
-8.23974609375
6.40869140625
5.4931640625
9.1552734375
5.4931640625
11.90185546875
19.22607421875
11.90185546875
-5.4931640625
-13.73291015625
-5.4931640625
4.57763671875
0
0
11.90185546875
16.4794921875
7.32421875
13.73291015625
36.62109375
30.21240234375
9.1552734375
-1.8310546875
6.40869140625
-3.662109375
-9.1552734375
-16.4794921875
-1.8310546875
5.4931640625
-0.91552734375
7.32421875
5.4931640625
4.57763671875
0
-3.662109375
10.07080078125
10.07080078125
11.90185546875
1.8310546875
-10.986328125
-12.8173828125
-10.986328125
-15.56396484375
-2.74658203125
-7.32421875
-0.91552734375
-0.91552734375
6.40869140625
-8.23974609375
-15.56396484375
0
1.8310546875
-21.05712890625
-32.958984375
-28.38134765625
-19.22607421875
-14.6484375
-16.4794921875
-14.6484375
-17.39501953125
-24.71923828125
-27.4658203125
-19.22607421875
-20.1416015625
-27.4658203125
-36.62109375
-26.55029296875
-9.1552734375
-8.23974609375
-17.39501953125
-15.56396484375
-22.88818359375
-23.8037109375
-27.4658203125
-35.70556640625
-32.958984375
-28.38134765625
-35.70556640625
-34.7900390625
-26.55029296875
-32.958984375
-38.4521484375
-30.21240234375
-25.634765625
-19.22607421875
-21.05712890625
-24.71923828125
-18.310546875
-38.4521484375
-29.296875
-26.55029296875
-16.4794921875
-20.1416015625
-44.86083984375
-44.86083984375
-39.36767578125
-42.1142578125
-37.53662109375
-43.02978515625
-32.04345703125
-32.958984375
-31.1279296875
-24.71923828125
-30.21240234375
-34.7900390625
-37.53662109375
-39.36767578125
-31.1279296875
-30.21240234375
-34.7900390625
-32.958984375
-25.634765625
-18.310546875
-27.4658203125
-43.02978515625
-41.19873046875
-34.7900390625
-29.296875
-25.634765625
-29.296875
-22.88818359375
-2.74658203125
0
-26.55029296875
-24.71923828125
-26.55029296875
0
-0.91552734375
-3.662109375
1.8310546875
11.90185546875
3.662109375
-8.23974609375
-2.74658203125
3.662109375
8.23974609375
8.23974609375
18.310546875
21.05712890625
21.97265625
9.1552734375
7.32421875
8.23974609375
2.74658203125
0
0
3.662109375
10.986328125
7.32421875
21.05712890625
31.1279296875
36.62109375
30.21240234375
29.296875
4.57763671875
6.40869140625
4.57763671875
7.32421875
-1.8310546875
-9.1552734375
-25.634765625
1.8310546875
2.74658203125
-38.4521484375
-31.1279296875
-35.70556640625
-43.9453125
-61.34033203125
-71.4111328125
-68.66455078125
-61.34033203125
-60.4248046875
-56.7626953125
-61.34033203125
-65.00244140625
-56.7626953125
-55.84716796875
-64.0869140625
-44.86083984375
-49.4384765625
-63.17138671875
-52.18505859375
-58.59375
-61.34033203125
-60.4248046875
-66.83349609375
-54.931640625
-64.0869140625
-62.255859375
-67.7490234375
-61.34033203125
-62.255859375
-54.931640625
-62.255859375
-59.50927734375
-59.50927734375
-57.67822265625
-61.34033203125
-83.31298828125
-105.28564453125
-140.07568359375
-167.54150390625
-186.767578125
-179.443359375
-147.39990234375
-110.77880859375
-69.580078125
-5.4931640625
81.48193359375
203.2470703125
362.548828125
484.31396484375
646.3623046875
847.7783203125
1020.81298828125
1127.01416015625
1201.171875
1244.20166015625
1188.3544921875
1086.73095703125
930.17578125
644.53125
336.9140625
24.71923828125
-304.87060546875
-441.2841796875
-436.70654296875
-417.48046875
-397.3388671875
-388.18359375
-358.88671875
-331.4208984375
-311.279296875
-256.34765625
-217.8955078125
-169.37255859375
-174.86572265625
-139.16015625
-112.60986328125
-86.0595703125
-77.81982421875
-55.84716796875
-26.55029296875
-32.958984375
-48.52294921875
-47.607421875
-29.296875
-29.296875
-31.1279296875
-26.55029296875
-19.22607421875
-14.6484375
-18.310546875
0
-8.23974609375
-9.1552734375
3.662109375
9.1552734375
0
-8.23974609375
-2.74658203125
0
1.8310546875
4.57763671875
14.6484375
21.05712890625
19.22607421875
9.1552734375
18.310546875
17.39501953125
14.6484375
15.56396484375
29.296875
26.55029296875
28.38134765625
30.21240234375
35.70556640625
37.53662109375
42.1142578125
47.607421875
53.1005859375
58.59375
74.15771484375
97.0458984375
72.32666015625
60.4248046875
72.32666015625
78.7353515625
81.48193359375
90.63720703125
88.80615234375
91.552734375
86.97509765625
86.97509765625
99.79248046875
114.44091796875
110.77880859375
109.86328125
133.6669921875
129.08935546875
126.3427734375
124.51171875
132.75146484375
151.9775390625
154.72412109375
147.39990234375
159.3017578125
162.04833984375
181.2744140625
184.02099609375
198.66943359375
195.00732421875
199.5849609375
217.8955078125
224.30419921875
247.1923828125
244.44580078125
252.685546875
254.5166015625
260.009765625
266.41845703125
271.91162109375
290.22216796875
289.306640625
298.4619140625
311.279296875
326.84326171875
325.927734375
328.67431640625
327.7587890625
333.251953125
347.900390625
354.30908203125
346.98486328125
358.88671875
363.46435546875
367.12646484375
373.53515625
372.61962890625
366.2109375
357.97119140625
367.12646484375
379.94384765625
368.0419921875
359.80224609375
356.14013671875
349.7314453125
340.576171875
341.49169921875
330.50537109375
320.4345703125
319.51904296875
332.33642578125
309.4482421875
296.630859375
283.8134765625
270.08056640625
254.5166015625
228.8818359375
218.81103515625
208.740234375
173.03466796875
173.9501953125
152.89306640625
135.498046875
119.0185546875
108.94775390625
105.28564453125
92.46826171875
82.3974609375
75.0732421875
60.4248046875
51.26953125
40.283203125
32.958984375
24.71923828125
14.6484375
17.39501953125
23.8037109375
0
-10.986328125
-2.74658203125
-0.91552734375
-17.39501953125
-23.8037109375
-21.05712890625
-22.88818359375
-20.1416015625
-20.1416015625
-32.958984375
-34.7900390625
-14.6484375
-28.38134765625
-45.7763671875
-38.4521484375
-32.04345703125
-28.38134765625
-32.04345703125
-41.19873046875
-29.296875
-23.8037109375
-32.958984375
-28.38134765625
-30.21240234375
-26.55029296875
-32.958984375
-27.4658203125
-24.71923828125
-31.1279296875
-36.62109375
-30.21240234375
-14.6484375
-23.8037109375
-21.97265625
-12.8173828125
-15.56396484375
-16.4794921875
-18.310546875
-18.310546875
-11.90185546875
-0.91552734375
-0.91552734375
-16.4794921875
-21.05712890625
-23.8037109375
-11.90185546875
-11.90185546875
-16.4794921875
-12.8173828125
-15.56396484375
-17.39501953125
-12.8173828125
-12.8173828125
-3.662109375
-1.8310546875
-4.57763671875
17.39501953125
2.74658203125
-28.38134765625
-16.4794921875
-12.8173828125
-16.4794921875
-13.73291015625
-11.90185546875
-7.32421875
-10.07080078125
-5.4931640625
-13.73291015625
-13.73291015625
-14.6484375
-18.310546875
-14.6484375
-14.6484375
-31.1279296875
-25.634765625
-21.97265625
-34.7900390625
-35.70556640625
-31.1279296875
-24.71923828125
-22.88818359375
-19.22607421875
-20.1416015625
-15.56396484375
-25.634765625
-16.4794921875
-27.4658203125
-20.1416015625
-37.53662109375
-28.38134765625
-28.38134765625
-37.53662109375
-34.7900390625
-29.296875
-40.283203125
-38.4521484375
-29.296875
-29.296875
-38.4521484375
-43.9453125
-34.7900390625
-31.1279296875
-22.88818359375
-34.7900390625
-52.18505859375
-48.52294921875
-49.4384765625
-36.62109375
-34.7900390625
-40.283203125
-37.53662109375
-27.4658203125
-32.04345703125
-30.21240234375
-50.35400390625
-56.7626953125
-54.931640625
-50.35400390625
-53.1005859375
-56.7626953125
-57.67822265625
-39.36767578125
-47.607421875
-47.607421875
-42.1142578125
-54.01611328125
-48.52294921875
-46.69189453125
-60.4248046875
-55.84716796875
-51.26953125
-45.7763671875
-55.84716796875
-56.7626953125
-48.52294921875
-45.7763671875
-43.02978515625
-53.1005859375
-70.49560546875
-45.7763671875
-54.931640625
-45.7763671875
-48.52294921875
-64.0869140625
-65.00244140625
-57.67822265625
-48.52294921875
-57.67822265625
-66.83349609375
-63.17138671875
-36.62109375
-42.1142578125
-54.931640625
-65.91796875
-56.7626953125
-53.1005859375
-49.4384765625
-55.84716796875
-73.2421875
-53.1005859375
-50.35400390625
-56.7626953125
-57.67822265625
-64.0869140625
-51.26953125
-54.01611328125
-52.18505859375
-47.607421875
-39.36767578125
-54.01611328125
-51.26953125
-50.35400390625
-33.87451171875
-18.310546875
-38.4521484375
-33.87451171875
-36.62109375
-33.87451171875
-32.04345703125
-23.8037109375
-27.4658203125
-24.71923828125
-12.8173828125
-11.90185546875
-20.1416015625
-13.73291015625
-12.8173828125
-11.90185546875
-8.23974609375
0
6.40869140625
-13.73291015625
-21.05712890625
-23.8037109375
-22.88818359375
-32.04345703125
-35.70556640625
-13.73291015625
-10.07080078125
-11.90185546875
-0.91552734375
6.40869140625
2.74658203125
-0.91552734375
0
-5.4931640625
-11.90185546875
-5.4931640625
-2.74658203125
-32.04345703125
-29.296875
-23.8037109375
-23.8037109375
-29.296875
-17.39501953125
-39.36767578125
-43.02978515625
-70.49560546875
-76.904296875
-79.65087890625
-58.59375
-81.48193359375
-78.7353515625
-86.0595703125
-86.0595703125
-84.228515625
-86.97509765625
-86.0595703125
-84.228515625
-86.0595703125
-68.66455078125
-65.00244140625
-61.34033203125
-75.98876953125
-86.0595703125
-90.63720703125
-88.80615234375
-89.7216796875
-87.890625
-91.552734375
-91.552734375
-83.31298828125
-81.48193359375
-86.97509765625
-94.29931640625
-98.876953125
-91.552734375
-86.97509765625
-90.63720703125
-108.0322265625
-124.51171875
-148.3154296875
-173.03466796875
-190.4296875
-174.86572265625
-165.71044921875
-116.27197265625
-77.81982421875
-19.22607421875
73.2421875
204.16259765625
343.32275390625
468.75
610.65673828125
805.6640625
989.68505859375
1115.1123046875
1177.3681640625
1229.55322265625
1209.41162109375
1144.4091796875
1016.2353515625
801.08642578125
509.033203125
238.037109375
-105.28564453125
-410.15625
-479.736328125
-471.49658203125
-443.115234375
-419.3115234375
-390.0146484375
-342.4072265625
-310.36376953125
-285.64453125
-237.12158203125
-189.51416015625
-141.90673828125
-126.3427734375
-102.5390625
-85.14404296875
-78.7353515625
-61.34033203125
-48.52294921875
-59.50927734375
-56.7626953125
-49.4384765625
-37.53662109375
-31.1279296875
-2.74658203125
-28.38134765625
-40.283203125
-37.53662109375
-34.7900390625
-32.958984375
-23.8037109375
-14.6484375
-33.87451171875
-30.21240234375
-22.88818359375
-20.1416015625
-19.22607421875
-21.05712890625
-13.73291015625
-8.23974609375
-13.73291015625
-3.662109375
-4.57763671875
0
7.32421875
-2.74658203125
0
7.32421875
13.73291015625
7.32421875
19.22607421875
26.55029296875
18.310546875
31.1279296875
21.97265625
29.296875
33.87451171875
36.62109375
33.87451171875
43.02978515625
45.7763671875
53.1005859375
57.67822265625
54.01611328125
60.4248046875
64.0869140625
71.4111328125
77.81982421875
74.15771484375
80.56640625
76.904296875
97.0458984375
83.31298828125
84.228515625
89.7216796875
100.7080078125
108.0322265625
108.0322265625
116.27197265625
117.1875
127.25830078125
137.3291015625
140.07568359375
133.6669921875
136.41357421875
155.6396484375
173.03466796875
177.6123046875
184.02099609375
195.00732421875
197.75390625
205.99365234375
216.97998046875
218.81103515625
228.8818359375
247.1923828125
249.93896484375
268.24951171875
265.5029296875
276.4892578125
294.7998046875
287.4755859375
274.658203125
293.88427734375
292.96875
299.37744140625
314.94140625
314.02587890625
323.18115234375
330.50537109375
334.16748046875
335.99853515625
346.98486328125
352.47802734375
348.81591796875
350.64697265625
351.5625
356.14013671875
364.3798828125
369.873046875
359.80224609375
348.81591796875
332.33642578125
322.265625
316.7724609375
318.603515625
318.603515625
312.19482421875
300.29296875
287.4755859375
276.4892578125
261.8408203125
238.037109375
231.62841796875
223.388671875
203.2470703125
189.51416015625
169.37255859375
147.39990234375
137.3291015625
131.8359375
124.51171875
108.0322265625
93.3837890625
82.3974609375
64.0869140625
50.35400390625
34.7900390625
23.8037109375
29.296875
30.21240234375
-2.74658203125
-5.4931640625
0
-13.73291015625
-26.55029296875
-22.88818359375
-16.4794921875
-33.87451171875
-36.62109375
-28.38134765625
-33.87451171875
-54.931640625
-60.4248046875
-48.52294921875
-44.86083984375
-58.59375
-66.83349609375
-65.91796875
-64.0869140625
-75.0732421875
-75.0732421875
-62.255859375
-60.4248046875
-37.53662109375
-28.38134765625
-65.00244140625
-63.17138671875
-56.7626953125
-59.50927734375
-60.4248046875
-57.67822265625
-60.4248046875
-71.4111328125
-63.17138671875
-54.931640625
-54.01611328125
-52.18505859375
-53.1005859375
-54.01611328125
-59.50927734375
-56.7626953125
-54.931640625
-48.52294921875
-41.19873046875
-33.87451171875
-33.87451171875
-63.17138671875
-49.4384765625
-55.84716796875
-56.7626953125
-48.52294921875
-39.36767578125
-62.255859375
-46.69189453125
-49.4384765625
-73.2421875
-62.255859375
-33.87451171875
-42.1142578125
-51.26953125
-46.69189453125
-43.9453125
-47.607421875
-52.18505859375
-44.86083984375
-37.53662109375
-44.86083984375
-43.9453125
-42.1142578125
-49.4384765625
-55.84716796875
-54.01611328125
-55.84716796875
-56.7626953125
-63.17138671875
-54.931640625
-51.26953125
-54.01611328125
-48.52294921875
-60.4248046875
-60.4248046875
-62.255859375
-63.17138671875
-65.00244140625
-61.34033203125
-54.01611328125
-43.02978515625
-47.607421875
-73.2421875
-71.4111328125
-57.67822265625
-72.32666015625
-68.66455078125
-63.17138671875
-55.84716796875
-53.1005859375
