ECG
175.78125
159.3017578125
143.73779296875
125.42724609375
97.96142578125
84.228515625
119.93408203125
167.54150390625
192.2607421875
253.60107421875
366.2109375
467.83447265625
583.19091796875
698.54736328125
843.20068359375
1023.5595703125
1224.9755859375
1338.5009765625
1408.99658203125
1450.1953125
1426.3916015625
1344.90966796875
1181.0302734375
920.10498046875
639.0380859375
390.93017578125
73.2421875
-160.21728515625
-186.767578125
-163.87939453125
-140.9912109375
-137.3291015625
-118.10302734375
-71.4111328125
-34.7900390625
10.986328125
62.255859375
81.48193359375
105.28564453125
125.42724609375
166.6259765625
188.5986328125
205.078125
217.8955078125
228.8818359375
223.388671875
217.8955078125
226.13525390625
234.375
216.97998046875
219.7265625
221.5576171875
230.712890625
224.30419921875
227.05078125
244.44580078125
235.29052734375
239.8681640625
237.12158203125
225.2197265625
263.671875
267.333984375
246.27685546875
246.27685546875
233.45947265625
258.1787109375
254.5166015625
250.8544921875
250.8544921875
251.77001953125
265.5029296875
270.99609375
276.4892578125
280.1513671875
281.982421875
263.671875
257.26318359375
286.56005859375
296.630859375
280.1513671875
280.1513671875
277.40478515625
260.009765625
288.39111328125
300.29296875
311.279296875
306.70166015625
307.6171875
324.0966796875
332.33642578125
303.955078125
309.4482421875
318.603515625
325.927734375
331.4208984375
324.0966796875
348.81591796875
371.7041015625
346.0693359375
336.9140625
357.0556640625
356.14013671875
357.97119140625
371.7041015625
376.28173828125
375.3662109375
380.859375
391.845703125
394.59228515625
406.494140625
424.8046875
423.88916015625
420.22705078125
409.24072265625
417.48046875
426.6357421875
433.04443359375
442.19970703125
451.35498046875
462.34130859375
480.65185546875
494.384765625
506.28662109375
501.708984375
504.45556640625
520.93505859375
537.41455078125
533.75244140625
525.5126953125
534.66796875
551.1474609375
555.72509765625
552.06298828125
582.275390625
581.35986328125
601.50146484375
596.923828125
585.9375
589.599609375
598.7548828125
592.34619140625
606.99462890625
607.91015625
606.0791015625
609.7412109375
613.4033203125
610.65673828125
610.65673828125
606.0791015625
599.67041015625
628.96728515625
589.599609375
579.52880859375
557.55615234375
546.56982421875
542.90771484375
541.07666015625
526.42822265625
520.93505859375
513.61083984375
509.94873046875
475.15869140625
467.83447265625
451.35498046875
444.9462890625
436.70654296875
421.142578125
411.07177734375
393.6767578125
368.95751953125
370.78857421875
346.98486328125
343.32275390625
350.64697265625
304.87060546875
297.54638671875
319.51904296875
298.4619140625
270.08056640625
262.75634765625
247.1923828125
258.1787109375
255.43212890625
248.10791015625
243.5302734375
232.5439453125
243.5302734375
248.10791015625
227.96630859375
224.30419921875
226.13525390625
218.81103515625
227.96630859375
239.8681640625
235.29052734375
205.078125
208.740234375
212.40234375
197.75390625
188.5986328125
219.7265625
217.8955078125
210.5712890625
214.2333984375
201.416015625
205.99365234375
209.65576171875
209.65576171875
216.064453125
226.13525390625
229.79736328125
214.2333984375
212.40234375
205.99365234375
214.2333984375
223.388671875
207.82470703125
213.31787109375
196.83837890625
209.65576171875
227.96630859375
208.740234375
215.14892578125
227.96630859375
232.5439453125
227.05078125
226.13525390625
233.45947265625
235.29052734375
222.47314453125
210.5712890625
217.8955078125
228.8818359375
235.29052734375
235.29052734375
251.77001953125
235.29052734375
233.45947265625
218.81103515625
217.8955078125
217.8955078125
221.5576171875
226.13525390625
227.96630859375
228.8818359375
230.712890625
227.96630859375
230.712890625
237.12158203125
238.037109375
228.8818359375
211.48681640625
225.2197265625
221.5576171875
213.31787109375
219.7265625
228.8818359375
222.47314453125
226.13525390625
223.388671875
229.79736328125
222.47314453125
218.81103515625
230.712890625
236.2060546875
243.5302734375
218.81103515625
211.48681640625
230.712890625
211.48681640625
187.68310546875
193.17626953125
195.00732421875
194.091796875
201.416015625
207.82470703125
210.5712890625
211.48681640625
212.40234375
209.65576171875
210.5712890625
205.078125
219.7265625
211.48681640625
190.4296875
178.52783203125
181.2744140625
196.83837890625
189.51416015625
191.34521484375
194.091796875
187.68310546875
183.10546875
188.5986328125
200.50048828125
194.091796875
200.50048828125
210.5712890625
191.34521484375
181.2744140625
185.85205078125
187.68310546875
194.091796875
193.17626953125
191.34521484375
185.85205078125
181.2744140625
185.85205078125
189.51416015625
199.5849609375
162.04833984375
184.02099609375
195.00732421875
200.50048828125
200.50048828125
188.5986328125
196.83837890625
189.51416015625
185.85205078125
179.443359375
184.02099609375
190.4296875
184.9365234375
176.69677734375
183.10546875
207.82470703125
199.5849609375
199.5849609375
179.443359375
171.20361328125
172.119140625
178.52783203125
174.86572265625
166.6259765625
184.9365234375
181.2744140625
179.443359375
189.51416015625
179.443359375
195.00732421875
190.4296875
174.86572265625
174.86572265625
170.2880859375
178.52783203125
174.86572265625
171.20361328125
182.18994140625
186.767578125
176.69677734375
182.18994140625
195.00732421875
193.17626953125
179.443359375
166.6259765625
173.03466796875
185.85205078125
185.85205078125
185.85205078125
183.10546875
175.78125
180.35888671875
181.2744140625
171.20361328125
177.6123046875
170.2880859375
172.119140625
175.78125
181.2744140625
185.85205078125
184.02099609375
192.2607421875
184.02099609375
185.85205078125
189.51416015625
184.9365234375
180.35888671875
173.9501953125
184.9365234375
173.03466796875
191.34521484375
190.4296875
175.78125
173.9501953125
172.119140625
176.69677734375
174.86572265625
176.69677734375
181.2744140625
175.78125
181.2744140625
193.17626953125
187.68310546875
193.17626953125
205.078125
210.5712890625
182.18994140625
184.02099609375
182.18994140625
173.9501953125
179.443359375
177.6123046875
169.37255859375
170.2880859375
171.20361328125
177.6123046875
184.02099609375
186.767578125
189.51416015625
202.33154296875
204.16259765625
171.20361328125
176.69677734375
179.443359375
186.767578125
189.51416015625
187.68310546875
190.4296875
186.767578125
184.9365234375
201.416015625
186.767578125
181.2744140625
174.86572265625
170.2880859375
188.5986328125
187.68310546875
167.54150390625
167.54150390625
171.20361328125
184.02099609375
186.767578125
181.2744140625
192.2607421875
195.9228515625
175.78125
169.37255859375
188.5986328125
186.767578125
195.9228515625
197.75390625
189.51416015625
187.68310546875
195.00732421875
186.767578125
190.4296875
194.091796875
186.767578125
186.767578125
184.9365234375
184.9365234375
178.52783203125
175.78125
175.78125
170.2880859375
170.2880859375
189.51416015625
200.50048828125
210.5712890625
203.2470703125
201.416015625
205.078125
181.2744140625
188.5986328125
198.66943359375
180.35888671875
183.10546875
189.51416015625
186.767578125
179.443359375
189.51416015625
191.34521484375
198.66943359375
207.82470703125
223.388671875
231.62841796875
228.8818359375
221.5576171875
223.388671875
227.05078125
228.8818359375
214.2333984375
219.7265625
229.79736328125
219.7265625
214.2333984375
210.5712890625
199.5849609375
193.17626953125
188.5986328125
193.17626953125
223.388671875
206.9091796875
182.18994140625
194.091796875
202.33154296875
184.02099609375
195.9228515625
199.5849609375
199.5849609375
183.10546875
178.52783203125
195.9228515625
199.5849609375
186.767578125
190.4296875
185.85205078125
174.86572265625
173.9501953125
181.2744140625
182.18994140625
179.443359375
173.9501953125
185.85205078125
194.091796875
189.51416015625
201.416015625
159.3017578125
162.04833984375
174.86572265625
169.37255859375
186.767578125
179.443359375
172.119140625
164.794921875
161.1328125
146.484375
122.6806640625
84.228515625
58.59375
79.65087890625
125.42724609375
162.04833984375
185.85205078125
257.26318359375
339.66064453125
444.03076171875
580.4443359375
724.18212890625
843.20068359375
1038.2080078125
1242.37060546875
1352.23388671875
1414.48974609375
1442.87109375
1404.4189453125
1310.11962890625
1123.35205078125
847.7783203125
596.923828125
346.0693359375
14.6484375
-166.6259765625
-176.69677734375
-168.45703125
-137.3291015625
-116.27197265625
-105.28564453125
-67.7490234375
-25.634765625
13.73291015625
52.18505859375
84.228515625
132.75146484375
173.03466796875
184.02099609375
183.10546875
200.50048828125
219.7265625
213.31787109375
220.64208984375
225.2197265625
212.40234375
213.31787109375
210.5712890625
224.30419921875
252.685546875
223.388671875
222.47314453125
230.712890625
235.29052734375
233.45947265625
243.5302734375
249.0234375
239.8681640625
244.44580078125
243.5302734375
259.09423828125
270.08056640625
273.74267578125
288.39111328125
273.74267578125
242.61474609375
258.1787109375
272.8271484375
265.5029296875
270.99609375
274.658203125
277.40478515625
289.306640625
298.4619140625
300.29296875
271.91162109375
274.658203125
291.1376953125
295.71533203125
297.54638671875
303.03955078125
305.7861328125
309.4482421875
313.1103515625
327.7587890625
335.99853515625
307.6171875
309.4482421875
308.53271484375
322.265625
326.84326171875
328.67431640625
329.58984375
336.9140625
339.66064453125
344.23828125
348.81591796875
350.64697265625
354.30908203125
368.0419921875
363.46435546875
361.63330078125
371.7041015625
377.197265625
383.60595703125
391.845703125
399.169921875
410.15625
415.6494140625
416.56494140625
419.3115234375
426.6357421875
440.36865234375
451.35498046875
455.9326171875
459.5947265625
466.9189453125
476.07421875
487.97607421875
493.46923828125
453.18603515625
475.15869140625
500.79345703125
509.94873046875
526.42822265625
521.8505859375
533.75244140625
557.55615234375
549.31640625
531.92138671875
538.330078125
552.978515625
563.04931640625
574.03564453125
580.4443359375
585.9375
596.923828125
597.83935546875
597.83935546875
616.14990234375
605.16357421875
586.85302734375
589.599609375
588.68408203125
588.68408203125
590.51513671875
589.599609375
571.2890625
574.951171875
587.7685546875
580.4443359375
562.1337890625
552.978515625
550.23193359375
544.73876953125
542.90771484375
523.681640625
513.61083984375
499.8779296875
489.80712890625
478.82080078125
470.5810546875
455.9326171875
419.3115234375
405.57861328125
384.521484375
376.28173828125
367.12646484375
359.80224609375
348.81591796875
343.32275390625
328.67431640625
302.1240234375
291.1376953125
285.64453125
280.1513671875
295.71533203125
262.75634765625
265.5029296875
261.8408203125
249.93896484375
242.61474609375
229.79736328125
223.388671875
221.5576171875
222.47314453125
226.13525390625
227.96630859375
225.2197265625
222.47314453125
211.48681640625
205.99365234375
199.5849609375
205.078125
204.16259765625
203.2470703125
208.740234375
198.66943359375
192.2607421875
192.2607421875
208.740234375
187.68310546875
188.5986328125
206.9091796875
214.2333984375
203.2470703125
197.75390625
209.65576171875
197.75390625
210.5712890625
208.740234375
208.740234375
214.2333984375
211.48681640625
211.48681640625
218.81103515625
237.12158203125
221.5576171875
206.9091796875
222.47314453125
216.064453125
219.7265625
218.81103515625
221.5576171875
221.5576171875
217.8955078125
223.388671875
226.13525390625
228.8818359375
228.8818359375
227.96630859375
227.05078125
228.8818359375
229.79736328125
231.62841796875
233.45947265625
232.5439453125
236.2060546875
241.69921875
232.5439453125
223.388671875
231.62841796875
232.5439453125
245.361328125
251.77001953125
227.05078125
226.13525390625
222.47314453125
214.2333984375
218.81103515625
228.8818359375
235.29052734375
236.2060546875
226.13525390625
220.64208984375
215.14892578125
218.81103515625
214.2333984375
218.81103515625
209.65576171875
210.5712890625
214.2333984375
215.14892578125
216.97998046875
223.388671875
216.97998046875
209.65576171875
228.8818359375
235.29052734375
216.97998046875
200.50048828125
207.82470703125
214.2333984375
195.9228515625
192.2607421875
194.091796875
193.17626953125
188.5986328125
198.66943359375
195.9228515625
195.00732421875
196.83837890625
205.078125
202.33154296875
200.50048828125
196.83837890625
197.75390625
194.091796875
188.5986328125
195.00732421875
194.091796875
201.416015625
199.5849609375
192.2607421875
190.4296875
185.85205078125
189.51416015625
181.2744140625
172.119140625
189.51416015625
197.75390625
193.17626953125
171.20361328125
165.71044921875
177.6123046875
203.2470703125
205.99365234375
185.85205078125
187.68310546875
186.767578125
194.091796875
195.00732421875
195.9228515625
188.5986328125
177.6123046875
180.35888671875
188.5986328125
183.10546875
187.68310546875
189.51416015625
184.02099609375
182.18994140625
182.18994140625
184.02099609375
177.6123046875
173.03466796875
173.03466796875
178.52783203125
187.68310546875
171.20361328125
162.04833984375
173.03466796875
173.9501953125
182.18994140625
175.78125
169.37255859375
169.37255859375
162.9638671875
165.71044921875
173.03466796875
174.86572265625
171.20361328125
165.71044921875
169.37255859375
171.20361328125
183.10546875
174.86572265625
173.9501953125
175.78125
179.443359375
183.10546875
175.78125
163.87939453125
168.45703125
172.119140625
163.87939453125
165.71044921875
172.119140625
174.86572265625
175.78125
180.35888671875
170.2880859375
170.2880859375
171.20361328125
160.21728515625
163.87939453125
166.6259765625
162.04833984375
163.87939453125
191.34521484375
189.51416015625
173.9501953125
186.767578125
188.5986328125
177.6123046875
173.03466796875
180.35888671875
183.10546875
166.6259765625
157.470703125
161.1328125
170.2880859375
163.87939453125
175.78125
162.04833984375
157.470703125
179.443359375
182.18994140625
179.443359375
171.20361328125
170.2880859375
173.9501953125
162.04833984375
159.3017578125
185.85205078125
187.68310546875
168.45703125
168.45703125
176.69677734375
160.21728515625
173.9501953125
171.20361328125
164.794921875
169.37255859375
173.9501953125
168.45703125
165.71044921875
164.794921875
165.71044921875
166.6259765625
162.9638671875
166.6259765625
172.119140625
168.45703125
172.119140625
162.9638671875
162.9638671875
173.03466796875
170.2880859375
176.69677734375
166.6259765625
167.54150390625
165.71044921875
171.20361328125
178.52783203125
183.10546875
179.443359375
163.87939453125
171.20361328125
170.2880859375
157.470703125
156.55517578125
169.37255859375
158.38623046875
164.794921875
164.794921875
166.6259765625
172.119140625
169.37255859375
166.6259765625
159.3017578125
164.794921875
179.443359375
183.10546875
170.2880859375
173.9501953125
175.78125
184.02099609375
173.9501953125
169.37255859375
163.87939453125
151.9775390625
165.71044921875
180.35888671875
181.2744140625
173.03466796875
163.87939453125
158.38623046875
157.470703125
164.794921875
159.3017578125
157.470703125
178.52783203125
165.71044921875
167.54150390625
160.21728515625
167.54150390625
175.78125
175.78125
162.9638671875
158.38623046875
170.2880859375
164.794921875
162.9638671875
171.20361328125
171.20361328125
174.86572265625
169.37255859375
161.1328125
161.1328125
166.6259765625
163.87939453125
169.37255859375
166.6259765625
187.68310546875
193.17626953125
211.48681640625
215.14892578125
209.65576171875
211.48681640625
205.078125
202.33154296875
203.2470703125
204.16259765625
203.2470703125
201.416015625
193.17626953125
198.66943359375
195.9228515625
178.52783203125
167.54150390625
176.69677734375
195.9228515625
185.85205078125
178.52783203125
177.6123046875
173.9501953125
162.04833984375
169.37255859375
173.9501953125
166.6259765625
162.04833984375
169.37255859375
162.04833984375
155.6396484375
130.92041015625
119.0185546875
134.58251953125
166.6259765625
155.6396484375
171.20361328125
183.10546875
143.73779296875
147.39990234375
151.9775390625
137.3291015625
146.484375
147.39990234375
151.06201171875
155.6396484375
154.72412109375
151.9775390625
156.55517578125
147.39990234375
140.9912109375
135.498046875
114.44091796875
104.3701171875
92.46826171875
64.0869140625
52.18505859375
64.0869140625
95.21484375
142.822265625
193.17626953125
265.5029296875
378.11279296875
488.8916015625
620.7275390625
780.94482421875
925.59814453125
1096.8017578125
1262.51220703125
1357.72705078125
1413.57421875
1401.67236328125
1354.06494140625
1243.2861328125
997.00927734375
700.37841796875
452.2705078125
188.5986328125
-100.7080078125
-192.2607421875
-213.31787109375
-191.34521484375
-169.37255859375
-150.146484375
-116.27197265625
-80.56640625
-40.283203125
4.57763671875
50.35400390625
83.31298828125
107.11669921875
131.8359375
153.80859375
176.69677734375
186.767578125
184.9365234375
192.2607421875
191.34521484375
223.388671875
192.2607421875
191.34521484375
195.00732421875
191.34521484375
206.9091796875
216.97998046875
220.64208984375
217.8955078125
203.2470703125
190.4296875
205.99365234375
227.05078125
227.96630859375
234.375
236.2060546875
217.8955078125
220.64208984375
237.12158203125
245.361328125
250.8544921875
243.5302734375
245.361328125
252.685546875
253.60107421875
260.92529296875
248.10791015625
232.5439453125
240.78369140625
260.92529296875
261.8408203125
266.41845703125
262.75634765625
265.5029296875
265.5029296875
276.4892578125
294.7998046875
293.88427734375
278.3203125
290.22216796875
278.3203125
287.4755859375
287.4755859375
281.982421875
272.8271484375
285.64453125
295.71533203125
300.29296875
300.29296875
302.1240234375
303.03955078125
306.70166015625
317.68798828125
320.4345703125
339.66064453125
345.15380859375
325.927734375
333.251953125
326.84326171875
350.64697265625
367.12646484375
361.63330078125
375.3662109375
370.78857421875
375.3662109375
382.6904296875
400.08544921875
397.3388671875
406.494140625
413.818359375
416.56494140625
430.2978515625
417.48046875
434.87548828125
440.36865234375
443.115234375
459.5947265625
470.5810546875
476.98974609375
481.5673828125
489.80712890625
502.62451171875
506.28662109375
509.033203125
509.033203125
527.34375
541.07666015625
540.1611328125
550.23193359375
565.7958984375
557.55615234375
574.951171875
578.61328125
565.7958984375
552.978515625
559.38720703125
569.4580078125
572.20458984375
572.20458984375
573.1201171875
566.71142578125
554.8095703125
562.1337890625
563.04931640625
563.04931640625
559.38720703125
537.41455078125
554.8095703125
549.31640625
515.44189453125
510.8642578125
501.708984375
490.72265625
472.412109375
466.9189453125
451.35498046875
452.2705078125
447.69287109375
422.05810546875
391.845703125
397.3388671875
378.11279296875
356.14013671875
346.0693359375
327.7587890625
317.68798828125
298.4619140625
291.1376953125
281.982421875
275.57373046875
265.5029296875
248.10791015625
239.8681640625
232.5439453125
245.361328125
238.95263671875
239.8681640625
228.8818359375
205.99365234375
202.33154296875
198.66943359375
202.33154296875
193.17626953125
180.35888671875
196.83837890625
205.99365234375
199.5849609375
184.02099609375
171.20361328125
162.04833984375
155.6396484375
164.794921875
171.20361328125
171.20361328125
165.71044921875
164.794921875
170.2880859375
162.9638671875
171.20361328125
184.02099609375
173.03466796875
177.6123046875
175.78125
181.2744140625
177.6123046875
175.78125
188.5986328125
173.9501953125
193.17626953125
201.416015625
202.33154296875
178.52783203125
173.9501953125
177.6123046875
192.2607421875
188.5986328125
168.45703125
169.37255859375
166.6259765625
172.119140625
182.18994140625
175.78125
178.52783203125
185.85205078125
190.4296875
194.091796875
202.33154296875
204.16259765625
195.9228515625
184.02099609375
199.5849609375
204.16259765625
194.091796875
184.02099609375
187.68310546875
193.17626953125
195.9228515625
201.416015625
197.75390625
200.50048828125
199.5849609375
195.9228515625
195.9228515625
185.85205078125
188.5986328125
191.34521484375
183.10546875
166.6259765625
184.02099609375
195.9228515625
183.10546875
180.35888671875
178.52783203125
184.02099609375
187.68310546875
184.02099609375
184.9365234375
183.10546875
179.443359375
174.86572265625
175.78125
174.86572265625
168.45703125
167.54150390625
168.45703125
161.1328125
154.72412109375
149.23095703125
160.21728515625
174.86572265625
157.470703125
147.39990234375
155.6396484375
156.55517578125
157.470703125
160.21728515625
162.04833984375
162.9638671875
153.80859375
151.06201171875
149.23095703125
150.146484375
160.21728515625
166.6259765625
152.89306640625
151.06201171875
152.89306640625
143.73779296875
136.41357421875
147.39990234375
142.822265625
140.9912109375
137.3291015625
140.07568359375
158.38623046875
151.9775390625
141.90673828125
144.6533203125
151.06201171875
152.89306640625
143.73779296875
128.173828125
123.59619140625
126.3427734375
130.92041015625
138.24462890625
131.8359375
148.3154296875
140.9912109375
119.93408203125
131.8359375
127.25830078125
128.173828125
128.173828125
132.75146484375
133.6669921875
120.849609375
119.0185546875
123.59619140625
137.3291015625
136.41357421875
130.92041015625
139.16015625
132.75146484375
130.92041015625
132.75146484375
126.3427734375
138.24462890625
116.27197265625
117.1875
119.0185546875
113.525390625
129.08935546875
130.92041015625
119.93408203125
123.59619140625
122.6806640625
112.60986328125
104.3701171875
120.849609375
124.51171875
115.3564453125
116.27197265625
129.08935546875
140.9912109375
144.6533203125
155.6396484375
121.76513671875
113.525390625
107.11669921875
116.27197265625
112.60986328125
108.0322265625
108.0322265625
109.86328125
114.44091796875
115.3564453125
116.27197265625
116.27197265625
115.3564453125
114.44091796875
118.10302734375
108.0322265625
111.6943359375
113.525390625
111.6943359375
127.25830078125
105.28564453125
108.94775390625
117.1875
106.201171875
103.45458984375
110.77880859375
107.11669921875
108.0322265625
104.3701171875
105.28564453125
102.5390625
114.44091796875
110.77880859375
110.77880859375
108.0322265625
103.45458984375
105.28564453125
111.6943359375
111.6943359375
107.11669921875
99.79248046875
97.0458984375
101.62353515625
104.3701171875
108.0322265625
108.94775390625
108.94775390625
93.3837890625
86.0595703125
89.7216796875
95.21484375
108.94775390625
115.3564453125
114.44091796875
94.29931640625
86.97509765625
92.46826171875
91.552734375
90.63720703125
98.876953125
95.21484375
89.7216796875
95.21484375
93.3837890625
94.29931640625
92.46826171875
87.890625
84.228515625
83.31298828125
84.228515625
79.65087890625
81.48193359375
94.29931640625
94.29931640625
95.21484375
98.876953125
108.94775390625
82.3974609375
77.81982421875
78.7353515625
73.2421875
65.00244140625
84.228515625
96.13037109375
101.62353515625
102.5390625
97.96142578125
90.63720703125
85.14404296875
87.890625
90.63720703125
84.228515625
79.65087890625
86.97509765625
91.552734375
85.14404296875
89.7216796875
103.45458984375
100.7080078125
89.7216796875
95.21484375
89.7216796875
84.228515625
87.890625
78.7353515625
71.4111328125
80.56640625
93.3837890625
89.7216796875
86.97509765625
77.81982421875
85.14404296875
97.96142578125
86.0595703125
66.83349609375
75.98876953125
83.31298828125
95.21484375
82.3974609375
67.7490234375
75.98876953125
94.29931640625
109.86328125
113.525390625
108.0322265625
108.94775390625
113.525390625
111.6943359375
113.525390625
114.44091796875
122.6806640625
105.28564453125
100.7080078125
99.79248046875
91.552734375
95.21484375
95.21484375
94.29931640625
109.86328125
99.79248046875
81.48193359375
65.00244140625
71.4111328125
86.0595703125
87.890625
76.904296875
72.32666015625
90.63720703125
80.56640625
74.15771484375
69.580078125
63.17138671875
77.81982421875
68.66455078125
56.7626953125
54.01611328125
59.50927734375
53.1005859375
63.17138671875
60.4248046875
40.283203125
51.26953125
61.34033203125
58.59375
46.69189453125
43.9453125
48.52294921875
48.52294921875
56.7626953125
56.7626953125
48.52294921875
54.931640625
42.1142578125
37.53662109375
20.1416015625
-1.8310546875
-33.87451171875
-49.4384765625
-44.86083984375
-28.38134765625
13.73291015625
61.34033203125
121.76513671875
214.2333984375
338.7451171875
461.42578125
586.85302734375
734.2529296875
921.93603515625
1102.294921875
1217.6513671875
1285.400390625
1312.8662109375
1259.765625
1169.12841796875
1029.052734375
771.78955078125
463.2568359375
184.9365234375
-130.92041015625
-296.630859375
-314.94140625
-292.05322265625
-260.009765625
-263.671875
-245.361328125
-209.65576171875
-180.35888671875
-142.822265625
-97.96142578125
-53.1005859375
-49.4384765625
-4.57763671875
31.1279296875
37.53662109375
56.7626953125
72.32666015625
71.4111328125
82.3974609375
93.3837890625
95.21484375
97.96142578125
101.62353515625
104.3701171875
100.7080078125
100.7080078125
109.86328125
108.0322265625
108.0322265625
114.44091796875
122.6806640625
115.3564453125
115.3564453125
130.0048828125
136.41357421875
138.24462890625
118.10302734375
118.10302734375
122.6806640625
139.16015625
142.822265625
137.3291015625
140.9912109375
155.6396484375
146.484375
142.822265625
145.56884765625
165.71044921875
162.9638671875
151.06201171875
155.6396484375
158.38623046875
164.794921875
162.9638671875
166.6259765625
156.55517578125
169.37255859375
181.2744140625
175.78125
187.68310546875
199.5849609375
197.75390625
196.83837890625
196.83837890625
195.9228515625
215.14892578125
220.64208984375
222.47314453125
218.81103515625
205.078125
216.064453125
223.388671875
231.62841796875
234.375
239.8681640625
244.44580078125
235.29052734375
242.61474609375
258.1787109375
260.92529296875
261.8408203125
271.91162109375
272.8271484375
284.72900390625
292.96875
302.1240234375
296.630859375
320.4345703125
307.6171875
314.02587890625
326.84326171875
335.99853515625
346.0693359375
349.7314453125
358.88671875
370.78857421875
368.95751953125
378.11279296875
387.26806640625
401.91650390625
410.15625
422.9736328125
417.48046875
418.39599609375
448.6083984375
455.01708984375
450.439453125
465.087890625
465.087890625
469.66552734375
473.32763671875
476.07421875
477.9052734375
476.98974609375
473.32763671875
487.97607421875
482.48291015625
471.49658203125
487.97607421875
488.8916015625
485.2294921875
476.07421875
471.49658203125
468.75
466.9189453125
463.2568359375
471.49658203125
462.34130859375
458.67919921875
433.9599609375
413.818359375
405.57861328125
405.57861328125
398.25439453125
377.197265625
365.29541015625
339.66064453125
329.58984375
320.4345703125
307.6171875
292.96875
280.1513671875
268.24951171875
255.43212890625
237.12158203125
227.05078125
219.7265625
206.9091796875
197.75390625
190.4296875
167.54150390625
157.470703125
156.55517578125
166.6259765625
151.06201171875
116.27197265625
126.3427734375
134.58251953125
130.92041015625
114.44091796875
107.11669921875
112.60986328125
97.96142578125
93.3837890625
95.21484375
91.552734375
89.7216796875
95.21484375
96.13037109375
86.0595703125
102.5390625
104.3701171875
66.83349609375
71.4111328125
82.3974609375
86.0595703125
79.65087890625
96.13037109375
83.31298828125
77.81982421875
83.31298828125
86.97509765625
105.28564453125
97.96142578125
83.31298828125
76.904296875
81.48193359375
90.63720703125
92.46826171875
80.56640625
75.0732421875
81.48193359375
81.48193359375
79.65087890625
83.31298828125
97.0458984375
93.3837890625
102.5390625
124.51171875
119.0185546875
136.41357421875
116.27197265625
104.3701171875
100.7080078125
85.14404296875
90.63720703125
101.62353515625
115.3564453125
109.86328125
109.86328125
109.86328125
112.60986328125
121.76513671875
109.86328125
108.0322265625
111.6943359375
112.60986328125
119.0185546875
110.77880859375
113.525390625
113.525390625
102.5390625
101.62353515625
100.7080078125
105.28564453125
104.3701171875
136.41357421875
130.0048828125
95.21484375
106.201171875
110.77880859375
110.77880859375
97.0458984375
96.13037109375
97.0458984375
92.46826171875
100.7080078125
96.13037109375
96.13037109375
95.21484375
91.552734375
85.14404296875
86.97509765625
105.28564453125
98.876953125
82.3974609375
81.48193359375
86.0595703125
90.63720703125
86.0595703125
79.65087890625
83.31298828125
92.46826171875
100.7080078125
103.45458984375
89.7216796875
79.65087890625
78.7353515625
88.80615234375
98.876953125
74.15771484375
75.0732421875
72.32666015625
70.49560546875
87.890625
90.63720703125
98.876953125
80.56640625
71.4111328125
87.890625
66.83349609375
68.66455078125
82.3974609375
73.2421875
65.00244140625
69.580078125
79.65087890625
69.580078125
65.91796875
75.0732421875
78.7353515625
74.15771484375
75.0732421875
75.0732421875
73.2421875
69.580078125
63.17138671875
67.7490234375
79.65087890625
73.2421875
52.18505859375
76.904296875
67.7490234375
62.255859375
71.4111328125
74.15771484375
75.98876953125
72.32666015625
69.580078125
74.15771484375
72.32666015625
68.66455078125
72.32666015625
79.65087890625
80.56640625
94.29931640625
98.876953125
68.66455078125
59.50927734375
51.26953125
68.66455078125
89.7216796875
71.4111328125
66.83349609375
59.50927734375
70.49560546875
69.580078125
58.59375
61.34033203125
58.59375
53.1005859375
44.86083984375
74.15771484375
75.0732421875
68.66455078125
68.66455078125
72.32666015625
80.56640625
71.4111328125
68.66455078125
61.34033203125
66.83349609375
65.91796875
66.83349609375
73.2421875
60.4248046875
52.18505859375
60.4248046875
65.91796875
61.34033203125
65.91796875
65.00244140625
61.34033203125
64.0869140625
80.56640625
68.66455078125
56.7626953125
54.931640625
45.7763671875
64.0869140625
69.580078125
59.50927734375
65.00244140625
61.34033203125
65.00244140625
85.14404296875
80.56640625
35.70556640625
50.35400390625
53.1005859375
60.4248046875
65.00244140625
50.35400390625
54.01611328125
56.7626953125
63.17138671875
66.83349609375
68.66455078125
67.7490234375
63.17138671875
62.255859375
55.84716796875
55.84716796875
65.00244140625
63.17138671875
62.255859375
70.49560546875
70.49560546875
65.91796875
64.0869140625
87.890625
56.7626953125
44.86083984375
61.34033203125
58.59375
61.34033203125
61.34033203125
65.00244140625
73.2421875
66.83349609375
65.00244140625
61.34033203125
52.18505859375
56.7626953125
64.0869140625
59.50927734375
58.59375
73.2421875
92.46826171875
76.904296875
59.50927734375
64.0869140625
64.0869140625
62.255859375
58.59375
60.4248046875
58.59375
65.00244140625
66.83349609375
61.34033203125
56.7626953125
57.67822265625
72.32666015625
66.83349609375
72.32666015625
72.32666015625
68.66455078125
74.15771484375
78.7353515625
71.4111328125
67.7490234375
65.00244140625
54.931640625
49.4384765625
46.69189453125
54.01611328125
63.17138671875
86.97509765625
77.81982421875
77.81982421875
74.15771484375
63.17138671875
69.580078125
76.904296875
66.83349609375
71.4111328125
75.98876953125
64.0869140625
63.17138671875
65.00244140625
77.81982421875
95.21484375
107.11669921875
112.60986328125
112.60986328125
116.27197265625
116.27197265625
111.6943359375
107.11669921875
106.201171875
91.552734375
90.63720703125
109.86328125
90.63720703125
99.79248046875
100.7080078125
98.876953125
82.3974609375
68.66455078125
81.48193359375
82.3974609375
82.3974609375
74.15771484375
73.2421875
75.0732421875
72.32666015625
69.580078125
76.904296875
97.0458984375
72.32666015625
73.2421875
80.56640625
67.7490234375
58.59375
44.86083984375
42.1142578125
46.69189453125
61.34033203125
73.2421875
45.7763671875
47.607421875
62.255859375
64.0869140625
78.7353515625
63.17138671875
44.86083984375
64.0869140625
57.67822265625
48.52294921875
52.18505859375
57.67822265625
53.1005859375
48.52294921875
35.70556640625
16.4794921875
-5.4931640625
-26.55029296875
-43.9453125
-24.71923828125
15.56396484375
53.1005859375
101.62353515625
180.35888671875
279.23583984375
407.40966796875
527.34375
652.77099609375
828.55224609375
1019.8974609375
1178.28369140625
1268.9208984375
1334.8388671875
1335.75439453125
1276.2451171875
1189.27001953125
1004.33349609375
723.2666015625
458.67919921875
185.85205078125
-158.38623046875
-296.630859375
-309.4482421875
-287.4755859375
-263.671875
-250.8544921875
-219.7265625
-174.86572265625
-121.76513671875
-84.228515625
-56.7626953125
-12.8173828125
21.05712890625
41.19873046875
57.67822265625
75.0732421875
93.3837890625
96.13037109375
96.13037109375
96.13037109375
100.7080078125
108.0322265625
116.27197265625
119.93408203125
116.27197265625
119.93408203125
125.42724609375
130.92041015625
132.75146484375
140.07568359375
135.498046875
143.73779296875
138.24462890625
136.41357421875
140.9912109375
147.39990234375
142.822265625
140.9912109375
164.794921875
155.6396484375
142.822265625
168.45703125
194.091796875
160.21728515625
156.55517578125
158.38623046875
158.38623046875
156.55517578125
171.20361328125
173.9501953125
173.03466796875
173.03466796875
178.52783203125
174.86572265625
177.6123046875
179.443359375
195.9228515625
206.9091796875
190.4296875
173.03466796875
179.443359375
183.10546875
190.4296875
197.75390625
205.99365234375
209.65576171875
207.82470703125
212.40234375
211.48681640625
220.64208984375
225.2197265625
234.375
238.95263671875
234.375
233.45947265625
246.27685546875
247.1923828125
246.27685546875
252.685546875
259.09423828125
270.99609375
273.74267578125
287.4755859375
303.03955078125
284.72900390625
294.7998046875
295.71533203125
303.03955078125
334.16748046875
325.927734375
334.16748046875
327.7587890625
331.4208984375
346.0693359375
355.224609375
364.3798828125
374.45068359375
390.0146484375
388.18359375
396.42333984375
407.40966796875
429.38232421875
446.77734375
429.38232421875
427.55126953125
422.05810546875
427.55126953125
444.03076171875
444.9462890625
444.9462890625
470.5810546875
462.34130859375
465.087890625
468.75
473.32763671875
467.83447265625
484.31396484375
491.63818359375
484.31396484375
487.060546875
491.63818359375
485.2294921875
478.82080078125
471.49658203125
463.2568359375
466.9189453125
463.2568359375
456.84814453125
454.1015625
440.36865234375
434.87548828125
420.22705078125
401.0009765625
392.76123046875
376.28173828125
368.0419921875
353.3935546875
335.99853515625
323.18115234375
307.6171875
287.4755859375
277.40478515625
260.009765625
250.8544921875
240.78369140625
229.79736328125
232.5439453125
239.8681640625
210.5712890625
187.68310546875
164.794921875
159.3017578125
152.89306640625
156.55517578125
148.3154296875
121.76513671875
122.6806640625
124.51171875
114.44091796875
97.0458984375
88.80615234375
86.0595703125
89.7216796875
95.21484375
91.552734375
92.46826171875
91.552734375
87.890625
92.46826171875
90.63720703125
88.80615234375
86.97509765625
77.81982421875
76.904296875
72.32666015625
73.2421875
86.97509765625
91.552734375
71.4111328125
72.32666015625
79.65087890625
79.65087890625
82.3974609375
83.31298828125
94.29931640625
88.80615234375
95.21484375
83.31298828125
86.0595703125
80.56640625
74.15771484375
88.80615234375
94.29931640625
86.97509765625
104.3701171875
99.79248046875
86.97509765625
88.80615234375
88.80615234375
85.14404296875
86.0595703125
95.21484375
91.552734375
105.28564453125
115.3564453125
97.0458984375
90.63720703125
118.10302734375
108.94775390625
100.7080078125
97.0458984375
103.45458984375
105.28564453125
98.876953125
105.28564453125
120.849609375
119.0185546875
114.44091796875
124.51171875
114.44091796875
101.62353515625
110.77880859375
112.60986328125
107.11669921875
119.93408203125
104.3701171875
98.876953125
102.5390625
116.27197265625
109.86328125
103.45458984375
108.94775390625
106.201171875
100.7080078125
95.21484375
95.21484375
105.28564453125
97.0458984375
102.5390625
102.5390625
105.28564453125
94.29931640625
95.21484375
93.3837890625
87.890625
80.56640625
88.80615234375
95.21484375
90.63720703125
89.7216796875
90.63720703125
84.228515625
90.63720703125
94.29931640625
89.7216796875
77.81982421875
78.7353515625
69.580078125
65.00244140625
78.7353515625
85.14404296875
87.890625
94.29931640625
83.31298828125
68.66455078125
81.48193359375
75.0732421875
65.91796875
65.00244140625
64.0869140625
75.0732421875
78.7353515625
75.98876953125
72.32666015625
73.2421875
77.81982421875
76.904296875
91.552734375
87.890625
79.65087890625
65.00244140625
59.50927734375
60.4248046875
69.580078125
88.80615234375
77.81982421875
75.0732421875
73.2421875
75.0732421875
67.7490234375
66.83349609375
67.7490234375
64.0869140625
62.255859375
54.931640625
54.931640625
67.7490234375
64.0869140625
71.4111328125
86.0595703125
59.50927734375
61.34033203125
68.66455078125
62.255859375
57.67822265625
62.255859375
64.0869140625
61.34033203125
58.59375
62.255859375
68.66455078125
65.91796875
75.0732421875
87.890625
69.580078125
69.580078125
42.1142578125
63.17138671875
59.50927734375
56.7626953125
63.17138671875
70.49560546875
69.580078125
71.4111328125
63.17138671875
65.91796875
68.66455078125
54.931640625
56.7626953125
70.49560546875
59.50927734375
49.4384765625
60.4248046875
59.50927734375
65.91796875
70.49560546875
69.580078125
75.98876953125
80.56640625
86.97509765625
69.580078125
54.931640625
54.01611328125
60.4248046875
55.84716796875
50.35400390625
44.86083984375
49.4384765625
56.7626953125
64.0869140625
63.17138671875
63.17138671875
51.26953125
58.59375
57.67822265625
72.32666015625
75.0732421875
49.4384765625
61.34033203125
61.34033203125
62.255859375
56.7626953125
47.607421875
54.01611328125
59.50927734375
65.00244140625
56.7626953125
80.56640625
81.48193359375
59.50927734375
61.34033203125
57.67822265625
49.4384765625
58.59375
64.0869140625
60.4248046875
56.7626953125
47.607421875
61.34033203125
75.98876953125
57.67822265625
51.26953125
42.1142578125
37.53662109375
42.1142578125
54.931640625
56.7626953125
65.91796875
71.4111328125
71.4111328125
89.7216796875
57.67822265625
51.26953125
54.931640625
51.26953125
49.4384765625
49.4384765625
56.7626953125
68.66455078125
56.7626953125
50.35400390625
63.17138671875
73.2421875
71.4111328125
62.255859375
60.4248046875
62.255859375
57.67822265625
86.0595703125
84.228515625
40.283203125
44.86083984375
55.84716796875
60.4248046875
52.18505859375
55.84716796875
59.50927734375
58.59375
55.84716796875
50.35400390625
49.4384765625
44.86083984375
58.59375
68.66455078125
65.91796875
69.580078125
85.14404296875
75.98876953125
63.17138671875
60.4248046875
55.84716796875
51.26953125
48.52294921875
42.1142578125
43.02978515625
51.26953125
44.86083984375
41.19873046875
56.7626953125
79.65087890625
81.48193359375
74.15771484375
86.97509765625
68.66455078125
74.15771484375
76.904296875
72.32666015625
57.67822265625
59.50927734375
54.01611328125
58.59375
65.00244140625
56.7626953125
51.26953125
71.4111328125
70.49560546875
47.607421875
62.255859375
79.65087890625
76.904296875
92.46826171875
86.0595703125
102.5390625
115.3564453125
90.63720703125
87.890625
92.46826171875
82.3974609375
87.890625
92.46826171875
82.3974609375
75.0732421875
75.0732421875
81.48193359375
77.81982421875
58.59375
66.83349609375
75.0732421875
81.48193359375
66.83349609375
62.255859375
67.7490234375
66.83349609375
61.34033203125
70.49560546875
67.7490234375
63.17138671875
64.0869140625
65.91796875
59.50927734375
63.17138671875
58.59375
52.18505859375
63.17138671875
45.7763671875
30.21240234375
31.1279296875
30.21240234375
40.283203125
46.69189453125
39.36767578125
50.35400390625
43.02978515625
37.53662109375
52.18505859375
43.9453125
48.52294921875
45.7763671875
48.52294921875
44.86083984375
37.53662109375
22.88818359375
12.8173828125
-14.6484375
-40.283203125
-32.04345703125
13.73291015625
21.97265625
41.19873046875
97.96142578125
169.37255859375
270.08056640625
402.83203125
526.42822265625
626.220703125
804.74853515625
1007.99560546875
1181.94580078125
1246.03271484375
1292.724609375
1296.38671875
1235.04638671875
1120.60546875
915.52734375
630.79833984375
379.0283203125
108.94775390625
-176.69677734375
-292.05322265625
-302.1240234375
-287.4755859375
-268.24951171875
-246.27685546875
-214.2333984375
-168.45703125
-128.173828125
-77.81982421875
-63.17138671875
-39.36767578125
-1.8310546875
37.53662109375
54.931640625
65.00244140625
73.2421875
87.890625
113.525390625
112.60986328125
102.5390625
91.552734375
90.63720703125
99.79248046875
106.201171875
96.13037109375
90.63720703125
95.21484375
108.94775390625
99.79248046875
103.45458984375
111.6943359375
124.51171875
130.0048828125
127.25830078125
137.3291015625
152.89306640625
155.6396484375
127.25830078125
130.92041015625
137.3291015625
134.58251953125
136.41357421875
143.73779296875
140.07568359375
132.75146484375
143.73779296875
149.23095703125
152.89306640625
159.3017578125
183.10546875
161.1328125
151.06201171875
161.1328125
161.1328125
162.04833984375
181.2744140625
186.767578125
190.4296875
189.51416015625
163.87939453125
177.6123046875
187.68310546875
186.767578125
190.4296875
184.02099609375
187.68310546875
196.83837890625
214.2333984375
218.81103515625
216.064453125
221.5576171875
229.79736328125
233.45947265625
222.47314453125
232.5439453125
238.037109375
250.8544921875
256.34765625
245.361328125
242.61474609375
255.43212890625
260.009765625
278.3203125
294.7998046875
274.658203125
283.8134765625
300.29296875
306.70166015625
307.6171875
310.36376953125
314.02587890625
325.927734375
341.49169921875
348.81591796875
358.88671875
381.77490234375
377.197265625
384.521484375
398.25439453125
390.0146484375
395.5078125
399.169921875
400.08544921875
416.56494140625
424.8046875
431.21337890625
435.791015625
441.2841796875
452.2705078125
455.9326171875
453.18603515625
458.67919921875
476.07421875
478.82080078125
456.84814453125
465.087890625
465.087890625
474.2431640625
466.00341796875
465.087890625
469.66552734375
462.34130859375
461.42578125
460.51025390625
464.17236328125
463.2568359375
450.439453125
438.53759765625
423.88916015625
415.6494140625
412.90283203125
402.83203125
389.09912109375
368.0419921875
350.64697265625
339.66064453125
327.7587890625
321.35009765625
318.603515625
306.70166015625
287.4755859375
279.23583984375
258.1787109375
231.62841796875
221.5576171875
210.5712890625
199.5849609375
194.091796875
197.75390625
211.48681640625
151.9775390625
155.6396484375
155.6396484375
139.16015625
132.75146484375
125.42724609375
122.6806640625
114.44091796875
110.77880859375
101.62353515625
104.3701171875
125.42724609375
117.1875
97.0458984375
77.81982421875
78.7353515625
75.0732421875
75.0732421875
80.56640625
88.80615234375
82.3974609375
64.0869140625
69.580078125
77.81982421875
77.81982421875
75.98876953125
66.83349609375
68.66455078125
72.32666015625
68.66455078125
81.48193359375
86.97509765625
82.3974609375
81.48193359375
95.21484375
94.29931640625
90.63720703125
79.65087890625
87.890625
86.97509765625
77.81982421875
76.904296875
78.7353515625
80.56640625
80.56640625
73.2421875
75.0732421875
77.81982421875
88.80615234375
95.21484375
96.13037109375
91.552734375
96.13037109375
105.28564453125
106.201171875
95.21484375
97.0458984375
98.876953125
96.13037109375
107.11669921875
108.0322265625
99.79248046875
95.21484375
97.0458984375
104.3701171875
106.201171875
101.62353515625
109.86328125
130.92041015625
104.3701171875
91.552734375
89.7216796875
100.7080078125
98.876953125
99.79248046875
107.11669921875
113.525390625
102.5390625
100.7080078125
98.876953125
85.14404296875
90.63720703125
109.86328125
103.45458984375
90.63720703125
109.86328125
98.876953125
90.63720703125
93.3837890625
103.45458984375
95.21484375
93.3837890625
95.21484375
80.56640625
76.904296875
77.81982421875
71.4111328125
80.56640625
97.96142578125
95.21484375
86.97509765625
77.81982421875
75.98876953125
69.580078125
79.65087890625
78.7353515625
70.49560546875
72.32666015625
75.0732421875
77.81982421875
75.0732421875
77.81982421875
74.15771484375
69.580078125
67.7490234375
72.32666015625
69.580078125
60.4248046875
61.34033203125
61.34033203125
62.255859375
63.17138671875
52.18505859375
52.18505859375
62.255859375
64.0869140625
76.904296875
72.32666015625
64.0869140625
75.98876953125
85.14404296875
79.65087890625
63.17138671875
64.0869140625
64.0869140625
72.32666015625
57.67822265625
58.59375
60.4248046875
51.26953125
44.86083984375
48.52294921875
43.02978515625
53.1005859375
65.91796875
59.50927734375
54.01611328125
64.0869140625
61.34033203125
55.84716796875
60.4248046875
54.01611328125
61.34033203125
54.931640625
51.26953125
71.4111328125
58.59375
60.4248046875
62.255859375
54.01611328125
36.62109375
49.4384765625
46.69189453125
44.86083984375
55.84716796875
59.50927734375
53.1005859375
45.7763671875
49.4384765625
57.67822265625
52.18505859375
66.83349609375
71.4111328125
51.26953125
53.1005859375
43.02978515625
61.34033203125
57.67822265625
53.1005859375
59.50927734375
56.7626953125
43.9453125
45.7763671875
52.18505859375
43.9453125
39.36767578125
43.02978515625
49.4384765625
45.7763671875
47.607421875
43.02978515625
39.36767578125
57.67822265625
45.7763671875
44.86083984375
54.01611328125
46.69189453125
49.4384765625
60.4248046875
61.34033203125
73.2421875
92.46826171875
63.17138671875
52.18505859375
50.35400390625
42.1142578125
43.02978515625
56.7626953125
57.67822265625
46.69189453125
52.18505859375
54.931640625
58.59375
69.580078125
48.52294921875
47.607421875
40.283203125
37.53662109375
38.4521484375
43.02978515625
47.607421875
50.35400390625
56.7626953125
57.67822265625
63.17138671875
64.0869140625
58.59375
34.7900390625
33.87451171875
45.7763671875
44.86083984375
45.7763671875
51.26953125
44.86083984375
34.7900390625
33.87451171875
43.9453125
41.19873046875
23.8037109375
29.296875
42.1142578125
49.4384765625
47.607421875
42.1142578125
55.84716796875
57.67822265625
51.26953125
45.7763671875
58.59375
61.34033203125
43.9453125
39.36767578125
43.02978515625
39.36767578125
46.69189453125
40.283203125
33.87451171875
52.18505859375
49.4384765625
49.4384765625
48.52294921875
40.283203125
22.88818359375
32.04345703125
43.02978515625
44.86083984375
48.52294921875
48.52294921875
46.69189453125
46.69189453125
39.36767578125
38.4521484375
42.1142578125
47.607421875
43.9453125
38.4521484375
42.1142578125
33.87451171875
41.19873046875
47.607421875
55.84716796875
48.52294921875
28.38134765625
31.1279296875
24.71923828125
16.4794921875
34.7900390625
32.958984375
37.53662109375
39.36767578125
42.1142578125
43.02978515625
39.36767578125
32.958984375
49.4384765625
62.255859375
50.35400390625
36.62109375
52.18505859375
46.69189453125
32.04345703125
31.1279296875
33.87451171875
36.62109375
42.1142578125
49.4384765625
48.52294921875
52.18505859375
45.7763671875
38.4521484375
39.36767578125
51.26953125
60.4248046875
72.32666015625
74.15771484375
85.14404296875
111.6943359375
66.83349609375
65.91796875
75.98876953125
68.66455078125
63.17138671875
62.255859375
65.00244140625
58.59375
54.931640625
47.607421875
42.1142578125
55.84716796875
50.35400390625
47.607421875
52.18505859375
49.4384765625
56.7626953125
47.607421875
40.283203125
33.87451171875
36.62109375
41.19873046875
48.52294921875
44.86083984375
55.84716796875
43.9453125
22.88818359375
34.7900390625
10.07080078125
3.662109375
18.310546875
36.62109375
43.9453125
25.634765625
28.38134765625
31.1279296875
39.36767578125
31.1279296875
25.634765625
34.7900390625
27.4658203125
25.634765625
30.21240234375
20.1416015625
22.88818359375
18.310546875
22.88818359375
4.57763671875
-5.4931640625
-41.19873046875
-63.17138671875
-54.01611328125
-41.19873046875
-7.32421875
27.4658203125
68.66455078125
137.3291015625
234.375
351.5625
472.412109375
608.82568359375
771.78955078125
975.03662109375
1138.916015625
1234.130859375
1280.82275390625
1284.48486328125
1224.06005859375
1105.95703125
912.78076171875
645.44677734375
397.3388671875
120.849609375
-184.9365234375
-319.51904296875
-333.251953125
-315.85693359375
-281.982421875
-274.658203125
-227.96630859375
-197.75390625
-165.71044921875
-121.76513671875
-90.63720703125
-46.69189453125
-10.07080078125
13.73291015625
35.70556640625
52.18505859375
63.17138671875
65.00244140625
63.17138671875
67.7490234375
66.83349609375
75.0732421875
79.65087890625
81.48193359375
79.65087890625
64.0869140625
75.98876953125
85.14404296875
84.228515625
89.7216796875
95.21484375
104.3701171875
106.201171875
98.876953125
116.27197265625
117.1875
105.28564453125
109.86328125
113.525390625
118.10302734375
129.08935546875
116.27197265625
115.3564453125
125.42724609375
136.41357421875
135.498046875
116.27197265625
125.42724609375
138.24462890625
128.173828125
129.08935546875
127.25830078125
129.08935546875
137.3291015625
151.9775390625
142.822265625
144.6533203125
148.3154296875
146.484375
152.89306640625
149.23095703125
162.04833984375
156.55517578125
166.6259765625
170.2880859375
162.9638671875
174.86572265625
168.45703125
190.4296875
194.091796875
188.5986328125
192.2607421875
186.767578125
178.52783203125
187.68310546875
208.740234375
208.740234375
216.97998046875
223.388671875
220.64208984375
225.2197265625
227.96630859375
230.712890625
247.1923828125
275.57373046875
280.1513671875
270.08056640625
282.89794921875
292.96875
303.955078125
302.1240234375
294.7998046875
302.1240234375
312.19482421875
314.94140625
326.84326171875
347.900390625
355.224609375
355.224609375
365.29541015625
358.88671875
358.88671875
370.78857421875
381.77490234375
395.5078125
410.15625
415.6494140625
413.818359375
428.466796875
452.2705078125
427.55126953125
422.05810546875
431.21337890625
434.87548828125
438.53759765625
433.04443359375
435.791015625
443.115234375
451.35498046875
448.6083984375
448.6083984375
447.69287109375
446.77734375
444.9462890625
442.19970703125
452.2705078125
439.453125
427.55126953125
418.39599609375
403.74755859375
401.91650390625
394.59228515625
377.197265625
355.224609375
343.32275390625
328.67431640625
316.7724609375
301.20849609375
303.955078125
297.54638671875
284.72900390625
264.58740234375
243.5302734375
231.62841796875
212.40234375
201.416015625
188.5986328125
185.85205078125
172.119140625
170.2880859375
162.04833984375
143.73779296875
131.8359375
127.25830078125
119.0185546875
118.10302734375
108.0322265625
93.3837890625
89.7216796875
86.0595703125
85.14404296875
82.3974609375
75.0732421875
78.7353515625
69.580078125
70.49560546875
74.15771484375
60.4248046875
65.91796875
65.91796875
65.00244140625
57.67822265625
51.26953125
48.52294921875
54.01611328125
70.49560546875
85.14404296875
74.15771484375
63.17138671875
60.4248046875
58.59375
46.69189453125
59.50927734375
57.67822265625
54.01611328125
50.35400390625
50.35400390625
56.7626953125
60.4248046875
56.7626953125
65.91796875
72.32666015625
58.59375
61.34033203125
65.91796875
66.83349609375
65.91796875
54.01611328125
53.1005859375
52.18505859375
65.91796875
69.580078125
65.91796875
66.83349609375
75.98876953125
95.21484375
104.3701171875
91.552734375
67.7490234375
75.0732421875
73.2421875
72.32666015625
69.580078125
60.4248046875
73.2421875
80.56640625
76.904296875
76.904296875
75.0732421875
67.7490234375
79.65087890625
71.4111328125
68.66455078125
87.890625
84.228515625
89.7216796875
82.3974609375
86.0595703125
87.890625
83.31298828125
80.56640625
92.46826171875
81.48193359375
77.81982421875
83.31298828125
74.15771484375
74.15771484375
72.32666015625
61.34033203125
63.17138671875
75.98876953125
76.904296875
82.3974609375
69.580078125
75.0732421875
74.15771484375
54.01611328125
58.59375
56.7626953125
59.50927734375
55.84716796875
54.01611328125
58.59375
67.7490234375
68.66455078125
60.4248046875
57.67822265625
57.67822265625
58.59375
45.7763671875
50.35400390625
44.86083984375
51.26953125
54.01611328125
52.18505859375
48.52294921875
47.607421875
46.69189453125
48.52294921875
57.67822265625
62.255859375
62.255859375
34.7900390625
27.4658203125
48.52294921875
38.4521484375
40.283203125
43.9453125
35.70556640625
45.7763671875
41.19873046875
40.283203125
42.1142578125
40.283203125
32.04345703125
38.4521484375
37.53662109375
34.7900390625
37.53662109375
27.4658203125
49.4384765625
52.18505859375
27.4658203125
33.87451171875
33.87451171875
32.958984375
32.958984375
23.8037109375
29.296875
32.958984375
31.1279296875
31.1279296875
27.4658203125
28.38134765625
22.88818359375
21.97265625
17.39501953125
22.88818359375
21.97265625
21.05712890625
32.04345703125
28.38134765625
32.04345703125
31.1279296875
29.296875
20.1416015625
28.38134765625
33.87451171875
30.21240234375
20.1416015625
20.1416015625
14.6484375
24.71923828125
28.38134765625
21.97265625
21.97265625
21.97265625
10.986328125
12.8173828125
24.71923828125
27.4658203125
21.97265625
26.55029296875
25.634765625
23.8037109375
21.97265625
27.4658203125
29.296875
31.1279296875
36.62109375
27.4658203125
14.6484375
21.97265625
9.1552734375
18.310546875
16.4794921875
31.1279296875
23.8037109375
5.4931640625
13.73291015625
16.4794921875
25.634765625
27.4658203125
22.88818359375
20.1416015625
18.310546875
13.73291015625
20.1416015625
11.90185546875
13.73291015625
14.6484375
19.22607421875
23.8037109375
16.4794921875
10.07080078125
5.4931640625
1.8310546875
16.4794921875
26.55029296875
16.4794921875
23.8037109375
22.88818359375
15.56396484375
9.1552734375
4.57763671875
8.23974609375
16.4794921875
13.73291015625
13.73291015625
14.6484375
17.39501953125
15.56396484375
15.56396484375
21.97265625
26.55029296875
6.40869140625
3.662109375
11.90185546875
14.6484375
11.90185546875
20.1416015625
21.05712890625
28.38134765625
25.634765625
21.97265625
23.8037109375
10.986328125
25.634765625
32.958984375
14.6484375
0.91552734375
-4.57763671875
12.8173828125
15.56396484375
10.986328125
19.22607421875
5.4931640625
1.8310546875
8.23974609375
8.23974609375
4.57763671875
4.57763671875
7.32421875
19.22607421875
13.73291015625
16.4794921875
7.32421875
14.6484375
8.23974609375
-0.91552734375
1.8310546875
16.4794921875
12.8173828125
10.986328125
13.73291015625
3.662109375
32.04345703125
7.32421875
-10.07080078125
5.4931640625
0.91552734375
-5.4931640625
0
10.07080078125
12.8173828125
13.73291015625
2.74658203125
4.57763671875
6.40869140625
18.310546875
19.22607421875
19.22607421875
13.73291015625
9.1552734375
15.56396484375
18.310546875
13.73291015625
7.32421875
9.1552734375
0.91552734375
13.73291015625
6.40869140625
4.57763671875
6.40869140625
6.40869140625
10.07080078125
9.1552734375
15.56396484375
16.4794921875
15.56396484375
12.8173828125
17.39501953125
12.8173828125
13.73291015625
4.57763671875
-3.662109375
0
9.1552734375
26.55029296875
31.1279296875
36.62109375
40.283203125
43.02978515625
50.35400390625
56.7626953125
54.931640625
26.55029296875
25.634765625
28.38134765625
21.97265625
14.6484375
17.39501953125
21.05712890625
24.71923828125
12.8173828125
5.4931640625
9.1552734375
6.40869140625
1.8310546875
2.74658203125
1.8310546875
11.90185546875
17.39501953125
10.986328125
6.40869140625
8.23974609375
5.4931640625
1.8310546875
2.74658203125
-4.57763671875
-15.56396484375
-15.56396484375
-21.05712890625
-22.88818359375
-24.71923828125
-14.6484375
-10.07080078125
-18.310546875
-21.97265625
-8.23974609375
-8.23974609375
-12.8173828125
-20.1416015625
-28.38134765625
-26.55029296875
-17.39501953125
-23.8037109375
-21.05712890625
-19.22607421875
-22.88818359375
-44.86083984375
-58.59375
-65.91796875
-102.5390625
-117.1875
-82.3974609375
-53.1005859375
-22.88818359375
22.88818359375
112.60986328125
224.30419921875
334.16748046875
456.84814453125
587.7685546875
758.056640625
963.134765625
1120.60546875
1193.84765625
1240.53955078125
1227.72216796875
1166.3818359375
1030.8837890625
817.56591796875
529.1748046875
272.8271484375
2.74658203125
-274.658203125
-376.28173828125
-378.11279296875
-350.64697265625
-334.16748046875
-314.02587890625
-282.89794921875
-243.5302734375
-213.31787109375
-183.10546875
-139.16015625
-100.7080078125
-66.83349609375
-33.87451171875
-15.56396484375
3.662109375
5.4931640625
17.39501953125
20.1416015625
18.310546875
16.4794921875
13.73291015625
21.05712890625
27.4658203125
17.39501953125
11.90185546875
16.4794921875
23.8037109375
35.70556640625
43.02978515625
46.69189453125
44.86083984375
43.9453125
41.19873046875
50.35400390625
70.49560546875
65.91796875
54.01611328125
56.7626953125
51.26953125
53.1005859375
56.7626953125
54.01611328125
55.84716796875
59.50927734375
64.0869140625
67.7490234375
72.32666015625
75.0732421875
72.32666015625
65.91796875
74.15771484375
89.7216796875
89.7216796875
77.81982421875
75.0732421875
76.904296875
84.228515625
91.552734375
91.552734375
90.63720703125
97.96142578125
96.13037109375
95.21484375
93.3837890625
98.876953125
110.77880859375
115.3564453125
124.51171875
121.76513671875
124.51171875
124.51171875
122.6806640625
132.75146484375
124.51171875
130.92041015625
138.24462890625
145.56884765625
150.146484375
154.72412109375
151.9775390625
151.9775390625
157.470703125
173.9501953125
184.02099609375
190.4296875
192.2607421875
203.2470703125
206.9091796875
219.7265625
222.47314453125
221.5576171875
240.78369140625
242.61474609375
231.62841796875
248.10791015625
257.26318359375
279.23583984375
277.40478515625
289.306640625
292.96875
288.39111328125
294.7998046875
314.02587890625
315.85693359375
325.01220703125
339.66064453125
346.98486328125
354.30908203125
354.30908203125
350.64697265625
358.88671875
353.3935546875
360.7177734375
368.0419921875
376.28173828125
388.18359375
376.28173828125
363.46435546875
363.46435546875
366.2109375
349.7314453125
348.81591796875
365.29541015625
368.0419921875
366.2109375
364.3798828125
347.900390625
330.50537109375
325.927734375
313.1103515625
303.955078125
293.88427734375
280.1513671875
269.1650390625
249.0234375
236.2060546875
238.037109375
224.30419921875
201.416015625
184.02099609375
173.9501953125
162.9638671875
150.146484375
135.498046875
123.59619140625
113.525390625
101.62353515625
82.3974609375
73.2421875
64.0869140625
54.931640625
35.70556640625
38.4521484375
31.1279296875
12.8173828125
7.32421875
8.23974609375
10.07080078125
15.56396484375
12.8173828125
1.8310546875
-15.56396484375
-30.21240234375
-34.7900390625
-52.18505859375
-49.4384765625
-40.283203125
-25.634765625
-37.53662109375
-38.4521484375
-36.62109375
-39.36767578125
-45.7763671875
-59.50927734375
-60.4248046875
-59.50927734375
-51.26953125
-47.607421875
-41.19873046875
-44.86083984375
-52.18505859375
-51.26953125
-46.69189453125
-47.607421875
-43.9453125
-39.36767578125
-46.69189453125
-47.607421875
-49.4384765625
-41.19873046875
-39.36767578125
-38.4521484375
-38.4521484375
-44.86083984375
-48.52294921875
-46.69189453125
-40.283203125
-31.1279296875
-33.87451171875
-29.296875
-23.8037109375
-28.38134765625
-27.4658203125
-23.8037109375
-23.8037109375
-38.4521484375
-42.1142578125
-45.7763671875
-41.19873046875
-34.7900390625
-35.70556640625
-29.296875
-35.70556640625
-41.19873046875
-33.87451171875
-32.04345703125
-41.19873046875
-32.04345703125
-26.55029296875
-27.4658203125
-31.1279296875
-32.04345703125
-30.21240234375
-40.283203125
-41.19873046875
-33.87451171875
-39.36767578125
-33.87451171875
-32.04345703125
-30.21240234375
-30.21240234375
-20.1416015625
-53.1005859375
-48.52294921875
-48.52294921875
-51.26953125
-53.1005859375
-47.607421875
-47.607421875
-41.19873046875
-32.04345703125
-37.53662109375
-41.19873046875
-50.35400390625
-60.4248046875
-61.34033203125
-46.69189453125
-53.1005859375
-54.931640625
-62.255859375
-64.0869140625
-63.17138671875
-55.84716796875
-52.18505859375
-50.35400390625
-63.17138671875
-64.0869140625
-60.4248046875
-55.84716796875
-63.17138671875
-70.49560546875
-64.0869140625
-59.50927734375
-69.580078125
-70.49560546875
-63.17138671875
-71.4111328125
-70.49560546875
-75.0732421875
-76.904296875
-78.7353515625
-70.49560546875
-81.48193359375
-74.15771484375
-65.00244140625
-72.32666015625
-71.4111328125
-78.7353515625
-75.98876953125
-62.255859375
-73.2421875
-82.3974609375
-81.48193359375
-86.0595703125
-70.49560546875
-67.7490234375
-73.2421875
-70.49560546875
-84.228515625
-84.228515625
-78.7353515625
-94.29931640625
-89.7216796875
-82.3974609375
-80.56640625
-86.97509765625
-87.890625
-90.63720703125
-80.56640625
-82.3974609375
-75.98876953125
-73.2421875
-65.00244140625
-90.63720703125
-97.0458984375
-85.14404296875
-85.14404296875
-90.63720703125
-88.80615234375
-97.0458984375
-88.80615234375
-86.97509765625
-88.80615234375
-86.0595703125
-93.3837890625
-92.46826171875
-86.97509765625
-85.14404296875
-81.48193359375
-90.63720703125
-89.7216796875
-94.29931640625
-91.552734375
-91.552734375
-95.21484375
-82.3974609375
-83.31298828125
-84.228515625
-74.15771484375
-90.63720703125
-91.552734375
-97.96142578125
-94.29931640625
-86.0595703125
-79.65087890625
-90.63720703125
-97.0458984375
-90.63720703125
-94.29931640625
-95.21484375
-97.0458984375
-100.7080078125
-94.29931640625
-91.552734375
-104.3701171875
-86.97509765625
-84.228515625
-93.3837890625
-99.79248046875
-96.13037109375
-99.79248046875
-108.0322265625
-92.46826171875
-97.96142578125
-105.28564453125
-102.5390625
-98.876953125
-101.62353515625
-86.97509765625
-93.3837890625
-97.0458984375
-102.5390625
-104.3701171875
-91.552734375
-91.552734375
-100.7080078125
-93.3837890625
-93.3837890625
-92.46826171875
-91.552734375
-96.13037109375
-101.62353515625
-108.0322265625
-91.552734375
-92.46826171875
-86.97509765625
-86.97509765625
-97.96142578125
-87.890625
-82.3974609375
-93.3837890625
-98.876953125
-101.62353515625
-96.13037109375
-100.7080078125
-104.3701171875
-112.60986328125
-110.77880859375
-114.44091796875
-103.45458984375
-102.5390625
-93.3837890625
-90.63720703125
-93.3837890625
-112.60986328125
-108.0322265625
-94.29931640625
-107.11669921875
-105.28564453125
-111.6943359375
-98.876953125
-91.552734375
-83.31298828125
-85.14404296875
-110.77880859375
-114.44091796875
-109.86328125
-109.86328125
-106.201171875
-102.5390625
-102.5390625
-100.7080078125
-108.94775390625
-108.94775390625
-102.5390625
-102.5390625
-85.14404296875
-87.890625
-85.14404296875
-104.3701171875
-108.94775390625
-99.79248046875
-91.552734375
-95.21484375
-99.79248046875
-86.0595703125
-93.3837890625
-98.876953125
-102.5390625
-99.79248046875
-82.3974609375
-101.62353515625
-108.94775390625
-98.876953125
-95.21484375
-99.79248046875
-106.201171875
-108.94775390625
-97.96142578125
-87.890625
-58.59375
-52.18505859375
-53.1005859375
-49.4384765625
-56.7626953125
-57.67822265625
-56.7626953125
-65.91796875
-77.81982421875
-83.31298828125
-86.97509765625
-86.0595703125
-71.4111328125
-82.3974609375
-97.96142578125
-81.48193359375
-63.17138671875
-54.931640625
-81.48193359375
-102.5390625
-96.13037109375
-98.876953125
-99.79248046875
-101.62353515625
-91.552734375
-91.552734375
-103.45458984375
-96.13037109375
-105.28564453125
-101.62353515625
-99.79248046875
-107.11669921875
-106.201171875
-107.11669921875
-107.11669921875
-110.77880859375
-105.28564453125
-107.11669921875
-110.77880859375
-111.6943359375
-102.5390625
-114.44091796875
-118.10302734375
-110.77880859375
-115.3564453125
-114.44091796875
-110.77880859375
-108.0322265625
-98.876953125
-95.21484375
-100.7080078125
-116.27197265625
-146.484375
-170.2880859375
-205.078125
-221.5576171875
-213.31787109375
-179.443359375
-142.822265625
-108.0322265625
-55.84716796875
32.04345703125
154.72412109375
299.37744140625
426.6357421875
558.4716796875
741.5771484375
926.513671875
1061.09619140625
1132.50732421875
1181.0302734375
1149.90234375
1076.66015625
942.9931640625
690.3076171875
378.11279296875
102.5390625
-218.81103515625
-428.466796875
-455.01708984375
-445.86181640625
-417.48046875
-404.6630859375
-407.40966796875
-370.78857421875
-312.19482421875
-275.57373046875
-245.361328125
-206.9091796875
-173.03466796875
-137.3291015625
-108.0322265625
-103.45458984375
-94.29931640625
-77.81982421875
-60.4248046875
-64.0869140625
-49.4384765625
-53.1005859375
-67.7490234375
-49.4384765625
-44.86083984375
-50.35400390625
-43.9453125
-39.36767578125
-35.70556640625
-30.21240234375
-33.87451171875
-30.21240234375
-22.88818359375
-20.1416015625
-13.73291015625
-23.8037109375
-29.296875
-12.8173828125
-6.40869140625
7.32421875
12.8173828125
5.4931640625
10.986328125
8.23974609375
13.73291015625
13.73291015625
18.310546875
10.986328125
19.22607421875
21.97265625
24.71923828125
25.634765625
29.296875
36.62109375
38.4521484375
33.87451171875
40.283203125
45.7763671875
38.4521484375
35.70556640625
44.86083984375
45.7763671875
45.7763671875
51.26953125
53.1005859375
51.26953125
56.7626953125
70.49560546875
76.904296875
79.65087890625
75.0732421875
86.97509765625
89.7216796875
97.96142578125
98.876953125
93.3837890625
103.45458984375
108.94775390625
113.525390625
116.27197265625
121.76513671875
137.3291015625
136.41357421875
142.822265625
150.146484375
156.55517578125
161.1328125
169.37255859375
176.69677734375
187.68310546875
186.767578125
187.68310546875
198.66943359375
205.078125
215.14892578125
226.13525390625
236.2060546875
249.93896484375
249.0234375
259.09423828125
273.74267578125
285.64453125
282.89794921875
293.88427734375
305.7861328125
314.02587890625
312.19482421875
314.02587890625
316.7724609375
323.18115234375
330.50537109375
330.50537109375
325.01220703125
344.23828125
353.3935546875
356.14013671875
364.3798828125
359.80224609375
367.12646484375
351.5625
346.0693359375
340.576171875
344.23828125
336.9140625
339.66064453125
342.4072265625
342.4072265625
331.4208984375
324.0966796875
331.4208984375
320.4345703125
302.1240234375
289.306640625
281.982421875
275.57373046875
254.5166015625
242.61474609375
227.96630859375
210.5712890625
198.66943359375
181.2744140625
157.470703125
142.822265625
129.08935546875
119.93408203125
110.77880859375
100.7080078125
87.890625
90.63720703125
74.15771484375
55.84716796875
45.7763671875
48.52294921875
38.4521484375
21.97265625
0
6.40869140625
12.8173828125
0.91552734375
-7.32421875
-10.07080078125
-13.73291015625
-13.73291015625
-21.05712890625
-24.71923828125
-26.55029296875
-28.38134765625
-29.296875
-21.05712890625
-39.36767578125
-34.7900390625
-44.86083984375
-42.1142578125
-34.7900390625
-26.55029296875
-27.4658203125
-30.21240234375
-31.1279296875
-28.38134765625
-28.38134765625
-37.53662109375
-42.1142578125
-45.7763671875
-42.1142578125
-36.62109375
-40.283203125
-37.53662109375
-30.21240234375
-20.1416015625
-12.8173828125
-16.4794921875
-37.53662109375
-31.1279296875
-25.634765625
-23.8037109375
-37.53662109375
-32.958984375
-40.283203125
-33.87451171875
-26.55029296875
-20.1416015625
-20.1416015625
-21.05712890625
-22.88818359375
-14.6484375
-6.40869140625
-12.8173828125
-13.73291015625
0
7.32421875
16.4794921875
23.8037109375
-9.1552734375
-15.56396484375
-15.56396484375
-13.73291015625
-17.39501953125
-17.39501953125
-16.4794921875
-18.310546875
-5.4931640625
-0.91552734375
-9.1552734375
-13.73291015625
-17.39501953125
-16.4794921875
-12.8173828125
-17.39501953125
-14.6484375
-6.40869140625
-9.1552734375
-1.8310546875
-4.57763671875
-0.91552734375
-4.57763671875
-6.40869140625
-9.1552734375
-20.1416015625
-40.283203125
-34.7900390625
-22.88818359375
-19.22607421875
-21.97265625
-29.296875
-25.634765625
-24.71923828125
-15.56396484375
-10.07080078125
-12.8173828125
-28.38134765625
-51.26953125
-49.4384765625
-48.52294921875
-37.53662109375
-21.05712890625
-28.38134765625
-22.88818359375
-32.04345703125
-34.7900390625
-27.4658203125
-22.88818359375
-48.52294921875
-30.21240234375
-30.21240234375
-43.9453125
-51.26953125
-46.69189453125
-45.7763671875
-32.04345703125
-32.958984375
-43.02978515625
-43.9453125
-40.283203125
-32.958984375
-31.1279296875
-43.9453125
-37.53662109375
-32.958984375
-35.70556640625
-50.35400390625
-44.86083984375
-23.8037109375
-31.1279296875
-34.7900390625
-32.04345703125
-34.7900390625
-40.283203125
-42.1142578125
-37.53662109375
-36.62109375
-36.62109375
-32.958984375
-43.02978515625
-43.02978515625
-45.7763671875
-40.283203125
-26.55029296875
-41.19873046875
-56.7626953125
-38.4521484375
-38.4521484375
-47.607421875
-43.9453125
-39.36767578125
-35.70556640625
-49.4384765625
-56.7626953125
-52.18505859375
-54.01611328125
-48.52294921875
-47.607421875
-50.35400390625
-45.7763671875
-48.52294921875
-51.26953125
-54.931640625
-56.7626953125
-44.86083984375
-39.36767578125
-37.53662109375
-42.1142578125
-34.7900390625
-30.21240234375
-40.283203125
-62.255859375
-53.1005859375
-46.69189453125
-48.52294921875
-30.21240234375
-37.53662109375
-58.59375
-59.50927734375
-57.67822265625
-53.1005859375
-53.1005859375
-46.69189453125
-50.35400390625
-44.86083984375
-48.52294921875
-41.19873046875
-36.62109375
-36.62109375
-34.7900390625
-45.7763671875
-43.02978515625
-29.296875
-26.55029296875
-47.607421875
-46.69189453125
-32.958984375
-38.4521484375
-48.52294921875
-53.1005859375
-48.52294921875
-51.26953125
-44.86083984375
-32.958984375
-29.296875
-47.607421875
-65.00244140625
-57.67822265625
-59.50927734375
-51.26953125
-46.69189453125
-48.52294921875
-40.283203125
-42.1142578125
-44.86083984375
-48.52294921875
-56.7626953125
-57.67822265625
-43.02978515625
-49.4384765625
-48.52294921875
-48.52294921875
-46.69189453125
-42.1142578125
-53.1005859375
-50.35400390625
-46.69189453125
-43.9453125
-39.36767578125
-37.53662109375
-45.7763671875
-43.02978515625
-46.69189453125
-51.26953125
-43.9453125
-41.19873046875
-31.1279296875
-54.01611328125
-51.26953125
-51.26953125
-47.607421875
-35.70556640625
-35.70556640625
-41.19873046875
-38.4521484375
-43.9453125
-35.70556640625
-32.958984375
-42.1142578125
-54.01611328125
-52.18505859375
-46.69189453125
-43.9453125
-35.70556640625
-41.19873046875
-42.1142578125
-46.69189453125
-52.18505859375
-44.86083984375
-44.86083984375
-39.36767578125
-42.1142578125
-52.18505859375
-34.7900390625
-40.283203125
-32.958984375
-38.4521484375
-50.35400390625
-41.19873046875
-32.04345703125
-42.1142578125
-49.4384765625
-52.18505859375
-52.18505859375
-38.4521484375
-37.53662109375
-43.02978515625
-42.1142578125
-41.19873046875
-45.7763671875
-55.84716796875
-45.7763671875
-46.69189453125
-53.1005859375
-47.607421875
-43.02978515625
-40.283203125
-48.52294921875
-51.26953125
-53.1005859375
-50.35400390625
-51.26953125
-36.62109375
-30.21240234375
-31.1279296875
-12.8173828125
-27.4658203125
-46.69189453125
-39.36767578125
-34.7900390625
-32.958984375
-32.04345703125
-36.62109375
-33.87451171875
-31.1279296875
-32.958984375
-27.4658203125
-31.1279296875
-37.53662109375
-28.38134765625
-8.23974609375
0.91552734375
-1.8310546875
1.8310546875
0.91552734375
-1.8310546875
-13.73291015625
-12.8173828125
-17.39501953125
-31.1279296875
-24.71923828125
-34.7900390625
-21.05712890625
-7.32421875
-22.88818359375
-30.21240234375
-23.8037109375
-26.55029296875
-32.958984375
-22.88818359375
-20.1416015625
-15.56396484375
-17.39501953125
-29.296875
-42.1142578125
-35.70556640625
-45.7763671875
-53.1005859375
-54.931640625
-44.86083984375
-50.35400390625
-43.02978515625
-43.02978515625
-41.19873046875
-45.7763671875
-64.0869140625
-73.2421875
-67.7490234375
-60.4248046875
-56.7626953125
-54.01611328125
-53.1005859375
-55.84716796875
-40.283203125
-34.7900390625
-32.958984375
-50.35400390625
-46.69189453125
-38.4521484375
-57.67822265625
-66.83349609375
-63.17138671875
-82.3974609375
-102.5390625
-125.42724609375
-131.8359375
-129.08935546875
-104.3701171875
-65.00244140625
-32.958984375
19.22607421875
97.96142578125
195.9228515625
323.18115234375
450.439453125
583.19091796875
781.8603515625
969.54345703125
1103.21044921875
1169.12841796875
1216.73583984375
1202.08740234375
1128.84521484375
997.00927734375
790.10009765625
522.76611328125
249.0234375
-45.7763671875
-323.18115234375
-411.9873046875
-411.07177734375
-389.09912109375
-361.63330078125
-343.32275390625
-299.37744140625
-259.09423828125
-232.5439453125
-191.34521484375
-137.3291015625
-100.7080078125
-72.32666015625
-39.36767578125
-13.73291015625
-9.1552734375
-9.1552734375
-9.1552734375
-9.1552734375
-3.662109375
4.57763671875
8.23974609375
5.4931640625
-13.73291015625
-3.662109375
4.57763671875
14.6484375
18.310546875
24.71923828125
18.310546875
14.6484375
27.4658203125
22.88818359375
20.1416015625
32.04345703125
43.9453125
52.18505859375
60.4248046875
64.0869140625
61.34033203125
52.18505859375
37.53662109375
37.53662109375
45.7763671875
44.86083984375
49.4384765625
66.83349609375
70.49560546875
62.255859375
62.255859375
61.34033203125
65.00244140625
79.65087890625
85.14404296875
75.0732421875
69.580078125
97.96142578125
90.63720703125
75.0732421875
98.876953125
93.3837890625
97.0458984375
99.79248046875
93.3837890625
101.62353515625
108.94775390625
120.849609375
123.59619140625
107.11669921875
116.27197265625
117.1875
121.76513671875
131.8359375
132.75146484375
129.08935546875
141.90673828125
144.6533203125
145.56884765625
142.822265625
149.23095703125
153.80859375
174.86572265625
188.5986328125
192.2607421875
215.14892578125
207.82470703125
194.091796875
204.16259765625
212.40234375
226.13525390625
234.375
233.45947265625
254.5166015625
251.77001953125
257.26318359375
268.24951171875
277.40478515625
271.91162109375
284.72900390625
290.22216796875
299.37744140625
314.02587890625
317.68798828125
335.0830078125
338.7451171875
335.99853515625
340.576171875
343.32275390625
346.0693359375
355.224609375
359.80224609375
358.88671875
364.3798828125
377.197265625
400.08544921875
392.76123046875
370.78857421875
382.6904296875
388.18359375
387.26806640625
382.6904296875
375.3662109375
381.77490234375
395.5078125
376.28173828125
356.14013671875
357.0556640625
355.224609375
349.7314453125
342.4072265625
334.16748046875
331.4208984375
326.84326171875
330.50537109375
297.54638671875
277.40478515625
260.92529296875
242.61474609375
228.8818359375
209.65576171875
187.68310546875
180.35888671875
162.04833984375
159.3017578125
151.9775390625
141.90673828125
153.80859375
142.822265625
121.76513671875
92.46826171875
88.80615234375
75.0732421875
80.56640625
79.65087890625
54.01611328125
47.607421875
39.36767578125
36.62109375
33.87451171875
32.958984375
20.1416015625
21.97265625
32.04345703125
28.38134765625
11.90185546875
-7.32421875
-2.74658203125
13.73291015625
5.4931640625
-8.23974609375
-13.73291015625
-13.73291015625
-12.8173828125
-3.662109375
-5.4931640625
-4.57763671875
-5.4931640625
-8.23974609375
0
0.91552734375
-6.40869140625
-1.8310546875
-9.1552734375
-12.8173828125
-16.4794921875
-14.6484375
-3.662109375
-4.57763671875
-2.74658203125
5.4931640625
-7.32421875
-7.32421875
0.91552734375
3.662109375
13.73291015625
-3.662109375
-19.22607421875
0
0
-0.91552734375
0.91552734375
10.07080078125
17.39501953125
16.4794921875
4.57763671875
4.57763671875
17.39501953125
21.05712890625
21.97265625
22.88818359375
8.23974609375
13.73291015625
15.56396484375
11.90185546875
15.56396484375
14.6484375
12.8173828125
20.1416015625
18.310546875
21.05712890625
21.05712890625
24.71923828125
33.87451171875
40.283203125
10.986328125
26.55029296875
15.56396484375
14.6484375
11.90185546875
15.56396484375
12.8173828125
29.296875
27.4658203125
21.97265625
24.71923828125
13.73291015625
7.32421875
11.90185546875
16.4794921875
9.1552734375
4.57763671875
-2.74658203125
0.91552734375
9.1552734375
10.07080078125
11.90185546875
15.56396484375
-11.90185546875
-12.8173828125
19.22607421875
12.8173828125
3.662109375
11.90185546875
0
-15.56396484375
-12.8173828125
-16.4794921875
-11.90185546875
-2.74658203125
-1.8310546875
0
-19.22607421875
-6.40869140625
1.8310546875
-3.662109375
-5.4931640625
-13.73291015625
-14.6484375
-9.1552734375
-8.23974609375
-20.1416015625
-15.56396484375
0.91552734375
1.8310546875
-4.57763671875
-10.07080078125
-1.8310546875
-11.90185546875
-21.05712890625
-8.23974609375
-10.07080078125
-20.1416015625
-22.88818359375
-6.40869140625
-10.986328125
-24.71923828125
-23.8037109375
-16.4794921875
-14.6484375
-9.1552734375
-21.97265625
-28.38134765625
-25.634765625
-23.8037109375
-17.39501953125
-22.88818359375
-25.634765625
-9.1552734375
-18.310546875
-32.04345703125
-26.55029296875
-24.71923828125
-28.38134765625
-29.296875
-30.21240234375
-36.62109375
-21.97265625
-10.986328125
-14.6484375
-15.56396484375
-10.986328125
0
-18.310546875
-24.71923828125
-33.87451171875
-30.21240234375
-27.4658203125
-15.56396484375
-11.90185546875
-29.296875
-43.9453125
-26.55029296875
-25.634765625
-31.1279296875
-19.22607421875
-24.71923828125
-27.4658203125
-23.8037109375
-14.6484375
-17.39501953125
-19.22607421875
-17.39501953125
-11.90185546875
-39.36767578125
-43.9453125
-35.70556640625
-24.71923828125
-21.05712890625
-23.8037109375
-25.634765625
-31.1279296875
-32.958984375
-30.21240234375
-39.36767578125
-33.87451171875
-26.55029296875
-32.958984375
-26.55029296875
-27.4658203125
-24.71923828125
-28.38134765625
-20.1416015625
-14.6484375
-13.73291015625
-18.310546875
-25.634765625
-30.21240234375
-35.70556640625
-4.57763671875
-1.8310546875
-36.62109375
-39.36767578125
-29.296875
-32.04345703125
-35.70556640625
-42.1142578125
-33.87451171875
-32.958984375
-32.958984375
-32.958984375
-28.38134765625
-25.634765625
-17.39501953125
-15.56396484375
-25.634765625
-40.283203125
-22.88818359375
-19.22607421875
-22.88818359375
-10.07080078125
-14.6484375
-17.39501953125
-19.22607421875
-6.40869140625
-4.57763671875
-10.07080078125
-4.57763671875
1.8310546875
-5.4931640625
-10.986328125
0.91552734375
9.1552734375
-25.634765625
-16.4794921875
-4.57763671875
-7.32421875
-10.07080078125
-12.8173828125
-11.90185546875
-14.6484375
-13.73291015625
-8.23974609375
6.40869140625
-3.662109375
-11.90185546875
-7.32421875
-11.90185546875
-8.23974609375
-14.6484375
-6.40869140625
14.6484375
0.91552734375
-2.74658203125
-4.57763671875
-10.07080078125
-19.22607421875
-9.1552734375
2.74658203125
10.07080078125
-3.662109375
-16.4794921875
-15.56396484375
-10.986328125
-16.4794921875
-19.22607421875
-6.40869140625
-1.8310546875
1.8310546875
-7.32421875
-13.73291015625
-1.8310546875
-10.986328125
-13.73291015625
-9.1552734375
7.32421875
23.8037109375
-6.40869140625
-22.88818359375
-16.4794921875
-1.8310546875
0.91552734375
2.74658203125
-6.40869140625
-14.6484375
-23.8037109375
-21.97265625
-10.986328125
-5.4931640625
-1.8310546875
-16.4794921875
-18.310546875
-23.8037109375
-12.8173828125
-6.40869140625
-5.4931640625
0.91552734375
2.74658203125
8.23974609375
6.40869140625
-1.8310546875
-18.310546875
-21.05712890625
-18.310546875
-13.73291015625
2.74658203125
0
-19.22607421875
-8.23974609375
6.40869140625
9.1552734375
11.90185546875
25.634765625
30.21240234375
32.04345703125
27.4658203125
31.1279296875
27.4658203125
23.8037109375
19.22607421875
13.73291015625
15.56396484375
5.4931640625
10.07080078125
3.662109375
-2.74658203125
-19.22607421875
-7.32421875
-5.4931640625
-6.40869140625
-11.90185546875
-17.39501953125
-5.4931640625
-0.91552734375
-2.74658203125
-11.90185546875
-9.1552734375
-3.662109375
-9.1552734375
-15.56396484375
-13.73291015625
-19.22607421875
-26.55029296875
-29.296875
-39.36767578125
-37.53662109375
-32.04345703125
-32.958984375
-32.04345703125
-30.21240234375
-27.4658203125
-24.71923828125
-25.634765625
-32.04345703125
-34.7900390625
-40.283203125
-27.4658203125
-15.56396484375
-7.32421875
-19.22607421875
-24.71923828125
-29.296875
-36.62109375
-39.36767578125
-61.34033203125
-91.552734375
-113.525390625
-123.59619140625
-102.5390625
-51.26953125
-17.39501953125
43.02978515625
116.27197265625
210.5712890625
316.7724609375
452.2705078125
579.52880859375
753.47900390625
957.6416015625
1104.1259765625
1188.3544921875
1238.70849609375
1242.37060546875
1195.6787109375
1055.60302734375
824.89013671875
544.73876953125
298.4619140625
27.4658203125
-263.671875
-368.0419921875
-381.77490234375
-358.88671875
-334.16748046875
-310.36376953125
-273.74267578125
-238.037109375
-206.9091796875
-178.52783203125
-136.41357421875
-94.29931640625
-57.67822265625
-28.38134765625
-6.40869140625
12.8173828125
17.39501953125
23.8037109375
23.8037109375
15.56396484375
18.310546875
25.634765625
24.71923828125
32.958984375
39.36767578125
28.38134765625
18.310546875
33.87451171875
31.1279296875
25.634765625
28.38134765625
48.52294921875
36.62109375
45.7763671875
43.9453125
51.26953125
54.01611328125
59.50927734375
47.607421875
53.1005859375
54.01611328125
61.34033203125
65.00244140625
71.4111328125
68.66455078125
75.98876953125
75.0732421875
79.65087890625
80.56640625
85.14404296875
74.15771484375
86.97509765625
79.65087890625
95.21484375
95.21484375
95.21484375
103.45458984375
100.7080078125
113.525390625
114.44091796875
106.201171875
101.62353515625
106.201171875
114.44091796875
119.0185546875
123.59619140625
129.08935546875
140.9912109375
135.498046875
132.75146484375
130.92041015625
140.9912109375
142.822265625
140.9912109375
147.39990234375
157.470703125
169.37255859375
172.119140625
167.54150390625
176.69677734375
178.52783203125
183.10546875
201.416015625
208.740234375
203.2470703125
212.40234375
221.5576171875
217.8955078125
215.14892578125
225.2197265625
227.05078125
232.5439453125
237.12158203125
255.43212890625
267.333984375
274.658203125
280.1513671875
276.4892578125
279.23583984375
288.39111328125
302.1240234375
307.6171875
318.603515625
334.16748046875
339.66064453125
341.49169921875
351.5625
343.32275390625
363.46435546875
375.3662109375
378.11279296875
375.3662109375
379.0283203125
382.6904296875
395.5078125
387.26806640625
374.45068359375
384.521484375
396.42333984375
393.6767578125
397.3388671875
395.5078125
384.521484375
381.77490234375
376.28173828125
368.95751953125
369.873046875
366.2109375
358.88671875
351.5625
344.23828125
330.50537109375
326.84326171875
314.02587890625
293.88427734375
286.56005859375
276.4892578125
274.658203125
250.8544921875
239.8681640625
212.40234375
192.2607421875
173.9501953125
167.54150390625
158.38623046875
142.822265625
118.10302734375
101.62353515625
108.0322265625
101.62353515625
95.21484375
91.552734375
78.7353515625
61.34033203125
53.1005859375
56.7626953125
52.18505859375
42.1142578125
53.1005859375
41.19873046875
19.22607421875
10.07080078125
5.4931640625
3.662109375
2.74658203125
4.57763671875
9.1552734375
4.57763671875
1.8310546875
-2.74658203125
-5.4931640625
-10.07080078125
-12.8173828125
-10.07080078125
-0.91552734375
-12.8173828125
-24.71923828125
-13.73291015625
-13.73291015625
-12.8173828125
-5.4931640625
1.8310546875
0.91552734375
6.40869140625
-1.8310546875
-27.4658203125
-17.39501953125
-16.4794921875
-10.07080078125
-8.23974609375
-10.986328125
-10.986328125
-7.32421875
-3.662109375
-7.32421875
-5.4931640625
-12.8173828125
-10.07080078125
0.91552734375
-1.8310546875
0
-6.40869140625
-6.40869140625
-13.73291015625
-19.22607421875
-3.662109375
-2.74658203125
1.8310546875
4.57763671875
-2.74658203125
-2.74658203125
-4.57763671875
-2.74658203125
7.32421875
11.90185546875
11.90185546875
10.986328125
8.23974609375
8.23974609375
6.40869140625
7.32421875
8.23974609375
7.32421875
6.40869140625
-9.1552734375
0.91552734375
10.986328125
2.74658203125
9.1552734375
18.310546875
10.07080078125
8.23974609375
12.8173828125
11.90185546875
8.23974609375
-8.23974609375
-21.97265625
-10.986328125
0.91552734375
-7.32421875
-12.8173828125
-9.1552734375
-14.6484375
-18.310546875
-15.56396484375
-9.1552734375
-4.57763671875
-7.32421875
-21.05712890625
-19.22607421875
-25.634765625
-29.296875
-18.310546875
-13.73291015625
-10.986328125
-26.55029296875
-31.1279296875
-38.4521484375
-42.1142578125
-42.1142578125
-38.4521484375
-18.310546875
-11.90185546875
-26.55029296875
-35.70556640625
-25.634765625
-38.4521484375
-42.1142578125
-24.71923828125
-19.22607421875
-24.71923828125
-36.62109375
-40.283203125
-39.36767578125
-40.283203125
-46.69189453125
-46.69189453125
-48.52294921875
-49.4384765625
-42.1142578125
-39.36767578125
-30.21240234375
-25.634765625
-37.53662109375
-46.69189453125
-54.01611328125
-45.7763671875
-31.1279296875
-33.87451171875
-37.53662109375
-57.67822265625
-53.1005859375
-52.18505859375
-41.19873046875
-43.9453125
-54.01611328125
-66.83349609375
-60.4248046875
-58.59375
-46.69189453125
-55.84716796875
-60.4248046875
-60.4248046875
-52.18505859375
-48.52294921875
-46.69189453125
-46.69189453125
-56.7626953125
-68.66455078125
-65.00244140625
-66.83349609375
-65.00244140625
-63.17138671875
-58.59375
-54.01611328125
-50.35400390625
-45.7763671875
-61.34033203125
-75.98876953125
-81.48193359375
-79.65087890625
-64.0869140625
-44.86083984375
-64.0869140625
-68.66455078125
-65.91796875
-75.98876953125
-80.56640625
-68.66455078125
-65.91796875
-63.17138671875
-65.00244140625
-77.81982421875
-79.65087890625
-77.81982421875
-76.904296875
-73.2421875
-75.0732421875
-78.7353515625
-77.81982421875
-54.931640625
-64.0869140625
-75.0732421875
-71.4111328125
-76.904296875
-58.59375
-62.255859375
-66.83349609375
-82.3974609375
-100.7080078125
-76.904296875
-79.65087890625
-84.228515625
-80.56640625
-78.7353515625
-78.7353515625
-86.97509765625
-78.7353515625
-69.580078125
-70.49560546875
-66.83349609375
-68.66455078125
-87.890625
-86.0595703125
-76.904296875
-76.904296875
-79.65087890625
-76.904296875
-84.228515625
-83.31298828125
-70.49560546875
-76.904296875
-91.552734375
-86.97509765625
-85.14404296875
-72.32666015625
-72.32666015625
-81.48193359375
-75.98876953125
-87.890625
-104.3701171875
-87.890625
-86.97509765625
-85.14404296875
-84.228515625
-82.3974609375
-86.97509765625
-85.14404296875
-65.00244140625
-85.14404296875
-91.552734375
-91.552734375
-89.7216796875
-92.46826171875
-98.876953125
-93.3837890625
-97.0458984375
-95.21484375
-91.552734375
-86.97509765625
-86.0595703125
-83.31298828125
-84.228515625
-76.904296875
-80.56640625
-75.98876953125
-75.0732421875
-109.86328125
-104.3701171875
-97.96142578125
-99.79248046875
-99.79248046875
-105.28564453125
-110.77880859375
-109.86328125
-100.7080078125
-95.21484375
-90.63720703125
-94.29931640625
-97.0458984375
-86.97509765625
-89.7216796875
-95.21484375
-93.3837890625
-77.81982421875
-75.98876953125
-99.79248046875
-107.11669921875
-99.79248046875
-98.876953125
-95.21484375
-92.46826171875
-95.21484375
-97.96142578125
-85.14404296875
-88.80615234375
-104.3701171875
-103.45458984375
-95.21484375
-80.56640625
-90.63720703125
-91.552734375
-92.46826171875
-86.97509765625
-92.46826171875
-108.94775390625
-103.45458984375
-92.46826171875
-101.62353515625
-110.77880859375
-99.79248046875
-71.4111328125
-106.201171875
-122.6806640625
-114.44091796875
-114.44091796875
-96.13037109375
-76.904296875
-71.4111328125
-65.00244140625
-62.255859375
-49.4384765625
-46.69189453125
-48.52294921875
-52.18505859375
-59.50927734375
-58.59375
-64.0869140625
-78.7353515625
-81.48193359375
-63.17138671875
-81.48193359375
-84.228515625
-85.14404296875
-75.0732421875
-98.876953125
-104.3701171875
-94.29931640625
-100.7080078125
-98.876953125
-92.46826171875
-100.7080078125
-104.3701171875
-103.45458984375
-102.5390625
-97.0458984375
-102.5390625
-111.6943359375
-106.201171875
-107.11669921875
-105.28564453125
-110.77880859375
-116.27197265625
-107.11669921875
-106.201171875
-121.76513671875
-109.86328125
-111.6943359375
-116.27197265625
-119.93408203125
-130.0048828125
-127.25830078125
-112.60986328125
-112.60986328125
-103.45458984375
-110.77880859375
-118.10302734375
-119.0185546875
-111.6943359375
-127.25830078125
-159.3017578125
-180.35888671875
-191.34521484375
-207.82470703125
-220.64208984375
-184.02099609375
-142.822265625
-109.86328125
-61.34033203125
32.958984375
170.2880859375
295.71533203125
416.56494140625
565.7958984375
755.31005859375
936.58447265625
1055.60302734375
1134.33837890625
1173.7060546875
1134.33837890625
1053.77197265625
901.79443359375
619.81201171875
320.4345703125
53.1005859375
-300.29296875
-469.66552734375
-470.5810546875
-468.75
-424.8046875
-415.6494140625
-408.3251953125
-376.28173828125
-336.9140625
-303.03955078125
-253.60107421875
-207.82470703125
-187.68310546875
-153.80859375
-137.3291015625
-116.27197265625
-101.62353515625
-81.48193359375
-75.0732421875
-67.7490234375
-60.4248046875
-77.81982421875
-75.98876953125
-74.15771484375
-65.91796875
-59.50927734375
-54.01611328125
-56.7626953125
-55.84716796875
-50.35400390625
-41.19873046875
-35.70556640625
-32.958984375
-35.70556640625
-30.21240234375
-39.36767578125
-39.36767578125
-42.1142578125
-16.4794921875
-20.1416015625
-20.1416015625
-16.4794921875
-11.90185546875
-8.23974609375
-13.73291015625
-18.310546875
-13.73291015625
-12.8173828125
-1.8310546875
-0.91552734375
5.4931640625
0
0.91552734375
5.4931640625
7.32421875
13.73291015625
13.73291015625
32.04345703125
19.22607421875
21.05712890625
19.22607421875
5.4931640625
17.39501953125
23.8037109375
33.87451171875
41.19873046875
33.87451171875
39.36767578125
47.607421875
52.18505859375
54.931640625
60.4248046875
61.34033203125
64.0869140625
70.49560546875
82.3974609375
82.3974609375
93.3837890625
97.96142578125
91.552734375
86.97509765625
99.79248046875
109.86328125
117.1875
126.3427734375
137.3291015625
137.3291015625
142.822265625
146.484375
152.89306640625
159.3017578125
169.37255859375
181.2744140625
188.5986328125
195.00732421875
193.17626953125
205.078125
216.064453125
212.40234375
223.388671875
236.2060546875
246.27685546875
254.5166015625
261.8408203125
281.982421875
291.1376953125
292.05322265625
301.20849609375
293.88427734375
292.96875
294.7998046875
296.630859375
315.85693359375
323.18115234375
325.01220703125
325.01220703125
329.58984375
328.67431640625
313.1103515625
310.36376953125
316.7724609375
326.84326171875
327.7587890625
330.50537109375
324.0966796875
315.85693359375
317.68798828125
312.19482421875
309.4482421875
298.4619140625
284.72900390625
290.22216796875
276.4892578125
254.5166015625
234.375
234.375
219.7265625
195.9228515625
184.02099609375
177.6123046875
162.9638671875
149.23095703125
128.173828125
114.44091796875
107.11669921875
91.552734375
77.81982421875
56.7626953125
38.4521484375
39.36767578125
26.55029296875
32.04345703125
43.9453125
0.91552734375
-15.56396484375
-11.90185546875
-15.56396484375
-25.634765625
-30.21240234375
-34.7900390625
-34.7900390625
-38.4521484375
-33.87451171875
-29.296875
-48.52294921875
-55.84716796875
-68.66455078125
-75.0732421875
-76.904296875
-55.84716796875
-62.255859375
-65.91796875
-59.50927734375
-69.580078125
-78.7353515625
-77.81982421875
-73.2421875
-67.7490234375
-65.00244140625
-58.59375
-60.4248046875
-58.59375
-59.50927734375
-52.18505859375
-69.580078125
-74.15771484375
-62.255859375
-51.26953125
-65.91796875
-65.00244140625
-64.0869140625
-52.18505859375
-39.36767578125
-43.02978515625
-56.7626953125
-54.01611328125
-54.01611328125
-46.69189453125
-55.84716796875
-55.84716796875
-60.4248046875
-54.931640625
-42.1142578125
-40.283203125
-42.1142578125
-45.7763671875
-46.69189453125
-43.02978515625
-44.86083984375
-50.35400390625
-41.19873046875
-45.7763671875
-38.4521484375
-35.70556640625
-38.4521484375
-32.04345703125
-38.4521484375
-45.7763671875
-31.1279296875
-35.70556640625
-33.87451171875
-29.296875
-32.04345703125
-36.62109375
-50.35400390625
-42.1142578125
-40.283203125
-36.62109375
-28.38134765625
-11.90185546875
0.91552734375
-38.4521484375
-63.17138671875
-55.84716796875
-51.26953125
-50.35400390625
-45.7763671875
-49.4384765625
-53.1005859375
-38.4521484375
-33.87451171875
-59.50927734375
-59.50927734375
-54.931640625
-52.18505859375
-51.26953125
-52.18505859375
-45.7763671875
-51.26953125
-54.931640625
-48.52294921875
-51.26953125
-55.84716796875
-50.35400390625
-61.34033203125
-61.34033203125
-52.18505859375
-56.7626953125
-62.255859375
-54.931640625
-59.50927734375
-64.0869140625
-61.34033203125
-68.66455078125
-87.890625
-69.580078125
-69.580078125
-71.4111328125
-65.00244140625
-66.83349609375
-69.580078125
-75.0732421875
-76.904296875
-64.0869140625
-49.4384765625
-54.01611328125
-57.67822265625
-54.931640625
-77.81982421875
-90.63720703125
-91.552734375
-74.15771484375
-73.2421875
-62.255859375
-44.86083984375
-54.931640625
-76.904296875
-61.34033203125
-68.66455078125
-69.580078125
-74.15771484375
-76.904296875
-82.3974609375
-85.14404296875
-72.32666015625
-65.00244140625
-89.7216796875
-93.3837890625
-81.48193359375
-75.98876953125
-74.15771484375
-73.2421875
-78.7353515625
-76.904296875
-71.4111328125
-62.255859375
-68.66455078125
-75.0732421875
-70.49560546875
-76.904296875
-65.00244140625
-58.59375
-65.00244140625
-73.2421875
-82.3974609375
-86.0595703125
-81.48193359375
-83.31298828125
-75.98876953125
-75.0732421875
-70.49560546875
-75.0732421875
-71.4111328125
-70.49560546875
-75.98876953125
-87.890625
-80.56640625
-68.66455078125
-65.00244140625
-73.2421875
-67.7490234375
-66.83349609375
-86.0595703125
-89.7216796875
-89.7216796875
-83.31298828125
-67.7490234375
-72.32666015625
-61.34033203125
-71.4111328125
-80.56640625
-77.81982421875
-74.15771484375
-68.66455078125
-65.00244140625
-71.4111328125
-71.4111328125
-67.7490234375
-67.7490234375
-77.81982421875
-79.65087890625
-65.91796875
-55.84716796875
-78.7353515625
-80.56640625
-81.48193359375
-79.65087890625
-79.65087890625
-74.15771484375
-71.4111328125
-72.32666015625
-71.4111328125
-60.4248046875
-58.59375
-68.66455078125
-79.65087890625
-74.15771484375
-74.15771484375
-74.15771484375
-71.4111328125
-72.32666015625
-82.3974609375
-74.15771484375
-69.580078125
-65.00244140625
-73.2421875
-68.66455078125
-64.0869140625
-68.66455078125
-73.2421875
-78.7353515625
-74.15771484375
-68.66455078125
-58.59375
-64.0869140625
-54.931640625
-65.91796875
-73.2421875
-72.32666015625
-75.98876953125
-69.580078125
-75.0732421875
-74.15771484375
-72.32666015625
-75.0732421875
-75.0732421875
-72.32666015625
-74.15771484375
-68.66455078125
-59.50927734375
-67.7490234375
-66.83349609375
-66.83349609375
-67.7490234375
-69.580078125
-73.2421875
-66.83349609375
-54.01611328125
-66.83349609375
-68.66455078125
-70.49560546875
-67.7490234375
-65.91796875
-70.49560546875
-69.580078125
-74.15771484375
-68.66455078125
-57.67822265625
-72.32666015625
-72.32666015625
-66.83349609375
-76.904296875
-77.81982421875
-78.7353515625
-68.66455078125
-62.255859375
-63.17138671875
-73.2421875
-73.2421875
-76.904296875
-79.65087890625
-79.65087890625
-84.228515625
-75.98876953125
-66.83349609375
-56.7626953125
-53.1005859375
-55.84716796875
-53.1005859375
-46.69189453125
-49.4384765625
-48.52294921875
-38.4521484375
-56.7626953125
-78.7353515625
-65.00244140625
-74.15771484375
-67.7490234375
-70.49560546875
-65.91796875
-62.255859375
-51.26953125
-45.7763671875
-25.634765625
-21.97265625
-26.55029296875
-29.296875
-26.55029296875
-37.53662109375
-40.283203125
-21.97265625
-30.21240234375
-26.55029296875
-30.21240234375
-55.84716796875
-56.7626953125
-54.931640625
-61.34033203125
-70.49560546875
-75.0732421875
-64.0869140625
-64.0869140625
-61.34033203125
-63.17138671875
-59.50927734375
-58.59375
-65.00244140625
-60.4248046875
-56.7626953125
-57.67822265625
-61.34033203125
-65.91796875
-84.228515625
-94.29931640625
-87.890625
-90.63720703125
-89.7216796875
-76.904296875
-70.49560546875
-72.32666015625
-79.65087890625
-76.904296875
-73.2421875
-75.98876953125
-85.14404296875
-89.7216796875
-73.2421875
-62.255859375
-89.7216796875
-79.65087890625
-71.4111328125
-75.0732421875
-79.65087890625
-89.7216796875
-108.94775390625
-130.92041015625
-158.38623046875
-174.86572265625
-176.69677734375
-149.23095703125
-97.0458984375
-48.52294921875
-15.56396484375
54.01611328125
179.443359375
293.88427734375
422.9736328125
558.4716796875
746.15478515625
921.0205078125
1063.8427734375
1141.66259765625
1202.08740234375
1182.861328125
1145.32470703125
1019.8974609375
791.93115234375
518.1884765625
270.08056640625
-8.23974609375
-327.7587890625
-442.19970703125
-445.86181640625
-413.818359375
-386.3525390625
-364.3798828125
-331.4208984375
-293.88427734375
-250.8544921875
-205.078125
-171.20361328125
-116.27197265625
-102.5390625
-85.14404296875
-59.50927734375
-43.02978515625
-46.69189453125
-47.607421875
-42.1142578125
-43.9453125
-35.70556640625
-35.70556640625
-25.634765625
-11.90185546875
-12.8173828125
-8.23974609375
-17.39501953125
-22.88818359375
-24.71923828125
-2.74658203125
2.74658203125
1.8310546875
5.4931640625
4.57763671875
6.40869140625
1.8310546875
10.07080078125
16.4794921875
21.05712890625
17.39501953125
32.04345703125
32.04345703125
29.296875
26.55029296875
26.55029296875
33.87451171875
39.36767578125
43.02978515625
44.86083984375
34.7900390625
36.62109375
42.1142578125
43.9453125
48.52294921875
45.7763671875
60.4248046875
59.50927734375
61.34033203125
62.255859375
66.83349609375
56.7626953125
61.34033203125
64.0869140625
63.17138671875
70.49560546875
76.904296875
73.2421875
82.3974609375
86.0595703125
89.7216796875
94.29931640625
92.46826171875
99.79248046875
108.94775390625
111.6943359375
119.0185546875
117.1875
119.93408203125
115.3564453125
135.498046875
146.484375
153.80859375
158.38623046875
159.3017578125
162.04833984375
162.04833984375
172.119140625
179.443359375
184.9365234375
190.4296875
197.75390625
197.75390625
214.2333984375
234.375
230.712890625
236.2060546875
247.1923828125
254.5166015625
270.08056640625
274.658203125
278.3203125
292.96875
292.05322265625
299.37744140625
313.1103515625
312.19482421875
317.68798828125
331.4208984375
328.67431640625
334.16748046875
347.900390625
346.0693359375
338.7451171875
348.81591796875
355.224609375
358.88671875
354.30908203125
364.3798828125
365.29541015625
362.548828125
355.224609375
347.900390625
346.98486328125
346.98486328125
362.548828125
358.88671875
346.0693359375
338.7451171875
324.0966796875
317.68798828125
304.87060546875
303.03955078125
292.05322265625
282.89794921875
234.375
217.8955078125
220.64208984375
221.5576171875
203.2470703125
195.9228515625
178.52783203125
193.17626953125
184.02099609375
150.146484375
146.484375
108.0322265625
89.7216796875
80.56640625
67.7490234375
62.255859375
52.18505859375
52.18505859375
50.35400390625
35.70556640625
30.21240234375
17.39501953125
3.662109375
12.8173828125
16.4794921875
-3.662109375
-22.88818359375
-21.05712890625
-18.310546875
-23.8037109375
-14.6484375
-21.97265625
-16.4794921875
-19.22607421875
-17.39501953125
-23.8037109375
-34.7900390625
-30.21240234375
-26.55029296875
-28.38134765625
-29.296875
-34.7900390625
-27.4658203125
-32.958984375
-38.4521484375
-43.02978515625
-34.7900390625
-19.22607421875
-27.4658203125
-29.296875
-55.84716796875
-47.607421875
-43.9453125
-46.69189453125
-30.21240234375
-29.296875
-24.71923828125
-39.36767578125
-35.70556640625
-33.87451171875
-36.62109375
-28.38134765625
-30.21240234375
1.8310546875
-16.4794921875
-18.310546875
-9.1552734375
-28.38134765625
-32.04345703125
-27.4658203125
-26.55029296875
-22.88818359375
-29.296875
-26.55029296875
-24.71923828125
-21.05712890625
-17.39501953125
-13.73291015625
-3.662109375
13.73291015625
-18.310546875
-24.71923828125
-10.07080078125
-11.90185546875
-16.4794921875
-5.4931640625
-3.662109375
-14.6484375
-1.8310546875
-2.74658203125
1.8310546875
-7.32421875
-11.90185546875
3.662109375
4.57763671875
-9.1552734375
-22.88818359375
-20.1416015625
-5.4931640625
-10.07080078125
-8.23974609375
-8.23974609375
-10.07080078125
-9.1552734375
-11.90185546875
-14.6484375
-19.22607421875
-23.8037109375
-22.88818359375
-30.21240234375
-19.22607421875
0.91552734375
-3.662109375
-28.38134765625
-28.38134765625
-32.04345703125
-14.6484375
-19.22607421875
-27.4658203125
-21.05712890625
-28.38134765625
-38.4521484375
-33.87451171875
-30.21240234375
-27.4658203125
-24.71923828125
-25.634765625
-27.4658203125
-30.21240234375
-20.1416015625
-24.71923828125
-24.71923828125
-31.1279296875
-30.21240234375
-43.9453125
-52.18505859375
-43.02978515625
-32.04345703125
-27.4658203125
-32.958984375
-40.283203125
-29.296875
-61.34033203125
-59.50927734375
-39.36767578125
-39.36767578125
-46.69189453125
-50.35400390625
-44.86083984375
-43.9453125
-30.21240234375
-43.9453125
-73.2421875
-48.52294921875
-45.7763671875
-51.26953125
-40.283203125
-34.7900390625
-43.9453125
-47.607421875
-38.4521484375
-45.7763671875
-51.26953125
-53.1005859375
-53.1005859375
-55.84716796875
-38.4521484375
-37.53662109375
-45.7763671875
-45.7763671875
-54.01611328125
-54.01611328125
-54.01611328125
-43.02978515625
-43.02978515625
-50.35400390625
-49.4384765625
-54.01611328125
-45.7763671875
-44.86083984375
-40.283203125
-58.59375
-53.1005859375
-50.35400390625
-53.1005859375
-53.1005859375
-64.0869140625
-66.83349609375
-51.26953125
-53.1005859375
-68.66455078125
-56.7626953125
-51.26953125
-54.931640625
-54.931640625
-51.26953125
-60.4248046875
-68.66455078125
-60.4248046875
-58.59375
-51.26953125
-61.34033203125
-56.7626953125
-51.26953125
-49.4384765625
-54.931640625
-48.52294921875
-46.69189453125
-42.1142578125
-43.9453125
-53.1005859375
-59.50927734375
-57.67822265625
-30.21240234375
-52.18505859375
-62.255859375
-58.59375
-64.0869140625
-65.00244140625
-56.7626953125
-64.0869140625
-54.01611328125
-54.931640625
-65.00244140625
-69.580078125
-53.1005859375
-45.7763671875
-54.01611328125
-54.931640625
-32.958984375
-36.62109375
-54.931640625
-48.52294921875
-51.26953125
-60.4248046875
-56.7626953125
-54.931640625
-60.4248046875
-68.66455078125
-67.7490234375
-57.67822265625
-63.17138671875
-60.4248046875
-58.59375
-52.18505859375
-55.84716796875
-55.84716796875
-54.01611328125
-66.83349609375
-62.255859375
-43.02978515625
-32.04345703125
-49.4384765625
-58.59375
-59.50927734375
-59.50927734375
-62.255859375
-58.59375
-57.67822265625
-58.59375
-54.01611328125
-37.53662109375
-48.52294921875
-64.0869140625
-69.580078125
-61.34033203125
-65.00244140625
-68.66455078125
-59.50927734375
-57.67822265625
-54.931640625
-52.18505859375
-54.931640625
-55.84716796875
-57.67822265625
-63.17138671875
-57.67822265625
-62.255859375
-63.17138671875
-57.67822265625
-54.931640625
-45.7763671875
-40.283203125
-65.91796875
-66.83349609375
-60.4248046875
-55.84716796875
-60.4248046875
-65.91796875
-58.59375
-59.50927734375
-65.00244140625
-61.34033203125
-68.66455078125
-65.91796875
-59.50927734375
-59.50927734375
-51.26953125
-49.4384765625
-62.255859375
-52.18505859375
-60.4248046875
-64.0869140625
-65.00244140625
-57.67822265625
-56.7626953125
-60.4248046875
-66.83349609375
-64.0869140625
-44.86083984375
-39.36767578125
-54.931640625
-52.18505859375
-44.86083984375
-39.36767578125
-40.283203125
-49.4384765625
-53.1005859375
-54.931640625
-63.17138671875
-72.32666015625
-73.2421875
-65.00244140625
-59.50927734375
-52.18505859375
-69.580078125
-58.59375
-47.607421875
-55.84716796875
-33.87451171875
-23.8037109375
-13.73291015625
-4.57763671875
-24.71923828125
-32.958984375
-20.1416015625
-27.4658203125
-27.4658203125
-27.4658203125
-31.1279296875
-31.1279296875
-43.9453125
-48.52294921875
-48.52294921875
-45.7763671875
-53.1005859375
-51.26953125
-58.59375
-57.67822265625
-55.84716796875
-49.4384765625
-49.4384765625
-62.255859375
-55.84716796875
-53.1005859375
-61.34033203125
-70.49560546875
-64.0869140625
-64.0869140625
-64.0869140625
-88.80615234375
-86.97509765625
-84.228515625
-84.228515625
-83.31298828125
-73.2421875
-75.0732421875
-81.48193359375
-78.7353515625
-77.81982421875
-65.00244140625
-60.4248046875
-57.67822265625
-70.49560546875
-74.15771484375
-72.32666015625
-70.49560546875
-69.580078125
-54.931640625
-63.17138671875
-82.3974609375
-86.0595703125
-109.86328125
-127.25830078125
-151.9775390625
-165.71044921875
-163.87939453125
-120.849609375
-65.91796875
-38.4521484375
28.38134765625
114.44091796875
209.65576171875
322.265625
462.34130859375
608.82568359375
810.24169921875
992.431640625
1102.294921875
1159.0576171875
1204.833984375
1175.537109375
1074.8291015625
909.11865234375
664.6728515625
394.59228515625
143.73779296875
-152.89306640625
-375.3662109375
-410.15625
-405.57861328125
-383.60595703125
-377.197265625
-345.15380859375
-294.7998046875
-265.5029296875
-234.375
-198.66943359375
-156.55517578125
-97.96142578125
-68.66455078125
-76.904296875
-54.931640625
-34.7900390625
-21.97265625
-16.4794921875
-20.1416015625
-21.05712890625
-20.1416015625
-27.4658203125
-25.634765625
-26.55029296875
-20.1416015625
-15.56396484375
-7.32421875
-1.8310546875
-19.22607421875
-24.71923828125
-16.4794921875
-4.57763671875
5.4931640625
-6.40869140625
1.8310546875
4.57763671875
7.32421875
13.73291015625
8.23974609375
16.4794921875
16.4794921875
13.73291015625
28.38134765625
23.8037109375
21.97265625
25.634765625
24.71923828125
30.21240234375
25.634765625
34.7900390625
30.21240234375
34.7900390625
52.18505859375
38.4521484375
33.87451171875
41.19873046875
37.53662109375
45.7763671875
55.84716796875
53.1005859375
56.7626953125
54.01611328125
65.91796875
64.0869140625
59.50927734375
64.0869140625
83.31298828125
93.3837890625
85.14404296875
88.80615234375
92.46826171875
93.3837890625
97.0458984375
97.0458984375
101.62353515625
107.11669921875
114.44091796875
122.6806640625
120.849609375
127.25830078125
133.6669921875
140.9912109375
157.470703125
152.89306640625
148.3154296875
158.38623046875
170.2880859375
173.03466796875
186.767578125
188.5986328125
193.17626953125
198.66943359375
207.82470703125
219.7265625
217.8955078125
221.5576171875
234.375
255.43212890625
266.41845703125
288.39111328125
293.88427734375
287.4755859375
281.06689453125
293.88427734375
303.03955078125
301.20849609375
300.29296875
324.0966796875
331.4208984375
334.16748046875
335.99853515625
325.01220703125
328.67431640625
336.9140625
345.15380859375
350.64697265625
350.64697265625
359.80224609375
356.14013671875
358.88671875
346.0693359375
353.3935546875
365.29541015625
342.4072265625
338.7451171875
330.50537109375
321.35009765625
307.6171875
307.6171875
311.279296875
297.54638671875
285.64453125
280.1513671875
259.09423828125
257.26318359375
249.0234375
228.8818359375
195.9228515625
172.119140625
164.794921875
173.03466796875
157.470703125
138.24462890625
128.173828125
108.0322265625
89.7216796875
90.63720703125
82.3974609375
75.98876953125
62.255859375
41.19873046875
30.21240234375
20.1416015625
3.662109375
-3.662109375
-0.91552734375
-6.40869140625
-19.22607421875
-21.97265625
-42.1142578125
-42.1142578125
-34.7900390625
-27.4658203125
-38.4521484375
-35.70556640625
-47.607421875
-55.84716796875
-53.1005859375
-58.59375
-61.34033203125
-59.50927734375
-50.35400390625
-64.0869140625
-67.7490234375
-67.7490234375
-62.255859375
-54.931640625
-48.52294921875
-75.0732421875
-60.4248046875
-59.50927734375
-80.56640625
-86.0595703125
-74.15771484375
-70.49560546875
-58.59375
-58.59375
-59.50927734375
-50.35400390625
-53.1005859375
-60.4248046875
-66.83349609375
-74.15771484375
-83.31298828125
-65.91796875
-47.607421875
-67.7490234375
-74.15771484375
-72.32666015625
-66.83349609375
-76.904296875
-75.0732421875
-58.59375
-54.931640625
-54.931640625
-55.84716796875
-51.26953125
-54.01611328125
-53.1005859375
-47.607421875
-64.0869140625
-71.4111328125
-66.83349609375
-64.0869140625
-73.2421875
-76.904296875
-69.580078125
-51.26953125
-58.59375
-48.52294921875
-42.1142578125
-47.607421875
-56.7626953125
-57.67822265625
-55.84716796875
-53.1005859375
-39.36767578125
-45.7763671875
-43.02978515625
-44.86083984375
-54.01611328125
-61.34033203125
-64.0869140625
-64.0869140625
-64.0869140625
-54.01611328125
-56.7626953125
-52.18505859375
-55.84716796875
-61.34033203125
-53.1005859375
-41.19873046875
-68.66455078125
-62.255859375
-69.580078125
-69.580078125
-82.3974609375
-86.0595703125
-74.15771484375
-70.49560546875
-65.91796875
-66.83349609375
-71.4111328125
-70.49560546875
-71.4111328125
-75.98876953125
-74.15771484375
-85.14404296875
-92.46826171875
-84.228515625
-86.0595703125
-100.7080078125
-100.7080078125
-95.21484375
-93.3837890625
-80.56640625
-83.31298828125
-84.228515625
-80.56640625
-86.97509765625
-96.13037109375
-97.0458984375
-97.96142578125
-94.29931640625
-86.0595703125
-85.14404296875
-86.0595703125
-88.80615234375
-96.13037109375
-108.94775390625
-110.77880859375
-109.86328125
-108.0322265625
-97.96142578125
-97.0458984375
-92.46826171875
-101.62353515625
-97.0458984375
-94.29931640625
-104.3701171875
-112.60986328125
-108.0322265625
-111.6943359375
-105.28564453125
-95.21484375
-98.876953125
-99.79248046875
-99.79248046875
-101.62353515625
-95.21484375
-86.0595703125
-103.45458984375
-100.7080078125
-104.3701171875
-108.94775390625
-114.44091796875
-120.849609375
-112.60986328125
-110.77880859375
-112.60986328125
-105.28564453125
-115.3564453125
-101.62353515625
-100.7080078125
-97.0458984375
-94.29931640625
-95.21484375
-104.3701171875
-113.525390625
-118.10302734375
-128.173828125
-130.0048828125
-137.3291015625
-123.59619140625
-115.3564453125
-118.10302734375
-121.76513671875
-112.60986328125
-119.0185546875
-108.0322265625
-104.3701171875
-110.77880859375
-123.59619140625
-120.849609375
-127.25830078125
-119.93408203125
-115.3564453125
-119.0185546875
-121.76513671875
-112.60986328125
-102.5390625
-108.0322265625
-119.93408203125
-119.93408203125
-108.0322265625
-100.7080078125
-130.92041015625
-125.42724609375
-123.59619140625
-131.8359375
-128.173828125
-130.0048828125
-123.59619140625
-123.59619140625
-121.76513671875
-118.10302734375
-117.1875
-120.849609375
-130.0048828125
-121.76513671875
-119.93408203125
-128.173828125
-124.51171875
-113.525390625
-99.79248046875
-111.6943359375
-138.24462890625
-132.75146484375
-117.1875
-113.525390625
-128.173828125
-142.822265625
-136.41357421875
-127.25830078125
-127.25830078125
-117.1875
-116.27197265625
-121.76513671875
-136.41357421875
-143.73779296875
-132.75146484375
-126.3427734375
-128.173828125
-131.8359375
-128.173828125
-117.1875
-126.3427734375
-131.8359375
-128.173828125
-123.59619140625
-122.6806640625
-140.07568359375
-131.8359375
-131.8359375
-141.90673828125
-141.90673828125
-132.75146484375
-136.41357421875
-129.08935546875
-132.75146484375
-131.8359375
-126.3427734375
-119.93408203125
-109.86328125
-113.525390625
-117.1875
-135.498046875
-138.24462890625
-128.173828125
-128.173828125
-126.3427734375
-137.3291015625
-140.07568359375
-143.73779296875
-140.9912109375
-137.3291015625
-127.25830078125
-122.6806640625
-127.25830078125
-158.38623046875
-147.39990234375
-128.173828125
-133.6669921875
-124.51171875
-122.6806640625
-117.1875
-124.51171875
-138.24462890625
-142.822265625
-134.58251953125
-136.41357421875
-139.16015625
-140.9912109375
-138.24462890625
-131.8359375
-130.0048828125
-126.3427734375
-114.44091796875
-104.3701171875
-134.58251953125
-137.3291015625
-144.6533203125
-149.23095703125
-152.89306640625
-141.90673828125
-126.3427734375
-124.51171875
-140.07568359375
-139.16015625
-128.173828125
-114.44091796875
-110.77880859375
-92.46826171875
-89.7216796875
-88.80615234375
-85.14404296875
-82.3974609375
-79.65087890625
-104.3701171875
-102.5390625
-98.876953125
-97.96142578125
-109.86328125
-119.93408203125
-114.44091796875
-122.6806640625
-133.6669921875
-125.42724609375
-128.173828125
-132.75146484375
-127.25830078125
-130.92041015625
-124.51171875
-129.08935546875
-119.93408203125
-115.3564453125
-138.24462890625
-146.484375
-145.56884765625
-129.08935546875
-124.51171875
-131.8359375
-156.55517578125
-158.38623046875
-156.55517578125
-158.38623046875
-161.1328125
-164.794921875
-161.1328125
-155.6396484375
-140.07568359375
-138.24462890625
-151.06201171875
-145.56884765625
-133.6669921875
-151.06201171875
-144.6533203125
-145.56884765625
-156.55517578125
-151.9775390625
-140.9912109375
-155.6396484375
-163.87939453125
-157.470703125
-179.443359375
-205.99365234375
-231.62841796875
-268.24951171875
-275.57373046875
-245.361328125
-198.66943359375
-157.470703125
-96.13037109375
-3.662109375
108.0322265625
235.29052734375
361.63330078125
500.79345703125
696.71630859375
884.3994140625
1027.2216796875
1107.7880859375
1141.66259765625
1084.89990234375
1007.080078125
881.65283203125
617.98095703125
297.54638671875
32.958984375
-277.40478515625
-478.82080078125
-520.93505859375
-501.708984375
-470.5810546875
-463.2568359375
-449.52392578125
-397.3388671875
-377.197265625
-347.900390625
-302.1240234375
-260.92529296875
-228.8818359375
-206.9091796875
-171.20361328125
-131.8359375
-134.58251953125
-139.16015625
-132.75146484375
-118.10302734375
-107.11669921875
-97.96142578125
-97.0458984375
-103.45458984375
-104.3701171875
-101.62353515625
-94.29931640625
-88.80615234375
-79.65087890625
-80.56640625
-85.14404296875
-82.3974609375
-72.32666015625
-65.91796875
-70.49560546875
-84.228515625
-67.7490234375
-58.59375
-65.00244140625
-68.66455078125
-70.49560546875
-63.17138671875
-58.59375
-53.1005859375
-50.35400390625
-49.4384765625
-48.52294921875
-41.19873046875
-45.7763671875
-40.283203125
-23.8037109375
-21.05712890625
-38.4521484375
-34.7900390625
-27.4658203125
-21.97265625
-33.87451171875
-30.21240234375
-22.88818359375
-20.1416015625
-12.8173828125
-6.40869140625
-1.8310546875
1.8310546875
2.74658203125
8.23974609375
6.40869140625
10.986328125
4.57763671875
11.90185546875
26.55029296875
34.7900390625
34.7900390625
27.4658203125
34.7900390625
40.283203125
43.9453125
46.69189453125
52.18505859375
36.62109375
56.7626953125
67.7490234375
76.904296875
84.228515625
103.45458984375
98.876953125
110.77880859375
121.76513671875
110.77880859375
108.0322265625
138.24462890625
144.6533203125
134.58251953125
138.24462890625
155.6396484375
175.78125
182.18994140625
181.2744140625
193.17626953125
205.078125
216.97998046875
229.79736328125
227.05078125
231.62841796875
226.13525390625
232.5439453125
250.8544921875
263.671875
274.658203125
279.23583984375
284.72900390625
289.306640625
296.630859375
307.6171875
291.1376953125
294.7998046875
296.630859375
303.03955078125
306.70166015625
294.7998046875
295.71533203125
298.4619140625
292.05322265625
290.22216796875
287.4755859375
281.982421875
280.1513671875
292.05322265625
289.306640625
278.3203125
259.09423828125
248.10791015625
223.388671875
205.078125
195.9228515625
187.68310546875
167.54150390625
148.3154296875
141.90673828125
129.08935546875
119.93408203125
118.10302734375
107.11669921875
77.81982421875
68.66455078125
55.84716796875
44.86083984375
39.36767578125
32.958984375
15.56396484375
0
-13.73291015625
-23.8037109375
-17.39501953125
-25.634765625
-42.1142578125
-51.26953125
-50.35400390625
-53.1005859375
-64.0869140625
-74.15771484375
-78.7353515625
-80.56640625
-88.80615234375
-82.3974609375
-84.228515625
-87.890625
-88.80615234375
-94.29931640625
-96.13037109375
-103.45458984375
-98.876953125
-102.5390625
-100.7080078125
-101.62353515625
-97.0458984375
-97.0458984375
-93.3837890625
-97.0458984375
-108.94775390625
-101.62353515625
-93.3837890625
-99.79248046875
-104.3701171875
-98.876953125
-95.21484375
-92.46826171875
-96.13037109375
-97.96142578125
-89.7216796875
-86.97509765625
-91.552734375
-96.13037109375
-106.201171875
-109.86328125
-94.29931640625
-86.97509765625
-77.81982421875
-83.31298828125
-84.228515625
-76.904296875
-79.65087890625
-78.7353515625
-94.29931640625
-88.80615234375
-80.56640625
-71.4111328125
-75.0732421875
-70.49560546875
-72.32666015625
-71.4111328125
-67.7490234375
-63.17138671875
-74.15771484375
-76.904296875
-85.14404296875
-81.48193359375
-74.15771484375
-65.91796875
-65.00244140625
-65.00244140625
-65.91796875
-61.34033203125
-75.98876953125
-73.2421875
-72.32666015625
-68.66455078125
-71.4111328125
-79.65087890625
-79.65087890625
-74.15771484375
-73.2421875
-70.49560546875
-72.32666015625
-82.3974609375
-102.5390625
-78.7353515625
-86.97509765625
-80.56640625
-94.29931640625
-101.62353515625
-99.79248046875
-97.0458984375
-88.80615234375
-89.7216796875
-92.46826171875
-79.65087890625
-75.0732421875
-79.65087890625
-92.46826171875
-94.29931640625
-90.63720703125
-96.13037109375
-104.3701171875
-74.15771484375
-82.3974609375
-97.96142578125
-91.552734375
-93.3837890625
-88.80615234375
-97.0458984375
-95.21484375
-102.5390625
-101.62353515625
-105.28564453125
-101.62353515625
-97.96142578125
-104.3701171875
-108.94775390625
-114.44091796875
-94.29931640625
-90.63720703125
-102.5390625
-109.86328125
-109.86328125
-105.28564453125
-96.13037109375
-94.29931640625
-104.3701171875
-103.45458984375
-97.0458984375
-107.11669921875
-105.28564453125
-108.0322265625
-107.11669921875
-110.77880859375
-105.28564453125
-108.0322265625
-120.849609375
-125.42724609375
-128.173828125
-124.51171875
-114.44091796875
-106.201171875
-101.62353515625
-87.890625
-78.7353515625
-97.0458984375
-95.21484375
-81.48193359375
-96.13037109375
-108.94775390625
-103.45458984375
-111.6943359375
-110.77880859375
-105.28564453125
-108.0322265625
-119.0185546875
-117.1875
-109.86328125
-104.3701171875
-97.96142578125
-92.46826171875
-100.7080078125
-113.525390625
-113.525390625
-119.0185546875
-107.11669921875
-107.11669921875
-113.525390625
-105.28564453125
-106.201171875
-100.7080078125
-99.79248046875
-108.94775390625
-103.45458984375
-103.45458984375
-116.27197265625
-118.10302734375
-108.94775390625
-105.28564453125
-102.5390625
-86.0595703125
-89.7216796875
-108.94775390625
-113.525390625
-128.173828125
-117.1875
-108.94775390625
-107.11669921875
-107.11669921875
-108.0322265625
-113.525390625
-113.525390625
-106.201171875
-96.13037109375
-105.28564453125
-107.11669921875
-107.11669921875
-109.86328125
-114.44091796875
-108.94775390625
-105.28564453125
-101.62353515625
-108.94775390625
-106.201171875
-104.3701171875
-111.6943359375
-103.45458984375
-104.3701171875
-105.28564453125
-119.93408203125
-119.93408203125
-115.3564453125
-108.0322265625
-118.10302734375
-117.1875
-109.86328125
-118.10302734375
-110.77880859375
-114.44091796875
-112.60986328125
-114.44091796875
-114.44091796875
-114.44091796875
-116.27197265625
-117.1875
-108.0322265625
-115.3564453125
-115.3564453125
-106.201171875
-116.27197265625
-119.0185546875
-122.6806640625
-116.27197265625
-99.79248046875
-85.14404296875
-112.60986328125
-121.76513671875
-119.93408203125
-112.60986328125
-119.0185546875
-111.6943359375
-116.27197265625
-120.849609375
-108.0322265625
-120.849609375
-113.525390625
-115.3564453125
-118.10302734375
-110.77880859375
-105.28564453125
-108.94775390625
-106.201171875
-118.10302734375
-117.1875
-119.93408203125
-132.75146484375
-110.77880859375
-115.3564453125
-130.92041015625
-116.27197265625
-118.10302734375
-114.44091796875
-110.77880859375
-109.86328125
-106.201171875
-101.62353515625
-105.28564453125
-113.525390625
-118.10302734375
-104.3701171875
-83.31298828125
-107.11669921875
-121.76513671875
-113.525390625
-114.44091796875
-110.77880859375
-115.3564453125
-120.849609375
-110.77880859375
-108.0322265625
-113.525390625
-117.1875
-125.42724609375
-107.11669921875
-106.201171875
-108.0322265625
-95.21484375
-96.13037109375
-109.86328125
-115.3564453125
-112.60986328125
-108.94775390625
-118.10302734375
-129.08935546875
-115.3564453125
-114.44091796875
-119.93408203125
-108.0322265625
-96.13037109375
-84.228515625
-73.2421875
-71.4111328125
-65.91796875
-64.0869140625
-82.3974609375
-81.48193359375
-90.63720703125
-86.0595703125
-86.0595703125
-82.3974609375
-86.97509765625
-94.29931640625
-102.5390625
-97.0458984375
-93.3837890625
-103.45458984375
-108.0322265625
-110.77880859375
-118.10302734375
-119.0185546875
-103.45458984375
-99.79248046875
-106.201171875
-97.0458984375
-86.97509765625
-94.29931640625
-126.3427734375
-131.8359375
-108.0322265625
-102.5390625
-109.86328125
-126.3427734375
-125.42724609375
-121.76513671875
-115.3564453125
-124.51171875
-130.0048828125
-125.42724609375
-129.08935546875
-127.25830078125
-124.51171875
-127.25830078125
-130.0048828125
-119.0185546875
-107.11669921875
-116.27197265625
-140.07568359375
-136.41357421875
-119.0185546875
-119.0185546875
-131.8359375
-135.498046875
-162.9638671875
-178.52783203125
-198.66943359375
-216.064453125
-215.14892578125
-174.86572265625
-128.173828125
-87.890625
-40.283203125
55.84716796875
168.45703125
260.92529296875
398.25439453125
555.72509765625
745.2392578125
927.42919921875
1051.025390625
1128.84521484375
1157.2265625
1127.9296875
1053.77197265625
890.80810546875
638.12255859375
379.0283203125
150.146484375
-155.6396484375
-407.40966796875
-478.82080078125
-484.31396484375
-449.52392578125
-424.8046875
-406.494140625
-365.29541015625
-325.927734375
-283.8134765625
-249.0234375
-201.416015625
-167.54150390625
-135.498046875
-123.59619140625
-103.45458984375
-91.552734375
-86.97509765625
-87.890625
-85.14404296875
-90.63720703125
-92.46826171875
-75.0732421875
-54.931640625
-67.7490234375
-54.01611328125
-51.26953125
-52.18505859375
-54.01611328125
-53.1005859375
-56.7626953125
-46.69189453125
-43.02978515625
-61.34033203125
-50.35400390625
-46.69189453125
-53.1005859375
-47.607421875
-50.35400390625
-48.52294921875
-37.53662109375
-38.4521484375
-27.4658203125
-18.310546875
-26.55029296875
-24.71923828125
-14.6484375
-14.6484375
-13.73291015625
-10.986328125
-1.8310546875
-15.56396484375
-11.90185546875
-17.39501953125
-8.23974609375
-5.4931640625
-12.8173828125
-16.4794921875
-5.4931640625
-0.91552734375
0
14.6484375
27.4658203125
21.05712890625
23.8037109375
23.8037109375
18.310546875
12.8173828125
24.71923828125
35.70556640625
32.04345703125
37.53662109375
