ECG
16.4794921875
27.4658203125
43.02978515625
37.53662109375
43.02978515625
24.71923828125
37.53662109375
44.86083984375
46.69189453125
50.35400390625
54.01611328125
61.34033203125
56.7626953125
54.931640625
64.0869140625
70.49560546875
69.580078125
75.98876953125
79.65087890625
76.904296875
82.3974609375
75.98876953125
92.46826171875
99.79248046875
95.21484375
97.96142578125
113.525390625
90.63720703125
110.77880859375
124.51171875
115.3564453125
116.27197265625
111.6943359375
109.86328125
119.93408203125
123.59619140625
137.3291015625
123.59619140625
119.93408203125
135.498046875
128.173828125
132.75146484375
131.8359375
139.16015625
138.24462890625
127.25830078125
136.41357421875
133.6669921875
128.173828125
132.75146484375
140.07568359375
144.6533203125
124.51171875
100.7080078125
117.1875
122.6806640625
87.890625
79.65087890625
82.3974609375
75.0732421875
58.59375
65.00244140625
54.01611328125
38.4521484375
19.22607421875
15.56396484375
0
-7.32421875
-2.74658203125
-17.39501953125
-14.6484375
-21.97265625
-28.38134765625
-38.4521484375
-50.35400390625
-35.70556640625
-64.0869140625
-54.931640625
-48.52294921875
-67.7490234375
-70.49560546875
-65.91796875
-64.0869140625
-76.904296875
-75.98876953125
-76.904296875
-77.81982421875
-88.80615234375
-56.7626953125
-78.7353515625
-94.29931640625
-86.0595703125
-83.31298828125
-89.7216796875
-83.31298828125
-84.228515625
-71.4111328125
-85.14404296875
-76.904296875
-75.0732421875
-90.63720703125
-80.56640625
-84.228515625
-79.65087890625
-97.96142578125
-97.0458984375
-85.14404296875
-84.228515625
-90.63720703125
-83.31298828125
-86.97509765625
-76.904296875
-89.7216796875
-80.56640625
-89.7216796875
-75.98876953125
-85.14404296875
-77.81982421875
-80.56640625
-75.98876953125
-75.0732421875
-75.98876953125
-76.904296875
-84.228515625
-73.2421875
-85.14404296875
-68.66455078125
-72.32666015625
-79.65087890625
-69.580078125
-74.15771484375
-79.65087890625
-64.0869140625
-64.0869140625
-80.56640625
-76.904296875
-78.7353515625
-80.56640625
-82.3974609375
-82.3974609375
-79.65087890625
-75.0732421875
-75.98876953125
-75.98876953125
-88.80615234375
-87.890625
-83.31298828125
-83.31298828125
-78.7353515625
-82.3974609375
-84.228515625
-84.228515625
-95.21484375
-82.3974609375
-87.890625
-96.13037109375
-82.3974609375
-91.552734375
-88.80615234375
-85.14404296875
-89.7216796875
-97.0458984375
-93.3837890625
-90.63720703125
-104.3701171875
-97.96142578125
-86.0595703125
-94.29931640625
-97.96142578125
-95.21484375
-90.63720703125
-101.62353515625
-97.0458984375
-92.46826171875
-105.28564453125
-92.46826171875
-97.0458984375
-103.45458984375
-89.7216796875
-105.28564453125
-102.5390625
-109.86328125
-108.0322265625
-99.79248046875
-96.13037109375
-99.79248046875
-99.79248046875
-105.28564453125
-111.6943359375
-104.3701171875
-99.79248046875
-101.62353515625
-104.3701171875
-108.94775390625
-101.62353515625
-97.96142578125
-108.94775390625
-116.27197265625
-104.3701171875
-100.7080078125
-104.3701171875
-110.77880859375
-106.201171875
-103.45458984375
-111.6943359375
-112.60986328125
-105.28564453125
-97.0458984375
-103.45458984375
-103.45458984375
-103.45458984375
-103.45458984375
-109.86328125
-114.44091796875
-102.5390625
-107.11669921875
-109.86328125
-115.3564453125
-111.6943359375
-111.6943359375
-110.77880859375
-107.11669921875
-101.62353515625
-108.94775390625
-107.11669921875
-101.62353515625
-105.28564453125
-108.94775390625
-105.28564453125
-93.3837890625
-92.46826171875
-83.31298828125
-79.65087890625
-71.4111328125
-67.7490234375
-80.56640625
-68.66455078125
-59.50927734375
-52.18505859375
-49.4384765625
-50.35400390625
-39.36767578125
-31.1279296875
-21.05712890625
-18.310546875
-19.22607421875
-10.07080078125
-12.8173828125
-7.32421875
-11.90185546875
-22.88818359375
-36.62109375
-40.283203125
-43.02978515625
-47.607421875
-43.02978515625
-48.52294921875
-43.9453125
-55.84716796875
-69.580078125
-65.91796875
-73.2421875
-74.15771484375
-72.32666015625
-66.83349609375
-74.15771484375
-86.0595703125
-89.7216796875
-85.14404296875
-100.7080078125
-106.201171875
-103.45458984375
-100.7080078125
-104.3701171875
-104.3701171875
-97.96142578125
-97.0458984375
-97.96142578125
-98.876953125
-102.5390625
-107.11669921875
-95.21484375
-94.29931640625
-106.201171875
-101.62353515625
-98.876953125
-97.96142578125
-104.3701171875
-114.44091796875
-116.27197265625
-104.3701171875
-87.890625
-59.50927734375
-18.310546875
15.56396484375
41.19873046875
86.97509765625
132.75146484375
231.62841796875
349.7314453125
466.9189453125
632.62939453125
825.8056640625
1015.31982421875
1163.63525390625
1329.345703125
1494.140625
1560.97412109375
1562.80517578125
1571.96044921875
1537.17041015625
1335.75439453125
1090.39306640625
884.3994140625
689.39208984375
454.1015625
205.99365234375
72.32666015625
11.90185546875
-20.1416015625
-50.35400390625
-71.4111328125
-71.4111328125
-54.931640625
-27.4658203125
-0.91552734375
13.73291015625
19.22607421875
12.8173828125
6.40869140625
-9.1552734375
-16.4794921875
-24.71923828125
-30.21240234375
-27.4658203125
-29.296875
-31.1279296875
-32.958984375
-34.7900390625
-33.87451171875
-33.87451171875
-40.283203125
-37.53662109375
-37.53662109375
-33.87451171875
-34.7900390625
-34.7900390625
-36.62109375
-37.53662109375
-37.53662109375
-32.958984375
-31.1279296875
-31.1279296875
-29.296875
-27.4658203125
-25.634765625
-25.634765625
-23.8037109375
-21.97265625
-22.88818359375
-20.1416015625
-20.1416015625
-21.05712890625
-18.310546875
-15.56396484375
-13.73291015625
-8.23974609375
-9.1552734375
-9.1552734375
-7.32421875
-3.662109375
-7.32421875
-2.74658203125
3.662109375
2.74658203125
2.74658203125
8.23974609375
10.07080078125
14.6484375
14.6484375
17.39501953125
16.4794921875
21.05712890625
26.55029296875
27.4658203125
27.4658203125
31.1279296875
33.87451171875
32.04345703125
37.53662109375
39.36767578125
43.02978515625
42.1142578125
42.1142578125
48.52294921875
48.52294921875
48.52294921875
55.84716796875
60.4248046875
61.34033203125
58.59375
60.4248046875
61.34033203125
65.91796875
74.15771484375
76.904296875
76.904296875
78.7353515625
82.3974609375
88.80615234375
92.46826171875
93.3837890625
95.21484375
103.45458984375
107.11669921875
105.28564453125
110.77880859375
109.86328125
116.27197265625
115.3564453125
117.1875
121.76513671875
122.6806640625
121.76513671875
128.173828125
130.0048828125
129.08935546875
132.75146484375
135.498046875
133.6669921875
134.58251953125
135.498046875
135.498046875
140.9912109375
139.16015625
140.9912109375
145.56884765625
140.9912109375
138.24462890625
136.41357421875
134.58251953125
132.75146484375
129.08935546875
124.51171875
122.6806640625
116.27197265625
107.11669921875
94.29931640625
88.80615234375
81.48193359375
67.7490234375
58.59375
51.26953125
42.1142578125
32.958984375
21.97265625
17.39501953125
10.986328125
3.662109375
-1.8310546875
-8.23974609375
-14.6484375
-22.88818359375
-26.55029296875
-29.296875
-36.62109375
-39.36767578125
-43.02978515625
-45.7763671875
-45.7763671875
-43.9453125
-47.607421875
-46.69189453125
-49.4384765625
-59.50927734375
-63.17138671875
-55.84716796875
-57.67822265625
-51.26953125
-55.84716796875
-59.50927734375
-65.00244140625
-61.34033203125
-57.67822265625
-63.17138671875
-62.255859375
-60.4248046875
-55.84716796875
-60.4248046875
-60.4248046875
-57.67822265625
-56.7626953125
-54.01611328125
-57.67822265625
-57.67822265625
-56.7626953125
-57.67822265625
-58.59375
-52.18505859375
-51.26953125
-54.01611328125
-54.931640625
-54.931640625
-52.18505859375
-49.4384765625
-49.4384765625
-47.607421875
-48.52294921875
-49.4384765625
-45.7763671875
-43.02978515625
-47.607421875
-51.26953125
-50.35400390625
-49.4384765625
-48.52294921875
-43.9453125
-46.69189453125
-46.69189453125
-48.52294921875
-40.283203125
-39.36767578125
-43.02978515625
-43.9453125
-43.9453125
-37.53662109375
-42.1142578125
-46.69189453125
-47.607421875
-47.607421875
-50.35400390625
-44.86083984375
-45.7763671875
-49.4384765625
-50.35400390625
-50.35400390625
-48.52294921875
-48.52294921875
-50.35400390625
-52.18505859375
-56.7626953125
-53.1005859375
-52.18505859375
-53.1005859375
-54.931640625
-53.1005859375
-53.1005859375
-53.1005859375
-51.26953125
-56.7626953125
-57.67822265625
-56.7626953125
-56.7626953125
-54.01611328125
-55.84716796875
-60.4248046875
-57.67822265625
-58.59375
-60.4248046875
-61.34033203125
-58.59375
-62.255859375
-60.4248046875
-59.50927734375
-61.34033203125
-63.17138671875
-61.34033203125
-60.4248046875
-65.00244140625
-63.17138671875
-63.17138671875
-63.17138671875
-61.34033203125
-62.255859375
-64.0869140625
-65.00244140625
-61.34033203125
-63.17138671875
-66.83349609375
-67.7490234375
-63.17138671875
-67.7490234375
-66.83349609375
-62.255859375
-68.66455078125
-67.7490234375
-61.34033203125
-67.7490234375
-71.4111328125
-68.66455078125
-67.7490234375
-66.83349609375
-67.7490234375
-74.15771484375
-67.7490234375
-68.66455078125
-69.580078125
-65.00244140625
-62.255859375
-68.66455078125
-69.580078125
-75.98876953125
-73.2421875
-69.580078125
-67.7490234375
-71.4111328125
-77.81982421875
-76.904296875
-66.83349609375
-67.7490234375
-68.66455078125
-70.49560546875
-73.2421875
-70.49560546875
-72.32666015625
-68.66455078125
-68.66455078125
-72.32666015625
-70.49560546875
-66.83349609375
-65.91796875
-65.91796875
-65.00244140625
-67.7490234375
-69.580078125
-71.4111328125
-69.580078125
-73.2421875
-71.4111328125
-69.580078125
-67.7490234375
-70.49560546875
-75.0732421875
-75.98876953125
-72.32666015625
-66.83349609375
-71.4111328125
-68.66455078125
-70.49560546875
-63.17138671875
-65.91796875
-68.66455078125
-72.32666015625
-66.83349609375
-65.91796875
-66.83349609375
-68.66455078125
-64.0869140625
-57.67822265625
-55.84716796875
-45.7763671875
-43.9453125
-33.87451171875
-32.04345703125
-30.21240234375
-22.88818359375
-20.1416015625
-15.56396484375
-2.74658203125
7.32421875
19.22607421875
21.05712890625
13.73291015625
13.73291015625
21.97265625
22.88818359375
23.8037109375
16.4794921875
9.1552734375
-2.74658203125
-6.40869140625
-1.8310546875
-2.74658203125
-6.40869140625
-13.73291015625
-21.05712890625
-30.21240234375
-32.958984375
-38.4521484375
-36.62109375
-40.283203125
-35.70556640625
-42.1142578125
-48.52294921875
-52.18505859375
-58.59375
-60.4248046875
-57.67822265625
-59.50927734375
-54.931640625
-56.7626953125
-58.59375
-61.34033203125
-58.59375
-61.34033203125
-65.91796875
-63.17138671875
-64.0869140625
-64.0869140625
-56.7626953125
-57.67822265625
-60.4248046875
-55.84716796875
-61.34033203125
-62.255859375
-69.580078125
-63.17138671875
-46.69189453125
-33.87451171875
-10.07080078125
31.1279296875
69.580078125
94.29931640625
137.3291015625
193.17626953125
292.05322265625
401.91650390625
530.09033203125
693.05419921875
876.15966796875
1062.92724609375
1205.74951171875
1380.615234375
1526.18408203125
1587.5244140625
1609.4970703125
1626.89208984375
1598.5107421875
1424.560546875
1186.5234375
975.03662109375
782.77587890625
561.21826171875
318.603515625
187.68310546875
125.42724609375
74.15771484375
21.05712890625
-23.8037109375
-45.7763671875
-43.9453125
-17.39501953125
5.4931640625
35.70556640625
54.931640625
56.7626953125
49.4384765625
41.19873046875
33.87451171875
24.71923828125
16.4794921875
11.90185546875
10.07080078125
6.40869140625
6.40869140625
2.74658203125
3.662109375
-0.91552734375
-1.8310546875
0
-3.662109375
-1.8310546875
-2.74658203125
-1.8310546875
2.74658203125
-0.91552734375
0
0.91552734375
0.91552734375
0.91552734375
5.4931640625
3.662109375
4.57763671875
2.74658203125
3.662109375
2.74658203125
7.32421875
9.1552734375
10.07080078125
13.73291015625
15.56396484375
16.4794921875
13.73291015625
15.56396484375
17.39501953125
23.8037109375
24.71923828125
29.296875
31.1279296875
32.04345703125
36.62109375
35.70556640625
39.36767578125
37.53662109375
33.87451171875
43.9453125
43.9453125
41.19873046875
37.53662109375
45.7763671875
43.9453125
47.607421875
46.69189453125
50.35400390625
49.4384765625
54.931640625
58.59375
63.17138671875
62.255859375
61.34033203125
65.91796875
65.91796875
64.0869140625
68.66455078125
74.15771484375
75.98876953125
75.98876953125
75.98876953125
77.81982421875
81.48193359375
81.48193359375
83.31298828125
86.0595703125
90.63720703125
91.552734375
92.46826171875
95.21484375
93.3837890625
99.79248046875
98.876953125
105.28564453125
108.0322265625
106.201171875
114.44091796875
114.44091796875
118.10302734375
115.3564453125
118.10302734375
119.93408203125
120.849609375
119.93408203125
117.1875
119.93408203125
121.76513671875
122.6806640625
120.849609375
124.51171875
129.08935546875
125.42724609375
128.173828125
126.3427734375
124.51171875
122.6806640625
125.42724609375
127.25830078125
128.173828125
129.08935546875
121.76513671875
117.1875
116.27197265625
110.77880859375
106.201171875
101.62353515625
94.29931640625
89.7216796875
82.3974609375
75.0732421875
65.91796875
59.50927734375
48.52294921875
44.86083984375
32.958984375
20.1416015625
17.39501953125
17.39501953125
5.4931640625
-0.91552734375
-4.57763671875
-10.07080078125
-16.4794921875
-18.310546875
-21.05712890625
-28.38134765625
-29.296875
-32.958984375
-36.62109375
-42.1142578125
-43.9453125
-45.7763671875
-48.52294921875
-53.1005859375
-51.26953125
-50.35400390625
-48.52294921875
-49.4384765625
-53.1005859375
-52.18505859375
-49.4384765625
-51.26953125
-54.931640625
-51.26953125
-56.7626953125
-56.7626953125
-54.931640625
-54.931640625
-53.1005859375
-54.931640625
-53.1005859375
-54.01611328125
-53.1005859375
-57.67822265625
-54.01611328125
-49.4384765625
-51.26953125
-49.4384765625
-49.4384765625
-51.26953125
-50.35400390625
-45.7763671875
-50.35400390625
-49.4384765625
-46.69189453125
-51.26953125
-47.607421875
-47.607421875
-49.4384765625
-45.7763671875
-44.86083984375
-45.7763671875
-46.69189453125
-50.35400390625
-49.4384765625
-48.52294921875
-52.18505859375
-49.4384765625
-43.02978515625
-44.86083984375
-47.607421875
-45.7763671875
-47.607421875
-48.52294921875
-50.35400390625
-48.52294921875
-48.52294921875
-49.4384765625
-49.4384765625
-50.35400390625
-48.52294921875
-49.4384765625
-50.35400390625
-54.01611328125
-53.1005859375
-51.26953125
-48.52294921875
-52.18505859375
-54.01611328125
-56.7626953125
-53.1005859375
-56.7626953125
-54.931640625
-57.67822265625
-60.4248046875
-61.34033203125
-62.255859375
-60.4248046875
-64.0869140625
-64.0869140625
-66.83349609375
-66.83349609375
-67.7490234375
-67.7490234375
-70.49560546875
-70.49560546875
-69.580078125
-69.580078125
-72.32666015625
-75.98876953125
-72.32666015625
-74.15771484375
-75.98876953125
-75.0732421875
-76.904296875
-74.15771484375
-74.15771484375
-75.0732421875
-75.98876953125
-73.2421875
-75.0732421875
-75.98876953125
-78.7353515625
-80.56640625
-82.3974609375
-80.56640625
-79.65087890625
-85.14404296875
-81.48193359375
-79.65087890625
-79.65087890625
-82.3974609375
-81.48193359375
-82.3974609375
-84.228515625
-86.0595703125
-83.31298828125
-79.65087890625
-83.31298828125
-83.31298828125
-82.3974609375
-83.31298828125
-82.3974609375
-83.31298828125
-84.228515625
-86.0595703125
-85.14404296875
-86.0595703125
-88.80615234375
-87.890625
-90.63720703125
-92.46826171875
-89.7216796875
-90.63720703125
-89.7216796875
-91.552734375
-90.63720703125
-90.63720703125
-86.97509765625
-87.890625
-91.552734375
-90.63720703125
-93.3837890625
-90.63720703125
-92.46826171875
-94.29931640625
-95.21484375
-90.63720703125
-92.46826171875
-90.63720703125
-92.46826171875
-91.552734375
-93.3837890625
-95.21484375
-94.29931640625
-95.21484375
-95.21484375
-96.13037109375
-93.3837890625
-95.21484375
-98.876953125
-96.13037109375
-96.13037109375
-97.96142578125
-95.21484375
-96.13037109375
-95.21484375
-95.21484375
-94.29931640625
-93.3837890625
-93.3837890625
-93.3837890625
-96.13037109375
-99.79248046875
-94.29931640625
-94.29931640625
-96.13037109375
-96.13037109375
-93.3837890625
-96.13037109375
-97.96142578125
-94.29931640625
-95.21484375
-93.3837890625
-97.96142578125
-96.13037109375
-97.96142578125
-94.29931640625
-97.0458984375
-97.96142578125
-95.21484375
-96.13037109375
-96.13037109375
-95.21484375
-96.13037109375
-99.79248046875
-99.79248046875
-92.46826171875
-95.21484375
-97.96142578125
-101.62353515625
-97.96142578125
-96.13037109375
-97.0458984375
-98.876953125
-95.21484375
-93.3837890625
-95.21484375
-91.552734375
-87.890625
-80.56640625
-78.7353515625
-77.81982421875
-74.15771484375
-69.580078125
-65.91796875
-60.4248046875
-48.52294921875
-46.69189453125
-40.283203125
-33.87451171875
-24.71923828125
-15.56396484375
-4.57763671875
5.4931640625
14.6484375
25.634765625
32.958984375
25.634765625
8.23974609375
-4.57763671875
-10.986328125
-12.8173828125
-13.73291015625
-16.4794921875
-19.22607421875
-17.39501953125
-23.8037109375
-18.310546875
-25.634765625
-34.7900390625
-43.02978515625
-47.607421875
-52.18505859375
-61.34033203125
-72.32666015625
-76.904296875
-81.48193359375
-80.56640625
-85.14404296875
-86.97509765625
-86.97509765625
-88.80615234375
-90.63720703125
-93.3837890625
-93.3837890625
-94.29931640625
-92.46826171875
-91.552734375
-92.46826171875
-92.46826171875
-94.29931640625
-97.96142578125
-94.29931640625
-98.876953125
-99.79248046875
-99.79248046875
-101.62353515625
-96.13037109375
-97.96142578125
-97.96142578125
-101.62353515625
-108.94775390625
-107.11669921875
-95.21484375
-81.48193359375
-49.4384765625
-10.07080078125
16.4794921875
47.607421875
86.97509765625
149.23095703125
260.009765625
382.6904296875
521.8505859375
697.6318359375
897.216796875
1074.8291015625
1224.9755859375
1393.4326171875
1528.9306640625
1579.28466796875
1590.27099609375
1599.42626953125
1554.5654296875
1342.1630859375
1095.88623046875
883.48388671875
672.91259765625
417.48046875
157.470703125
31.1279296875
-1.8310546875
-26.55029296875
-59.50927734375
-74.15771484375
-55.84716796875
-34.7900390625
-7.32421875
14.6484375
22.88818359375
20.1416015625
15.56396484375
2.74658203125
-8.23974609375
-11.90185546875
-21.05712890625
-21.97265625
-26.55029296875
-31.1279296875
-37.53662109375
-37.53662109375
-38.4521484375
-43.02978515625
-45.7763671875
-44.86083984375
-43.9453125
-43.9453125
-43.02978515625
-46.69189453125
-43.9453125
-43.9453125
-44.86083984375
-46.69189453125
-45.7763671875
-42.1142578125
-40.283203125
-34.7900390625
-35.70556640625
-32.958984375
-33.87451171875
-33.87451171875
-32.04345703125
-27.4658203125
-30.21240234375
-31.1279296875
-30.21240234375
-25.634765625
-21.97265625
-23.8037109375
-23.8037109375
-23.8037109375
-18.310546875
-17.39501953125
-16.4794921875
-17.39501953125
-12.8173828125
-5.4931640625
-6.40869140625
-5.4931640625
-1.8310546875
1.8310546875
1.8310546875
1.8310546875
0.91552734375
6.40869140625
8.23974609375
10.07080078125
13.73291015625
14.6484375
15.56396484375
17.39501953125
20.1416015625
19.22607421875
22.88818359375
23.8037109375
24.71923828125
27.4658203125
32.958984375
34.7900390625
32.958984375
33.87451171875
42.1142578125
42.1142578125
43.02978515625
44.86083984375
47.607421875
52.18505859375
52.18505859375
56.7626953125
56.7626953125
60.4248046875
64.0869140625
66.83349609375
67.7490234375
68.66455078125
72.32666015625
78.7353515625
81.48193359375
78.7353515625
76.904296875
85.14404296875
89.7216796875
91.552734375
91.552734375
92.46826171875
99.79248046875
98.876953125
101.62353515625
100.7080078125
101.62353515625
102.5390625
110.77880859375
107.11669921875
105.28564453125
104.3701171875
106.201171875
107.11669921875
108.0322265625
108.0322265625
107.11669921875
107.11669921875
105.28564453125
105.28564453125
104.3701171875
101.62353515625
100.7080078125
103.45458984375
93.3837890625
84.228515625
84.228515625
79.65087890625
68.66455078125
62.255859375
48.52294921875
43.9453125
40.283203125
32.958984375
21.97265625
13.73291015625
4.57763671875
-7.32421875
-14.6484375
-20.1416015625
-25.634765625
-31.1279296875
-33.87451171875
-42.1142578125
-50.35400390625
-54.931640625
-56.7626953125
-61.34033203125
-64.0869140625
-66.83349609375
-73.2421875
-77.81982421875
-75.98876953125
-79.65087890625
-81.48193359375
-84.228515625
-84.228515625
-82.3974609375
-85.14404296875
-86.0595703125
-89.7216796875
-90.63720703125
-91.552734375
-86.0595703125
-86.0595703125
-86.0595703125
-87.890625
-89.7216796875
-84.228515625
-85.14404296875
-87.890625
-86.0595703125
-86.0595703125
-81.48193359375
-86.0595703125
-80.56640625
-79.65087890625
-87.890625
-82.3974609375
-84.228515625
-83.31298828125
-79.65087890625
-83.31298828125
-85.14404296875
-82.3974609375
-82.3974609375
-83.31298828125
-77.81982421875
-77.81982421875
-80.56640625
-78.7353515625
-78.7353515625
-77.81982421875
-77.81982421875
-80.56640625
-78.7353515625
-82.3974609375
-83.31298828125
-77.81982421875
-78.7353515625
-81.48193359375
-82.3974609375
-77.81982421875
-73.2421875
-77.81982421875
-79.65087890625
-79.65087890625
-75.98876953125
-79.65087890625
-79.65087890625
-78.7353515625
-82.3974609375
-81.48193359375
-83.31298828125
-78.7353515625
-80.56640625
-86.0595703125
-83.31298828125
-83.31298828125
-85.14404296875
-86.0595703125
-82.3974609375
-86.0595703125
-89.7216796875
-87.890625
-86.97509765625
-87.890625
-88.80615234375
-93.3837890625
-90.63720703125
-90.63720703125
-91.552734375
-91.552734375
-89.7216796875
-97.0458984375
-97.96142578125
-96.13037109375
-98.876953125
-99.79248046875
-97.0458984375
-99.79248046875
-101.62353515625
-102.5390625
-104.3701171875
-104.3701171875
-105.28564453125
-103.45458984375
-106.201171875
-106.201171875
-103.45458984375
-103.45458984375
-102.5390625
-108.0322265625
-108.0322265625
-108.94775390625
-108.94775390625
-108.94775390625
-108.94775390625
-109.86328125
-106.201171875
-108.94775390625
-108.94775390625
-108.94775390625
-110.77880859375
-109.86328125
-113.525390625
-114.44091796875
-109.86328125
-106.201171875
-110.77880859375
-112.60986328125
-114.44091796875
-110.77880859375
-110.77880859375
-110.77880859375
-108.94775390625
-108.0322265625
-110.77880859375
-108.0322265625
-112.60986328125
-113.525390625
-110.77880859375
-114.44091796875
-111.6943359375
-115.3564453125
-115.3564453125
-116.27197265625
-115.3564453125
-115.3564453125
-113.525390625
-119.0185546875
-116.27197265625
-117.1875
-116.27197265625
-118.10302734375
-119.93408203125
-118.10302734375
-119.0185546875
-117.1875
-119.0185546875
-119.93408203125
-116.27197265625
-116.27197265625
-119.93408203125
-117.1875
-119.0185546875
-119.0185546875
-115.3564453125
-115.3564453125
-115.3564453125
-117.1875
-118.10302734375
-118.10302734375
-119.0185546875
-115.3564453125
-117.1875
-119.93408203125
-119.93408203125
-116.27197265625
-121.76513671875
-121.76513671875
-122.6806640625
-120.849609375
-119.93408203125
-118.10302734375
-120.849609375
-121.76513671875
-120.849609375
-122.6806640625
-120.849609375
-124.51171875
-122.6806640625
-118.10302734375
-119.0185546875
-121.76513671875
-122.6806640625
-120.849609375
-118.10302734375
-119.0185546875
-122.6806640625
-115.3564453125
-115.3564453125
-116.27197265625
-118.10302734375
-118.10302734375
-114.44091796875
-111.6943359375
-106.201171875
-102.5390625
-102.5390625
-100.7080078125
-96.13037109375
-88.80615234375
-77.81982421875
-65.91796875
-57.67822265625
-44.86083984375
-33.87451171875
-19.22607421875
-10.986328125
2.74658203125
18.310546875
28.38134765625
39.36767578125
26.55029296875
15.56396484375
4.57763671875
0.91552734375
4.57763671875
12.8173828125
13.73291015625
11.90185546875
10.986328125
7.32421875
0
-3.662109375
-20.1416015625
-28.38134765625
-34.7900390625
-51.26953125
-61.34033203125
-74.15771484375
-83.31298828125
-82.3974609375
-87.890625
-89.7216796875
-93.3837890625
-96.13037109375
-97.96142578125
-97.96142578125
-102.5390625
-108.0322265625
-108.0322265625
-104.3701171875
-108.0322265625
-107.11669921875
-107.11669921875
-108.94775390625
-109.86328125
-115.3564453125
-114.44091796875
-112.60986328125
-112.60986328125
-118.10302734375
-115.3564453125
-113.525390625
-118.10302734375
-120.849609375
-126.3427734375
-121.76513671875
-109.86328125
-88.80615234375
-59.50927734375
-19.22607421875
7.32421875
47.607421875
91.552734375
166.6259765625
285.64453125
420.22705078125
569.4580078125
760.80322265625
949.40185546875
1112.36572265625
1267.08984375
1429.13818359375
1539.00146484375
1562.80517578125
1566.46728515625
1567.3828125
1445.61767578125
1194.76318359375
964.9658203125
754.39453125
522.76611328125
244.44580078125
38.4521484375
-16.4794921875
-38.4521484375
-67.7490234375
-83.31298828125
-79.65087890625
-56.7626953125
-33.87451171875
-7.32421875
0.91552734375
2.74658203125
-3.662109375
-12.8173828125
-22.88818359375
-32.958984375
-35.70556640625
-40.283203125
-42.1142578125
-48.52294921875
-54.931640625
-57.67822265625
-60.4248046875
-63.17138671875
-61.34033203125
-62.255859375
-64.0869140625
-65.91796875
-62.255859375
-64.0869140625
-68.66455078125
-66.83349609375
-66.83349609375
-68.66455078125
-67.7490234375
-65.91796875
-59.50927734375
-61.34033203125
-59.50927734375
-59.50927734375
-57.67822265625
-58.59375
-54.01611328125
-53.1005859375
-50.35400390625
-50.35400390625
-46.69189453125
-44.86083984375
-53.1005859375
-49.4384765625
-43.02978515625
-42.1142578125
-39.36767578125
-34.7900390625
-37.53662109375
-39.36767578125
-35.70556640625
-31.1279296875
-24.71923828125
-22.88818359375
-22.88818359375
-22.88818359375
-15.56396484375
-15.56396484375
-12.8173828125
-10.986328125
-6.40869140625
-7.32421875
-6.40869140625
-3.662109375
-6.40869140625
-0.91552734375
2.74658203125
5.4931640625
5.4931640625
7.32421875
10.07080078125
14.6484375
13.73291015625
15.56396484375
20.1416015625
21.97265625
21.05712890625
22.88818359375
31.1279296875
32.958984375
32.04345703125
35.70556640625
37.53662109375
44.86083984375
44.86083984375
42.1142578125
48.52294921875
53.1005859375
51.26953125
51.26953125
58.59375
61.34033203125
60.4248046875
66.83349609375
71.4111328125
68.66455078125
69.580078125
74.15771484375
77.81982421875
80.56640625
84.228515625
82.3974609375
85.14404296875
88.80615234375
87.890625
88.80615234375
93.3837890625
91.552734375
91.552734375
92.46826171875
93.3837890625
98.876953125
94.29931640625
96.13037109375
91.552734375
94.29931640625
96.13037109375
97.0458984375
94.29931640625
94.29931640625
90.63720703125
88.80615234375
80.56640625
73.2421875
68.66455078125
65.00244140625
62.255859375
54.01611328125
43.9453125
34.7900390625
26.55029296875
16.4794921875
7.32421875
-1.8310546875
-11.90185546875
-19.22607421875
-29.296875
-32.958984375
-42.1142578125
-47.607421875
-53.1005859375
-57.67822265625
-58.59375
-67.7490234375
-74.15771484375
-77.81982421875
-80.56640625
-83.31298828125
-89.7216796875
-92.46826171875
-96.13037109375
-97.96142578125
-93.3837890625
-96.13037109375
-99.79248046875
-97.96142578125
-99.79248046875
-99.79248046875
-103.45458984375
-105.28564453125
-101.62353515625
-101.62353515625
-104.3701171875
-101.62353515625
-102.5390625
-104.3701171875
-102.5390625
-102.5390625
-104.3701171875
-107.11669921875
-102.5390625
-102.5390625
-102.5390625
-101.62353515625
-99.79248046875
-100.7080078125
-99.79248046875
-103.45458984375
-100.7080078125
-97.0458984375
-95.21484375
-96.13037109375
-93.3837890625
-97.0458984375
-99.79248046875
-96.13037109375
-90.63720703125
-89.7216796875
-89.7216796875
-92.46826171875
-90.63720703125
-87.890625
-89.7216796875
-90.63720703125
-87.890625
-86.97509765625
-89.7216796875
-88.80615234375
-94.29931640625
-94.29931640625
-92.46826171875
-93.3837890625
-91.552734375
-94.29931640625
-97.0458984375
-96.13037109375
-90.63720703125
-91.552734375
-90.63720703125
-95.21484375
-95.21484375
-93.3837890625
-93.3837890625
-96.13037109375
-96.13037109375
-92.46826171875
-92.46826171875
-93.3837890625
-97.96142578125
-98.876953125
-97.0458984375
-98.876953125
-101.62353515625
-97.96142578125
-100.7080078125
-100.7080078125
-104.3701171875
-104.3701171875
-101.62353515625
-104.3701171875
-107.11669921875
-107.11669921875
-109.86328125
-108.0322265625
-106.201171875
-108.94775390625
-110.77880859375
-111.6943359375
-109.86328125
-113.525390625
-115.3564453125
-112.60986328125
-112.60986328125
-116.27197265625
-115.3564453125
-112.60986328125
-114.44091796875
-116.27197265625
-117.1875
-115.3564453125
-116.27197265625
-116.27197265625
-119.93408203125
-119.0185546875
-117.1875
-115.3564453125
-119.0185546875
-119.0185546875
-118.10302734375
-119.93408203125
-119.0185546875
-115.3564453125
-120.849609375
-122.6806640625
-119.0185546875
-120.849609375
-120.849609375
-117.1875
-119.0185546875
-118.10302734375
-117.1875
-118.10302734375
-118.10302734375
-122.6806640625
-120.849609375
-118.10302734375
-124.51171875
-120.849609375
-123.59619140625
-122.6806640625
-121.76513671875
-119.0185546875
-122.6806640625
-121.76513671875
-122.6806640625
-119.93408203125
-121.76513671875
-123.59619140625
-126.3427734375
-123.59619140625
-120.849609375
-119.93408203125
-124.51171875
-123.59619140625
-126.3427734375
-125.42724609375
-125.42724609375
-119.93408203125
-120.849609375
-128.173828125
-126.3427734375
-122.6806640625
-128.173828125
-127.25830078125
-119.0185546875
-123.59619140625
-129.08935546875
-125.42724609375
-122.6806640625
-121.76513671875
-120.849609375
-125.42724609375
-123.59619140625
-123.59619140625
-123.59619140625
-123.59619140625
-125.42724609375
-124.51171875
-124.51171875
-124.51171875
-124.51171875
-125.42724609375
-120.849609375
-128.173828125
-126.3427734375
-120.849609375
-119.93408203125
-121.76513671875
-122.6806640625
-124.51171875
-127.25830078125
-123.59619140625
-122.6806640625
-124.51171875
-121.76513671875
-119.0185546875
-120.849609375
-118.10302734375
-114.44091796875
-116.27197265625
-117.1875
-111.6943359375
-111.6943359375
-110.77880859375
-109.86328125
-109.86328125
-104.3701171875
-102.5390625
-97.96142578125
-98.876953125
-90.63720703125
-86.97509765625
-79.65087890625
-65.00244140625
-55.84716796875
-44.86083984375
-34.7900390625
-21.97265625
-10.07080078125
4.57763671875
22.88818359375
35.70556640625
44.86083984375
27.4658203125
13.73291015625
1.8310546875
0.91552734375
7.32421875
11.90185546875
13.73291015625
13.73291015625
16.4794921875
10.07080078125
-2.74658203125
-6.40869140625
-18.310546875
-31.1279296875
-36.62109375
-54.01611328125
-62.255859375
-74.15771484375
-81.48193359375
-83.31298828125
-84.228515625
-88.80615234375
-92.46826171875
-93.3837890625
-91.552734375
-96.13037109375
-100.7080078125
-100.7080078125
-105.28564453125
-106.201171875
-109.86328125
-108.94775390625
-109.86328125
-108.94775390625
-110.77880859375
-112.60986328125
-114.44091796875
-118.10302734375
-113.525390625
-113.525390625
-113.525390625
-117.1875
-118.10302734375
-118.10302734375
-128.173828125
-127.25830078125
-119.0185546875
-102.5390625
-75.0732421875
-33.87451171875
-5.4931640625
23.8037109375
65.00244140625
129.08935546875
238.95263671875
366.2109375
500.79345703125
673.828125
866.0888671875
1043.701171875
1188.3544921875
1356.8115234375
1490.478515625
1551.81884765625
1566.46728515625
1574.70703125
1514.2822265625
1289.97802734375
1054.6875
843.20068359375
635.3759765625
380.859375
137.3291015625
40.283203125
3.662109375
-26.55029296875
-66.83349609375
-85.14404296875
-70.49560546875
-47.607421875
-21.97265625
-1.8310546875
3.662109375
8.23974609375
0
-10.07080078125
-20.1416015625
-29.296875
-33.87451171875
-41.19873046875
-44.86083984375
-47.607421875
-49.4384765625
-52.18505859375
-54.01611328125
-55.84716796875
-53.1005859375
-57.67822265625
-57.67822265625
-54.01611328125
-57.67822265625
-58.59375
-56.7626953125
-54.01611328125
-50.35400390625
-55.84716796875
-54.931640625
-53.1005859375
-48.52294921875
-44.86083984375
-48.52294921875
-47.607421875
-48.52294921875
-43.02978515625
-43.9453125
-40.283203125
-39.36767578125
-37.53662109375
-35.70556640625
-37.53662109375
-32.958984375
-32.04345703125
-25.634765625
-23.8037109375
-20.1416015625
-22.88818359375
-21.05712890625
-18.310546875
-15.56396484375
-11.90185546875
-14.6484375
-12.8173828125
-10.07080078125
-4.57763671875
-4.57763671875
-7.32421875
-2.74658203125
-1.8310546875
-0.91552734375
5.4931640625
11.90185546875
10.07080078125
13.73291015625
12.8173828125
15.56396484375
20.1416015625
21.05712890625
27.4658203125
31.1279296875
32.958984375
34.7900390625
33.87451171875
37.53662109375
43.9453125
42.1142578125
42.1142578125
45.7763671875
51.26953125
56.7626953125
54.01611328125
55.84716796875
59.50927734375
65.91796875
70.49560546875
71.4111328125
70.49560546875
76.904296875
76.904296875
79.65087890625
83.31298828125
83.31298828125
86.97509765625
87.890625
87.890625
90.63720703125
91.552734375
96.13037109375
93.3837890625
101.62353515625
108.94775390625
102.5390625
108.94775390625
113.525390625
108.94775390625
108.0322265625
112.60986328125
109.86328125
110.77880859375
105.28564453125
108.94775390625
111.6943359375
106.201171875
108.94775390625
109.86328125
112.60986328125
105.28564453125
108.0322265625
102.5390625
100.7080078125
101.62353515625
92.46826171875
88.80615234375
89.7216796875
78.7353515625
75.0732421875
65.00244140625
59.50927734375
50.35400390625
40.283203125
33.87451171875
22.88818359375
19.22607421875
4.57763671875
0
-1.8310546875
-14.6484375
-21.05712890625
-24.71923828125
-33.87451171875
-37.53662109375
-43.9453125
-48.52294921875
-50.35400390625
-51.26953125
-55.84716796875
-60.4248046875
-62.255859375
-56.7626953125
-64.0869140625
-65.00244140625
-66.83349609375
-75.0732421875
-71.4111328125
-68.66455078125
-69.580078125
-66.83349609375
-73.2421875
-75.0732421875
-69.580078125
-69.580078125
-67.7490234375
-72.32666015625
-72.32666015625
-65.91796875
-64.0869140625
-65.00244140625
-64.0869140625
-67.7490234375
-64.0869140625
-65.91796875
-65.91796875
-64.0869140625
-61.34033203125
-56.7626953125
-56.7626953125
-61.34033203125
-60.4248046875
-60.4248046875
-60.4248046875
-56.7626953125
-62.255859375
-54.01611328125
-54.01611328125
-58.59375
-56.7626953125
-52.18505859375
-54.931640625
-56.7626953125
-55.84716796875
-55.84716796875
-56.7626953125
-54.01611328125
-55.84716796875
-54.01611328125
-55.84716796875
-52.18505859375
-50.35400390625
-55.84716796875
-58.59375
-54.01611328125
-54.931640625
-55.84716796875
-55.84716796875
-56.7626953125
-52.18505859375
-54.01611328125
-56.7626953125
-54.931640625
-49.4384765625
-59.50927734375
-59.50927734375
-56.7626953125
-54.931640625
-52.18505859375
-57.67822265625
-59.50927734375
-59.50927734375
-58.59375
-56.7626953125
-56.7626953125
-58.59375
-57.67822265625
-65.00244140625
-65.00244140625
-61.34033203125
-60.4248046875
-64.0869140625
-66.83349609375
-65.00244140625
-61.34033203125
-60.4248046875
-65.91796875
-65.00244140625
-61.34033203125
-65.00244140625
-66.83349609375
-69.580078125
-66.83349609375
-73.2421875
-73.2421875
-73.2421875
-72.32666015625
-73.2421875
-75.0732421875
-77.81982421875
-77.81982421875
-76.904296875
-76.904296875
-74.15771484375
-70.49560546875
-76.904296875
-74.15771484375
-75.0732421875
-76.904296875
-76.904296875
-75.0732421875
-76.904296875
-75.0732421875
-74.15771484375
-73.2421875
-76.904296875
-79.65087890625
-75.0732421875
-75.98876953125
-78.7353515625
-79.65087890625
-75.0732421875
-75.0732421875
-79.65087890625
-75.98876953125
-76.904296875
-79.65087890625
-75.98876953125
-72.32666015625
-71.4111328125
-75.98876953125
-80.56640625
-77.81982421875
-73.2421875
-73.2421875
-78.7353515625
-76.904296875
-75.0732421875
-75.0732421875
-80.56640625
-76.904296875
-81.48193359375
-81.48193359375
-75.98876953125
-75.0732421875
-80.56640625
-84.228515625
-78.7353515625
-77.81982421875
-84.228515625
-81.48193359375
-79.65087890625
-77.81982421875
-79.65087890625
-79.65087890625
-80.56640625
-80.56640625
-83.31298828125
-83.31298828125
-81.48193359375
-80.56640625
-81.48193359375
-84.228515625
-83.31298828125
-84.228515625
-82.3974609375
-81.48193359375
-82.3974609375
-86.97509765625
-86.0595703125
-75.98876953125
-82.3974609375
-82.3974609375
-77.81982421875
-76.904296875
-84.228515625
-83.31298828125
-81.48193359375
-83.31298828125
-82.3974609375
-84.228515625
-84.228515625
-86.0595703125
-81.48193359375
-80.56640625
-79.65087890625
-85.14404296875
-82.3974609375
-82.3974609375
-86.97509765625
-82.3974609375
-82.3974609375
-85.14404296875
-82.3974609375
-77.81982421875
-72.32666015625
-66.83349609375
-68.66455078125
-65.00244140625
-60.4248046875
-56.7626953125
-49.4384765625
-36.62109375
-22.88818359375
-10.986328125
-0.91552734375
12.8173828125
26.55029296875
39.36767578125
60.4248046875
69.580078125
65.91796875
50.35400390625
43.02978515625
34.7900390625
36.62109375
41.19873046875
46.69189453125
53.1005859375
46.69189453125
49.4384765625
40.283203125
31.1279296875
25.634765625
17.39501953125
8.23974609375
0
-11.90185546875
-23.8037109375
-35.70556640625
-47.607421875
-45.7763671875
-43.02978515625
-53.1005859375
-54.931640625
-58.59375
-60.4248046875
-64.0869140625
-66.83349609375
-66.83349609375
-70.49560546875
-74.15771484375
-73.2421875
-75.98876953125
-75.98876953125
-75.98876953125
-70.49560546875
-75.98876953125
-75.0732421875
-75.98876953125
-79.65087890625
-78.7353515625
-75.98876953125
-77.81982421875
-84.228515625
-88.80615234375
-88.80615234375
-75.0732421875
-56.7626953125
-29.296875
8.23974609375
38.4521484375
65.00244140625
105.28564453125
161.1328125
262.75634765625
383.60595703125
503.5400390625
667.41943359375
853.271484375
1036.376953125
1179.19921875
1347.65625
1498.71826171875
1565.5517578125
1591.1865234375
1608.58154296875
1582.94677734375
1416.32080078125
1161.80419921875
934.75341796875
744.32373046875
507.2021484375
264.58740234375
136.41357421875
82.3974609375
39.36767578125
-5.4931640625
-44.86083984375
-64.0869140625
-48.52294921875
-28.38134765625
-3.662109375
21.97265625
33.87451171875
25.634765625
18.310546875
6.40869140625
0.91552734375
-5.4931640625
-13.73291015625
-20.1416015625
-21.05712890625
-22.88818359375
-29.296875
-29.296875
-32.958984375
-34.7900390625
-36.62109375
-33.87451171875
-37.53662109375
-31.1279296875
-31.1279296875
-39.36767578125
-38.4521484375
-36.62109375
-36.62109375
-34.7900390625
-32.04345703125
-32.04345703125
-32.04345703125
-33.87451171875
-32.04345703125
-27.4658203125
-28.38134765625
-26.55029296875
-25.634765625
-26.55029296875
-21.05712890625
-21.05712890625
-18.310546875
-18.310546875
-18.310546875
-18.310546875
-10.986328125
-11.90185546875
-7.32421875
-5.4931640625
-2.74658203125
-1.8310546875
-2.74658203125
-3.662109375
2.74658203125
7.32421875
7.32421875
9.1552734375
10.986328125
10.986328125
10.986328125
13.73291015625
12.8173828125
17.39501953125
22.88818359375
23.8037109375
23.8037109375
24.71923828125
24.71923828125
28.38134765625
32.04345703125
32.04345703125
32.04345703125
32.958984375
35.70556640625
34.7900390625
39.36767578125
43.9453125
44.86083984375
45.7763671875
53.1005859375
52.18505859375
51.26953125
56.7626953125
60.4248046875
63.17138671875
62.255859375
65.00244140625
66.83349609375
69.580078125
71.4111328125
74.15771484375
74.15771484375
78.7353515625
80.56640625
82.3974609375
85.14404296875
87.890625
86.97509765625
89.7216796875
88.80615234375
86.97509765625
89.7216796875
90.63720703125
89.7216796875
90.63720703125
91.552734375
94.29931640625
90.63720703125
91.552734375
90.63720703125
86.0595703125
90.63720703125
91.552734375
94.29931640625
91.552734375
88.80615234375
90.63720703125
87.890625
82.3974609375
83.31298828125
80.56640625
75.0732421875
75.98876953125
67.7490234375
60.4248046875
53.1005859375
49.4384765625
37.53662109375
30.21240234375
25.634765625
18.310546875
11.90185546875
2.74658203125
-7.32421875
-7.32421875
-14.6484375
-25.634765625
-29.296875
-32.958984375
-38.4521484375
-43.9453125
-55.84716796875
-54.931640625
-56.7626953125
-61.34033203125
-60.4248046875
-68.66455078125
-72.32666015625
-71.4111328125
-74.15771484375
-77.81982421875
-78.7353515625
-82.3974609375
-85.14404296875
-86.0595703125
-82.3974609375
-86.0595703125
-84.228515625
-86.0595703125
-87.890625
-81.48193359375
-86.97509765625
-86.97509765625
-84.228515625
-86.0595703125
-84.228515625
-85.14404296875
-86.97509765625
-86.0595703125
-87.890625
-82.3974609375
-84.228515625
-83.31298828125
-85.14404296875
-87.890625
-83.31298828125
-80.56640625
-80.56640625
-81.48193359375
-79.65087890625
-77.81982421875
-76.904296875
-77.81982421875
-83.31298828125
-81.48193359375
-80.56640625
-81.48193359375
-81.48193359375
-76.904296875
-78.7353515625
-80.56640625
-77.81982421875
-77.81982421875
-78.7353515625
-72.32666015625
-75.98876953125
-76.904296875
-76.904296875
-78.7353515625
-77.81982421875
-80.56640625
-78.7353515625
-80.56640625
-82.3974609375
-81.48193359375
-80.56640625
-83.31298828125
-81.48193359375
-83.31298828125
-78.7353515625
-79.65087890625
-86.0595703125
-88.80615234375
-89.7216796875
-85.14404296875
-86.0595703125
-88.80615234375
-91.552734375
-86.97509765625
-84.228515625
-87.890625
-91.552734375
-91.552734375
-90.63720703125
-92.46826171875
-92.46826171875
-97.96142578125
-95.21484375
-97.0458984375
-99.79248046875
-92.46826171875
-99.79248046875
-101.62353515625
-101.62353515625
-99.79248046875
-102.5390625
-102.5390625
-103.45458984375
-98.876953125
-100.7080078125
-103.45458984375
-105.28564453125
-104.3701171875
-102.5390625
-108.0322265625
-107.11669921875
-108.0322265625
-109.86328125
-111.6943359375
-113.525390625
-111.6943359375
-116.27197265625
-113.525390625
-112.60986328125
-111.6943359375
-111.6943359375
-109.86328125
-110.77880859375
-112.60986328125
-113.525390625
-113.525390625
-115.3564453125
-119.0185546875
-115.3564453125
-113.525390625
-114.44091796875
-119.93408203125
-115.3564453125
-117.1875
-112.60986328125
-118.10302734375
-114.44091796875
-114.44091796875
-114.44091796875
-111.6943359375
-116.27197265625
-118.10302734375
-117.1875
-116.27197265625
-116.27197265625
-120.849609375
-119.93408203125
-121.76513671875
-121.76513671875
-119.93408203125
-119.93408203125
-119.0185546875
-120.849609375
-114.44091796875
-115.3564453125
-126.3427734375
-126.3427734375
-123.59619140625
-119.0185546875
-117.1875
-120.849609375
-123.59619140625
-125.42724609375
-122.6806640625
-122.6806640625
-125.42724609375
-126.3427734375
-126.3427734375
-126.3427734375
-129.08935546875
-124.51171875
-126.3427734375
-128.173828125
-130.0048828125
-127.25830078125
-124.51171875
-122.6806640625
-123.59619140625
-123.59619140625
-125.42724609375
-124.51171875
-126.3427734375
-129.08935546875
-130.92041015625
-128.173828125
-130.0048828125
-131.8359375
-131.8359375
-127.25830078125
-131.8359375
-134.58251953125
-130.0048828125
-130.92041015625
-132.75146484375
-136.41357421875
-133.6669921875
-140.07568359375
-140.9912109375
-130.0048828125
-123.59619140625
-128.173828125
-127.25830078125
-129.08935546875
-130.0048828125
-133.6669921875
-129.08935546875
-129.08935546875
-127.25830078125
-120.849609375
-122.6806640625
-123.59619140625
-128.173828125
-128.173828125
-128.173828125
-123.59619140625
-121.76513671875
-117.1875
-113.525390625
-113.525390625
-107.11669921875
-103.45458984375
-96.13037109375
-85.14404296875
-75.98876953125
-64.0869140625
-54.931640625
-47.607421875
-34.7900390625
-21.05712890625
0.91552734375
16.4794921875
24.71923828125
23.8037109375
8.23974609375
2.74658203125
-10.986328125
-7.32421875
-2.74658203125
1.8310546875
3.662109375
4.57763671875
0
-8.23974609375
-13.73291015625
-19.22607421875
-34.7900390625
-44.86083984375
-59.50927734375
-75.0732421875
-85.14404296875
-94.29931640625
-97.0458984375
-94.29931640625
-98.876953125
-103.45458984375
-108.94775390625
-110.77880859375
-115.3564453125
-116.27197265625
-116.27197265625
-119.93408203125
-125.42724609375
-127.25830078125
-121.76513671875
-121.76513671875
-123.59619140625
-123.59619140625
-119.93408203125
-121.76513671875
-119.0185546875
-122.6806640625
-130.0048828125
-133.6669921875
-130.92041015625
-128.173828125
-136.41357421875
-148.3154296875
-151.06201171875
-136.41357421875
-116.27197265625
-97.0458984375
-59.50927734375
-29.296875
6.40869140625
45.7763671875
102.5390625
206.9091796875
332.33642578125
469.66552734375
649.10888671875
843.20068359375
1023.5595703125
1169.12841796875
1331.1767578125
1468.505859375
1533.50830078125
1544.49462890625
1554.5654296875
1502.38037109375
1300.048828125
1054.6875
837.70751953125
618.896484375
362.548828125
93.3837890625
-17.39501953125
-48.52294921875
-67.7490234375
-96.13037109375
-101.62353515625
-82.3974609375
-59.50927734375
-32.958984375
-17.39501953125
-13.73291015625
-14.6484375
-25.634765625
-37.53662109375
-42.1142578125
-54.01611328125
-65.00244140625
-74.15771484375
-72.32666015625
-71.4111328125
-74.15771484375
-76.904296875
-77.81982421875
-84.228515625
-87.890625
-84.228515625
-83.31298828125
-84.228515625
-87.890625
-88.80615234375
-81.48193359375
-80.56640625
-79.65087890625
-81.48193359375
-82.3974609375
-77.81982421875
-73.2421875
-72.32666015625
-74.15771484375
-72.32666015625
-73.2421875
-69.580078125
-71.4111328125
-69.580078125
-69.580078125
-65.00244140625
-64.0869140625
-64.0869140625
-59.50927734375
-53.1005859375
-56.7626953125
-65.00244140625
-58.59375
-56.7626953125
-53.1005859375
-54.931640625
-54.01611328125
-55.84716796875
-50.35400390625
-43.02978515625
-41.19873046875
-39.36767578125
-40.283203125
-39.36767578125
-32.958984375
-29.296875
-28.38134765625
-26.55029296875
-21.05712890625
-21.05712890625
-19.22607421875
-19.22607421875
-19.22607421875
-20.1416015625
-18.310546875
-7.32421875
-0.91552734375
5.4931640625
1.8310546875
0.91552734375
-0.91552734375
-4.57763671875
1.8310546875
10.07080078125
15.56396484375
20.1416015625
20.1416015625
14.6484375
17.39501953125
23.8037109375
26.55029296875
22.88818359375
28.38134765625
28.38134765625
28.38134765625
39.36767578125
46.69189453125
42.1142578125
43.9453125
49.4384765625
46.69189453125
52.18505859375
57.67822265625
58.59375
61.34033203125
65.91796875
65.91796875
61.34033203125
67.7490234375
70.49560546875
70.49560546875
67.7490234375
68.66455078125
65.91796875
61.34033203125
64.0869140625
69.580078125
69.580078125
70.49560546875
72.32666015625
77.81982421875
76.904296875
77.81982421875
73.2421875
70.49560546875
73.2421875
70.49560546875
57.67822265625
50.35400390625
50.35400390625
43.02978515625
42.1142578125
31.1279296875
20.1416015625
17.39501953125
9.1552734375
-1.8310546875
-7.32421875
-12.8173828125
-16.4794921875
-25.634765625
-30.21240234375
-43.9453125
-47.607421875
-59.50927734375
-61.34033203125
-66.83349609375
-56.7626953125
-64.0869140625
-79.65087890625
-91.552734375
-92.46826171875
-93.3837890625
-88.80615234375
-90.63720703125
-94.29931640625
-98.876953125
-97.96142578125
-105.28564453125
-114.44091796875
-104.3701171875
-110.77880859375
-110.77880859375
-103.45458984375
-99.79248046875
-103.45458984375
-103.45458984375
-105.28564453125
-108.94775390625
-108.0322265625
-105.28564453125
-103.45458984375
-101.62353515625
-106.201171875
-103.45458984375
-109.86328125
-108.94775390625
-106.201171875
-105.28564453125
-103.45458984375
-97.0458984375
-97.0458984375
-96.13037109375
-94.29931640625
-97.0458984375
-98.876953125
-91.552734375
-88.80615234375
-91.552734375
-89.7216796875
-88.80615234375
-85.14404296875
-86.97509765625
-94.29931640625
-88.80615234375
-86.0595703125
-83.31298828125
-84.228515625
-81.48193359375
-83.31298828125
-85.14404296875
-87.890625
-93.3837890625
-87.890625
-87.890625
-89.7216796875
-92.46826171875
-96.13037109375
-97.96142578125
-88.80615234375
-88.80615234375
-86.0595703125
-77.81982421875
-86.97509765625
-93.3837890625
-86.0595703125
-85.14404296875
-89.7216796875
-90.63720703125
-89.7216796875
-86.97509765625
-91.552734375
-97.96142578125
-99.79248046875
-99.79248046875
-100.7080078125
-98.876953125
-97.0458984375
-100.7080078125
-93.3837890625
-91.552734375
-96.13037109375
-97.96142578125
-96.13037109375
-99.79248046875
-97.0458984375
-101.62353515625
-104.3701171875
-100.7080078125
-97.96142578125
-95.21484375
-98.876953125
-105.28564453125
-108.0322265625
-107.11669921875
-103.45458984375
-101.62353515625
-103.45458984375
-107.11669921875
-107.11669921875
-107.11669921875
-110.77880859375
-108.0322265625
-107.11669921875
-111.6943359375
-113.525390625
-102.5390625
-97.96142578125
-102.5390625
-109.86328125
-106.201171875
-113.525390625
-108.94775390625
-111.6943359375
-116.27197265625
-119.0185546875
-115.3564453125
-112.60986328125
-104.3701171875
-104.3701171875
-109.86328125
-116.27197265625
-116.27197265625
-111.6943359375
-106.201171875
-106.201171875
-111.6943359375
-109.86328125
-116.27197265625
-114.44091796875
-110.77880859375
-113.525390625
-114.44091796875
-111.6943359375
-116.27197265625
-109.86328125
-104.3701171875
-114.44091796875
-114.44091796875
-116.27197265625
-116.27197265625
-113.525390625
-118.10302734375
-117.1875
-111.6943359375
-113.525390625
-116.27197265625
-117.1875
-110.77880859375
-110.77880859375
-111.6943359375
-112.60986328125
-116.27197265625
-114.44091796875
-117.1875
-115.3564453125
-118.10302734375
-121.76513671875
-120.849609375
-122.6806640625
-115.3564453125
-113.525390625
-113.525390625
-117.1875
-118.10302734375
-113.525390625
-115.3564453125
-121.76513671875
-118.10302734375
-119.0185546875
-113.525390625
-115.3564453125
-113.525390625
-115.3564453125
-115.3564453125
-115.3564453125
-117.1875
-114.44091796875
-113.525390625
-112.60986328125
-118.10302734375
-119.93408203125
-114.44091796875
-114.44091796875
-113.525390625
-110.77880859375
-113.525390625
-118.10302734375
-119.93408203125
-115.3564453125
-118.10302734375
-115.3564453125
-121.76513671875
-123.59619140625
-114.44091796875
-114.44091796875
-119.0185546875
-119.0185546875
-121.76513671875
-117.1875
-109.86328125
-114.44091796875
-113.525390625
-116.27197265625
-112.60986328125
-108.0322265625
-105.28564453125
-102.5390625
-99.79248046875
-96.13037109375
-93.3837890625
-92.46826171875
-86.97509765625
-77.81982421875
-69.580078125
-53.1005859375
-43.9453125
-38.4521484375
-20.1416015625
-4.57763671875
10.986328125
24.71923828125
35.70556640625
35.70556640625
25.634765625
10.07080078125
4.57763671875
2.74658203125
9.1552734375
21.97265625
26.55029296875
23.8037109375
19.22607421875
10.986328125
7.32421875
-4.57763671875
-19.22607421875
-22.88818359375
-32.04345703125
-45.7763671875
-54.01611328125
-62.255859375
-71.4111328125
-74.15771484375
-71.4111328125
-72.32666015625
-76.904296875
-85.14404296875
-88.80615234375
-91.552734375
-87.890625
-92.46826171875
-100.7080078125
-101.62353515625
-97.0458984375
-97.0458984375
-97.0458984375
-99.79248046875
-100.7080078125
-101.62353515625
-104.3701171875
-102.5390625
-104.3701171875
-107.11669921875
-108.0322265625
-105.28564453125
-110.77880859375
-121.76513671875
-121.76513671875
-108.94775390625
-90.63720703125
-59.50927734375
-16.4794921875
10.986328125
44.86083984375
89.7216796875
167.54150390625
281.982421875
405.57861328125
545.654296875
728.759765625
922.8515625
1084.89990234375
1226.806640625
1391.6015625
1495.05615234375
1529.84619140625
1547.2412109375
1551.81884765625
1443.78662109375
1198.42529296875
975.9521484375
782.77587890625
566.71142578125
303.03955078125
108.0322265625
49.4384765625
9.1552734375
-29.296875
-65.91796875
-77.81982421875
-66.83349609375
-45.7763671875
-23.8037109375
-5.4931640625
0
-7.32421875
-9.1552734375
-24.71923828125
-28.38134765625
-36.62109375
-41.19873046875
-44.86083984375
-49.4384765625
-49.4384765625
-54.931640625
-61.34033203125
-62.255859375
-60.4248046875
-58.59375
-57.67822265625
-54.01611328125
-60.4248046875
-63.17138671875
-62.255859375
-57.67822265625
-65.00244140625
-62.255859375
-54.01611328125
-60.4248046875
-56.7626953125
-54.931640625
-53.1005859375
-51.26953125
-47.607421875
-50.35400390625
-48.52294921875
-50.35400390625
-45.7763671875
-43.9453125
-43.9453125
-40.283203125
-38.4521484375
-41.19873046875
-47.607421875
-36.62109375
-32.04345703125
-35.70556640625
-34.7900390625
-30.21240234375
-31.1279296875
-25.634765625
-26.55029296875
-28.38134765625
-26.55029296875
-17.39501953125
-17.39501953125
-14.6484375
-13.73291015625
-7.32421875
-6.40869140625
-2.74658203125
-1.8310546875
-1.8310546875
-4.57763671875
5.4931640625
-3.662109375
2.74658203125
3.662109375
10.07080078125
11.90185546875
10.07080078125
10.07080078125
10.986328125
18.310546875
20.1416015625
25.634765625
32.958984375
29.296875
30.21240234375
32.04345703125
37.53662109375
32.958984375
35.70556640625
40.283203125
49.4384765625
48.52294921875
59.50927734375
60.4248046875
57.67822265625
60.4248046875
63.17138671875
64.0869140625
66.83349609375
75.98876953125
79.65087890625
79.65087890625
83.31298828125
85.14404296875
86.0595703125
87.890625
92.46826171875
86.97509765625
88.80615234375
92.46826171875
95.21484375
88.80615234375
92.46826171875
92.46826171875
90.63720703125
92.46826171875
90.63720703125
94.29931640625
97.96142578125
92.46826171875
94.29931640625
92.46826171875
94.29931640625
90.63720703125
86.97509765625
87.890625
86.0595703125
81.48193359375
79.65087890625
75.0732421875
66.83349609375
60.4248046875
58.59375
49.4384765625
36.62109375
38.4521484375
32.04345703125
18.310546875
10.07080078125
8.23974609375
2.74658203125
0.91552734375
-4.57763671875
-13.73291015625
-21.97265625
-26.55029296875
-32.04345703125
-37.53662109375
-45.7763671875
-52.18505859375
-54.01611328125
-54.931640625
-59.50927734375
-68.66455078125
-67.7490234375
-64.0869140625
-65.00244140625
-77.81982421875
-83.31298828125
-85.14404296875
-79.65087890625
-73.2421875
-76.904296875
-86.0595703125
-79.65087890625
-79.65087890625
-83.31298828125
-85.14404296875
-85.14404296875
-84.228515625
-90.63720703125
-88.80615234375
-83.31298828125
-83.31298828125
-83.31298828125
-90.63720703125
-86.97509765625
-91.552734375
-86.0595703125
-85.14404296875
-89.7216796875
-90.63720703125
-86.97509765625
-86.0595703125
-82.3974609375
-82.3974609375
-85.14404296875
-86.0595703125
-84.228515625
-86.0595703125
-85.14404296875
-82.3974609375
-75.98876953125
-73.2421875
-67.7490234375
-71.4111328125
-70.49560546875
-74.15771484375
-79.65087890625
-77.81982421875
-77.81982421875
-68.66455078125
-71.4111328125
-73.2421875
-71.4111328125
-70.49560546875
-64.0869140625
-70.49560546875
-70.49560546875
-67.7490234375
-63.17138671875
-66.83349609375
-70.49560546875
-68.66455078125
-66.83349609375
-61.34033203125
-67.7490234375
-70.49560546875
-72.32666015625
-75.0732421875
-73.2421875
-70.49560546875
-68.66455078125
-71.4111328125
-73.2421875
-71.4111328125
-66.83349609375
-71.4111328125
-77.81982421875
-72.32666015625
-73.2421875
-72.32666015625
-72.32666015625
-69.580078125
-75.0732421875
-73.2421875
-74.15771484375
-76.904296875
-75.0732421875
-81.48193359375
-78.7353515625
-74.15771484375
-77.81982421875
-76.904296875
-73.2421875
-75.98876953125
-75.0732421875
-78.7353515625
-75.98876953125
-82.3974609375
-80.56640625
-80.56640625
-81.48193359375
-87.890625
-90.63720703125
-88.80615234375
-85.14404296875
-86.97509765625
-86.0595703125
-81.48193359375
-81.48193359375
-86.0595703125
-78.7353515625
-84.228515625
-86.0595703125
-85.14404296875
-82.3974609375
-83.31298828125
-86.97509765625
-86.97509765625
-84.228515625
-78.7353515625
-85.14404296875
-82.3974609375
-84.228515625
-85.14404296875
-86.0595703125
-83.31298828125
-82.3974609375
-84.228515625
-83.31298828125
-80.56640625
-77.81982421875
-76.904296875
-78.7353515625
-84.228515625
-81.48193359375
-83.31298828125
-84.228515625
-82.3974609375
-82.3974609375
-80.56640625
-83.31298828125
-81.48193359375
-80.56640625
-79.65087890625
-83.31298828125
-84.228515625
-87.890625
-90.63720703125
-90.63720703125
-89.7216796875
-89.7216796875
-87.890625
-86.97509765625
-88.80615234375
-90.63720703125
-88.80615234375
-90.63720703125
-89.7216796875
-90.63720703125
-89.7216796875
-88.80615234375
-91.552734375
-90.63720703125
-90.63720703125
-93.3837890625
-96.13037109375
-90.63720703125
-88.80615234375
-89.7216796875
-92.46826171875
-94.29931640625
-93.3837890625
-91.552734375
-92.46826171875
-94.29931640625
-92.46826171875
-92.46826171875
-93.3837890625
-89.7216796875
-92.46826171875
-97.0458984375
-98.876953125
-100.7080078125
-97.0458984375
-93.3837890625
-96.13037109375
-97.96142578125
-95.21484375
-96.13037109375
-99.79248046875
-97.0458984375
-99.79248046875
-94.29931640625
-96.13037109375
-97.96142578125
-96.13037109375
-97.0458984375
-94.29931640625
-98.876953125
-99.79248046875
-96.13037109375
-97.96142578125
-96.13037109375
-96.13037109375
-96.13037109375
-94.29931640625
-90.63720703125
-90.63720703125
-88.80615234375
-83.31298828125
-83.31298828125
-79.65087890625
-76.904296875
-72.32666015625
-65.00244140625
-51.26953125
-42.1142578125
-27.4658203125
-13.73291015625
1.8310546875
12.8173828125
22.88818359375
40.283203125
54.931640625
45.7763671875
29.296875
21.97265625
19.22607421875
17.39501953125
21.05712890625
23.8037109375
27.4658203125
26.55029296875
28.38134765625
21.05712890625
15.56396484375
10.07080078125
-0.91552734375
-9.1552734375
-21.97265625
-36.62109375
-46.69189453125
-58.59375
-61.34033203125
-61.34033203125
-69.580078125
-71.4111328125
-72.32666015625
-77.81982421875
-82.3974609375
-86.97509765625
-88.80615234375
-84.228515625
-90.63720703125
-91.552734375
-94.29931640625
-96.13037109375
-91.552734375
-94.29931640625
-97.0458984375
-95.21484375
-94.29931640625
-99.79248046875
-99.79248046875
-96.13037109375
-99.79248046875
-102.5390625
-108.94775390625
-97.96142578125
-84.228515625
-62.255859375
-28.38134765625
11.90185546875
43.9453125
76.904296875
127.25830078125
207.82470703125
322.265625
448.6083984375
588.68408203125
764.46533203125
946.6552734375
1098.6328125
1250.6103515625
1416.32080078125
1510.6201171875
1545.41015625
1568.29833984375
1571.044921875
1469.42138671875
1231.38427734375
990.6005859375
784.60693359375
583.19091796875
330.50537109375
161.1328125
86.97509765625
39.36767578125
-7.32421875
-54.01611328125
-87.890625
-91.552734375
-61.34033203125
-35.70556640625
-12.8173828125
-3.662109375
0
-3.662109375
-11.90185546875
-21.05712890625
-30.21240234375
-36.62109375
-39.36767578125
-41.19873046875
-43.9453125
-51.26953125
-52.18505859375
-55.84716796875
-55.84716796875
-53.1005859375
-53.1005859375
-56.7626953125
-61.34033203125
-59.50927734375
-60.4248046875
-55.84716796875
-54.931640625
-54.931640625
-54.931640625
-51.26953125
-53.1005859375
-54.931640625
-51.26953125
-50.35400390625
-50.35400390625
-50.35400390625
-46.69189453125
-47.607421875
-44.86083984375
-43.9453125
-42.1142578125
-40.283203125
-42.1142578125
-41.19873046875
-37.53662109375
-37.53662109375
-32.958984375
-34.7900390625
-30.21240234375
-28.38134765625
-29.296875
-25.634765625
-24.71923828125
-21.05712890625
-21.05712890625
-19.22607421875
-21.05712890625
-13.73291015625
-11.90185546875
-10.07080078125
-14.6484375
-10.07080078125
-5.4931640625
-2.74658203125
-2.74658203125
-4.57763671875
-1.8310546875
2.74658203125
5.4931640625
7.32421875
10.07080078125
11.90185546875
12.8173828125
16.4794921875
17.39501953125
16.4794921875
22.88818359375
28.38134765625
29.296875
31.1279296875
32.04345703125
33.87451171875
35.70556640625
41.19873046875
39.36767578125
41.19873046875
43.02978515625
46.69189453125
50.35400390625
49.4384765625
54.931640625
52.18505859375
52.18505859375
53.1005859375
58.59375
59.50927734375
60.4248046875
62.255859375
63.17138671875
64.0869140625
62.255859375
64.0869140625
64.0869140625
64.0869140625
63.17138671875
63.17138671875
62.255859375
63.17138671875
63.17138671875
62.255859375
64.0869140625
61.34033203125
61.34033203125
60.4248046875
60.4248046875
57.67822265625
56.7626953125
56.7626953125
58.59375
57.67822265625
51.26953125
49.4384765625
47.607421875
41.19873046875
37.53662109375
32.04345703125
26.55029296875
20.1416015625
10.986328125
4.57763671875
-1.8310546875
-11.90185546875
-18.310546875
-25.634765625
-32.04345703125
-37.53662109375
-46.69189453125
-49.4384765625
-58.59375
-61.34033203125
-67.7490234375
-74.15771484375
-78.7353515625
-82.3974609375
-81.48193359375
-88.80615234375
-91.552734375
-90.63720703125
-93.3837890625
-96.13037109375
-100.7080078125
-102.5390625
-105.28564453125
-106.201171875
-106.201171875
-109.86328125
-109.86328125
-109.86328125
-106.201171875
-105.28564453125
-108.0322265625
-108.94775390625
-107.11669921875
-106.201171875
-106.201171875
-108.0322265625
-104.3701171875
-104.3701171875
-104.3701171875
-105.28564453125
-103.45458984375
-97.0458984375
-98.876953125
-97.96142578125
-96.13037109375
-97.0458984375
-97.0458984375
-96.13037109375
-97.0458984375
-92.46826171875
-96.13037109375
-97.0458984375
-95.21484375
-96.13037109375
-97.0458984375
-97.96142578125
-96.13037109375
-97.0458984375
-98.876953125
-97.0458984375
-97.96142578125
-101.62353515625
-99.79248046875
-97.0458984375
-101.62353515625
-96.13037109375
-99.79248046875
-99.79248046875
-103.45458984375
-100.7080078125
-102.5390625
-102.5390625
-102.5390625
-100.7080078125
-98.876953125
-98.876953125
-105.28564453125
-105.28564453125
-105.28564453125
-105.28564453125
-104.3701171875
-108.0322265625
-109.86328125
-109.86328125
-111.6943359375
-105.28564453125
-110.77880859375
-108.94775390625
-110.77880859375
-113.525390625
-110.77880859375
-114.44091796875
-115.3564453125
-115.3564453125
-111.6943359375
-116.27197265625
-118.10302734375
-120.849609375
-122.6806640625
-126.3427734375
-124.51171875
-122.6806640625
-122.6806640625
-122.6806640625
-126.3427734375
-126.3427734375
-126.3427734375
-126.3427734375
-126.3427734375
-127.25830078125
-129.08935546875
-130.0048828125
-129.08935546875
-130.0048828125
-129.08935546875
-129.08935546875
-130.92041015625
-130.0048828125
-129.08935546875
-132.75146484375
-133.6669921875
-129.08935546875
-131.8359375
-138.24462890625
-136.41357421875
-134.58251953125
-135.498046875
-134.58251953125
-131.8359375
-130.0048828125
-132.75146484375
-132.75146484375
-127.25830078125
-127.25830078125
-131.8359375
-128.173828125
-130.0048828125
-128.173828125
-129.08935546875
-130.92041015625
-129.08935546875
-130.92041015625
-131.8359375
-126.3427734375
-126.3427734375
-130.0048828125
-133.6669921875
-134.58251953125
-131.8359375
-131.8359375
-130.92041015625
-133.6669921875
-138.24462890625
-140.07568359375
-136.41357421875
-136.41357421875
-139.16015625
-136.41357421875
-134.58251953125
-136.41357421875
-138.24462890625
-135.498046875
-138.24462890625
-140.07568359375
-140.07568359375
-138.24462890625
-139.16015625
-137.3291015625
-134.58251953125
-137.3291015625
-134.58251953125
-137.3291015625
-139.16015625
-140.07568359375
-135.498046875
-139.16015625
-139.16015625
-136.41357421875
-138.24462890625
-138.24462890625
-141.90673828125
-140.9912109375
-139.16015625
-138.24462890625
-140.07568359375
-135.498046875
-137.3291015625
-137.3291015625
-139.16015625
-138.24462890625
-139.16015625
-138.24462890625
-134.58251953125
-137.3291015625
-137.3291015625
-139.16015625
-140.07568359375
-139.16015625
-140.07568359375
-139.16015625
-140.9912109375
-139.16015625
-138.24462890625
-133.6669921875
-135.498046875
-138.24462890625
-139.16015625
-140.9912109375
-141.90673828125
-141.90673828125
-140.07568359375
-140.07568359375
-137.3291015625
-140.07568359375
-140.9912109375
-139.16015625
-138.24462890625
-136.41357421875
-136.41357421875
-134.58251953125
-134.58251953125
-133.6669921875
-134.58251953125
-132.75146484375
-131.8359375
-128.173828125
-124.51171875
-121.76513671875
-118.10302734375
-118.10302734375
-114.44091796875
-115.3564453125
-109.86328125
-103.45458984375
-89.7216796875
-81.48193359375
-70.49560546875
-60.4248046875
-46.69189453125
-32.958984375
-23.8037109375
-6.40869140625
9.1552734375
19.22607421875
10.07080078125
-3.662109375
-12.8173828125
-20.1416015625
-16.4794921875
-10.07080078125
-6.40869140625
-2.74658203125
-4.57763671875
-3.662109375
-11.90185546875
-23.8037109375
-32.04345703125
-41.19873046875
-49.4384765625
-61.34033203125
-77.81982421875
-91.552734375
-96.13037109375
-97.96142578125
-99.79248046875
-104.3701171875
-108.0322265625
-110.77880859375
-113.525390625
-119.0185546875
-119.0185546875
-119.93408203125
-123.59619140625
-125.42724609375
-125.42724609375
-126.3427734375
-130.0048828125
-130.0048828125
-133.6669921875
-129.08935546875
-132.75146484375
-136.41357421875
-134.58251953125
-133.6669921875
-136.41357421875
-134.58251953125
-144.6533203125
-150.146484375
-145.56884765625
-130.0048828125
-114.44091796875
-85.14404296875
-43.9453125
-18.310546875
17.39501953125
64.0869140625
145.56884765625
265.5029296875
390.0146484375
541.9921875
726.01318359375
920.10498046875
1081.23779296875
1236.87744140625
1406.25
1503.2958984375
1522.52197265625
1537.17041015625
1536.2548828125
1410.82763671875
1160.888671875
932.92236328125
724.18212890625
489.80712890625
218.81103515625
30.21240234375
-23.8037109375
-43.9453125
-76.904296875
-98.876953125
-99.79248046875
-76.904296875
-54.931640625
-27.4658203125
-14.6484375
-13.73291015625
-14.6484375
-24.71923828125
-32.958984375
-43.9453125
-48.52294921875
-51.26953125
-56.7626953125
-60.4248046875
-65.00244140625
-66.83349609375
-68.66455078125
-69.580078125
-67.7490234375
-73.2421875
-77.81982421875
-79.65087890625
-76.904296875
-77.81982421875
-81.48193359375
-80.56640625
-75.98876953125
-74.15771484375
-75.98876953125
-73.2421875
-70.49560546875
-72.32666015625
-73.2421875
-74.15771484375
-73.2421875
-71.4111328125
-68.66455078125
-65.00244140625
-64.0869140625
-65.91796875
-66.83349609375
-61.34033203125
-59.50927734375
-57.67822265625
-59.50927734375
-54.931640625
-54.931640625
-53.1005859375
-48.52294921875
-44.86083984375
-46.69189453125
-45.7763671875
-40.283203125
-37.53662109375
-38.4521484375
-36.62109375
-34.7900390625
-31.1279296875
-25.634765625
-27.4658203125
-28.38134765625
-26.55029296875
-21.05712890625
-21.05712890625
-21.05712890625
-16.4794921875
-13.73291015625
-12.8173828125
-6.40869140625
-5.4931640625
-5.4931640625
-5.4931640625
-0.91552734375
-1.8310546875
1.8310546875
5.4931640625
2.74658203125
9.1552734375
11.90185546875
11.90185546875
14.6484375
16.4794921875
17.39501953125
20.1416015625
25.634765625
28.38134765625
30.21240234375
33.87451171875
37.53662109375
40.283203125
36.62109375
42.1142578125
47.607421875
50.35400390625
48.52294921875
51.26953125
52.18505859375
57.67822265625
58.59375
60.4248046875
62.255859375
60.4248046875
62.255859375
65.00244140625
66.83349609375
67.7490234375
63.17138671875
65.91796875
66.83349609375
70.49560546875
65.91796875
67.7490234375
66.83349609375
68.66455078125
67.7490234375
72.32666015625
74.15771484375
74.15771484375
74.15771484375
66.83349609375
66.83349609375
65.91796875
65.91796875
63.17138671875
58.59375
48.52294921875
43.02978515625
36.62109375
27.4658203125
17.39501953125
10.07080078125
0.91552734375
-7.32421875
-15.56396484375
-26.55029296875
-31.1279296875
-42.1142578125
-47.607421875
-53.1005859375
-57.67822265625
-65.91796875
-71.4111328125
-76.904296875
-81.48193359375
-85.14404296875
-91.552734375
-90.63720703125
-95.21484375
-96.13037109375
-98.876953125
-101.62353515625
-103.45458984375
-105.28564453125
-105.28564453125
-104.3701171875
-108.94775390625
-111.6943359375
-110.77880859375
-110.77880859375
-110.77880859375
-114.44091796875
-114.44091796875
-113.525390625
-110.77880859375
-110.77880859375
-114.44091796875
-112.60986328125
-108.0322265625
-106.201171875
-108.0322265625
-106.201171875
-109.86328125
-106.201171875
-104.3701171875
-104.3701171875
-106.201171875
-104.3701171875
-101.62353515625
-103.45458984375
-101.62353515625
-102.5390625
-101.62353515625
-97.96142578125
-98.876953125
-96.13037109375
-97.0458984375
-97.0458984375
-94.29931640625
-94.29931640625
-95.21484375
-97.0458984375
-100.7080078125
-99.79248046875
-97.0458984375
-97.96142578125
-100.7080078125
-98.876953125
-97.96142578125
-97.96142578125
-97.96142578125
-103.45458984375
-102.5390625
-100.7080078125
-96.13037109375
-99.79248046875
-100.7080078125
-104.3701171875
-105.28564453125
-103.45458984375
-101.62353515625
-97.96142578125
-97.96142578125
-96.13037109375
-95.21484375
-97.0458984375
-96.13037109375
-100.7080078125
-103.45458984375
-102.5390625
-101.62353515625
-104.3701171875
-103.45458984375
-107.11669921875
-108.94775390625
-107.11669921875
-106.201171875
-108.94775390625
-111.6943359375
-109.86328125
-110.77880859375
-113.525390625
-113.525390625
-115.3564453125
-115.3564453125
-112.60986328125
-114.44091796875
-116.27197265625
-114.44091796875
-117.1875
-115.3564453125
-119.93408203125
-119.93408203125
-120.849609375
-120.849609375
-119.93408203125
-119.93408203125
-120.849609375
-119.93408203125
-119.93408203125
-119.93408203125
-118.10302734375
-120.849609375
-121.76513671875
-119.93408203125
-122.6806640625
-124.51171875
-125.42724609375
-124.51171875
-121.76513671875
-122.6806640625
-125.42724609375
-125.42724609375
-123.59619140625
-126.3427734375
-125.42724609375
-123.59619140625
-123.59619140625
-126.3427734375
-126.3427734375
-126.3427734375
-128.173828125
-129.08935546875
-128.173828125
-122.6806640625
-124.51171875
-125.42724609375
-126.3427734375
-130.92041015625
-130.92041015625
-130.0048828125
-130.0048828125
-130.92041015625
-130.92041015625
-128.173828125
-123.59619140625
-128.173828125
-129.08935546875
-126.3427734375
-122.6806640625
-124.51171875
-125.42724609375
-123.59619140625
-128.173828125
-126.3427734375
-127.25830078125
-130.0048828125
-129.08935546875
-130.0048828125
-130.0048828125
-129.08935546875
-130.92041015625
-131.8359375
-130.92041015625
-127.25830078125
-125.42724609375
-126.3427734375
-129.08935546875
-128.173828125
-128.173828125
-127.25830078125
-125.42724609375
-126.3427734375
-123.59619140625
-124.51171875
-124.51171875
-123.59619140625
-121.76513671875
-127.25830078125
-128.173828125
-127.25830078125
-126.3427734375
-126.3427734375
-125.42724609375
-127.25830078125
-128.173828125
-124.51171875
-130.92041015625
-130.0048828125
-130.0048828125
-130.0048828125
-132.75146484375
-129.08935546875
-129.08935546875
-130.0048828125
-130.92041015625
-130.0048828125
-127.25830078125
-127.25830078125
-123.59619140625
-127.25830078125
-127.25830078125
-132.75146484375
-129.08935546875
-128.173828125
-128.173828125
-129.08935546875
-125.42724609375
-124.51171875
-130.92041015625
-128.173828125
-125.42724609375
-130.92041015625
-130.0048828125
-129.08935546875
-125.42724609375
-123.59619140625
-119.0185546875
-116.27197265625
-110.77880859375
-107.11669921875
-107.11669921875
-101.62353515625
-93.3837890625
-76.904296875
-67.7490234375
-63.17138671875
-49.4384765625
-34.7900390625
-19.22607421875
-6.40869140625
10.986328125
21.97265625
27.4658203125
22.88818359375
8.23974609375
0.91552734375
-3.662109375
0
1.8310546875
6.40869140625
6.40869140625
5.4931640625
0
-5.4931640625
-10.986328125
-24.71923828125
-34.7900390625
-40.283203125
-53.1005859375
-67.7490234375
-81.48193359375
-88.80615234375
-90.63720703125
-91.552734375
-94.29931640625
-97.96142578125
-99.79248046875
-100.7080078125
-106.201171875
-105.28564453125
-111.6943359375
-112.60986328125
-112.60986328125
-115.3564453125
-113.525390625
-112.60986328125
-114.44091796875
-109.86328125
-109.86328125
-112.60986328125
-111.6943359375
-111.6943359375
-112.60986328125
-112.60986328125
-114.44091796875
-120.849609375
-129.08935546875
-125.42724609375
-107.11669921875
-94.29931640625
-67.7490234375
-30.21240234375
-2.74658203125
35.70556640625
84.228515625
151.06201171875
264.58740234375
387.26806640625
528.25927734375
715.02685546875
902.7099609375
1069.3359375
1219.482421875
1387.939453125
1496.88720703125
1534.423828125
1540.83251953125
1542.66357421875
1447.44873046875
1204.833984375
971.37451171875
767.2119140625
541.07666015625
276.4892578125
59.50927734375
-6.40869140625
-30.21240234375
-55.84716796875
-83.31298828125
-85.14404296875
-65.91796875
-43.02978515625
-17.39501953125
1.8310546875
2.74658203125
-3.662109375
-12.8173828125
-23.8037109375
-33.87451171875
-41.19873046875
-44.86083984375
-53.1005859375
-56.7626953125
-54.01611328125
-56.7626953125
-64.0869140625
-65.00244140625
-66.83349609375
-66.83349609375
-62.255859375
-62.255859375
-65.00244140625
-65.00244140625
-66.83349609375
-67.7490234375
-67.7490234375
-66.83349609375
-66.83349609375
-64.0869140625
-60.4248046875
-63.17138671875
-60.4248046875
-60.4248046875
-57.67822265625
-54.931640625
-55.84716796875
-54.01611328125
-52.18505859375
-49.4384765625
-49.4384765625
-48.52294921875
-46.69189453125
-43.02978515625
-38.4521484375
-42.1142578125
-40.283203125
-40.283203125
-39.36767578125
-32.958984375
-30.21240234375
-30.21240234375
-27.4658203125
-20.1416015625
-20.1416015625
-15.56396484375
-18.310546875
-15.56396484375
-11.90185546875
-9.1552734375
-6.40869140625
-3.662109375
-3.662109375
-0.91552734375
1.8310546875
4.57763671875
7.32421875
9.1552734375
7.32421875
11.90185546875
11.90185546875
12.8173828125
13.73291015625
18.310546875
21.05712890625
21.97265625
23.8037109375
24.71923828125
23.8037109375
25.634765625
31.1279296875
32.958984375
35.70556640625
38.4521484375
42.1142578125
43.02978515625
47.607421875
47.607421875
47.607421875
54.01611328125
58.59375
58.59375
59.50927734375
61.34033203125
62.255859375
67.7490234375
68.66455078125
66.83349609375
67.7490234375
75.98876953125
74.15771484375
76.904296875
77.81982421875
79.65087890625
81.48193359375
78.7353515625
80.56640625
80.56640625
84.228515625
85.14404296875
82.3974609375
82.3974609375
78.7353515625
80.56640625
80.56640625
83.31298828125
83.31298828125
81.48193359375
81.48193359375
81.48193359375
77.81982421875
77.81982421875
70.49560546875
71.4111328125
70.49560546875
60.4248046875
54.01611328125
43.02978515625
39.36767578125
33.87451171875
25.634765625
16.4794921875
9.1552734375
0.91552734375
-4.57763671875
-13.73291015625
-22.88818359375
-28.38134765625
-38.4521484375
-40.283203125
-47.607421875
-54.01611328125
-58.59375
-60.4248046875
-65.00244140625
-69.580078125
-69.580078125
-73.2421875
-74.15771484375
-77.81982421875
-83.31298828125
-84.228515625
-84.228515625
-84.228515625
-86.0595703125
-88.80615234375
-89.7216796875
-88.80615234375
-88.80615234375
-92.46826171875
-92.46826171875
-92.46826171875
-95.21484375
-88.80615234375
-92.46826171875
-96.13037109375
-93.3837890625
-94.29931640625
-90.63720703125
-89.7216796875
-86.0595703125
-92.46826171875
-93.3837890625
-88.80615234375
-88.80615234375
-88.80615234375
-90.63720703125
-89.7216796875
-86.0595703125
-86.97509765625
-87.890625
-87.890625
-89.7216796875
-86.97509765625
-84.228515625
-83.31298828125
-84.228515625
-83.31298828125
-83.31298828125
-81.48193359375
-78.7353515625
-81.48193359375
-78.7353515625
-79.65087890625
-76.904296875
-77.81982421875
-75.98876953125
-77.81982421875
-81.48193359375
-78.7353515625
-79.65087890625
-80.56640625
-74.15771484375
-77.81982421875
-77.81982421875
-77.81982421875
-78.7353515625
-81.48193359375
-78.7353515625
-79.65087890625
-81.48193359375
-81.48193359375
-82.3974609375
-85.14404296875
-83.31298828125
-80.56640625
-78.7353515625
-76.904296875
-77.81982421875
-76.904296875
-76.904296875
-75.0732421875
-80.56640625
-78.7353515625
-82.3974609375
-78.7353515625
-79.65087890625
-86.0595703125
-85.14404296875
-83.31298828125
-83.31298828125
-87.890625
-88.80615234375
-86.97509765625
-88.80615234375
-86.97509765625
-89.7216796875
-92.46826171875
-91.552734375
-87.890625
-89.7216796875
-87.890625
-86.97509765625
-88.80615234375
-88.80615234375
-92.46826171875
-91.552734375
-89.7216796875
-88.80615234375
-93.3837890625
-94.29931640625
-92.46826171875
-90.63720703125
-92.46826171875
-90.63720703125
-92.46826171875
-92.46826171875
-92.46826171875
-92.46826171875
-88.80615234375
-94.29931640625
-97.0458984375
-93.3837890625
-93.3837890625
-91.552734375
-96.13037109375
-95.21484375
-92.46826171875
-93.3837890625
-92.46826171875
-94.29931640625
-95.21484375
-96.13037109375
-95.21484375
-96.13037109375
-96.13037109375
-92.46826171875
-96.13037109375
-96.13037109375
-95.21484375
-95.21484375
-95.21484375
-97.0458984375
-97.96142578125
-98.876953125
-94.29931640625
-93.3837890625
-95.21484375
-95.21484375
-94.29931640625
-96.13037109375
-94.29931640625
-95.21484375
-94.29931640625
-94.29931640625
-96.13037109375
-91.552734375
-94.29931640625
-97.0458984375
-93.3837890625
-96.13037109375
-91.552734375
-92.46826171875
-91.552734375
-93.3837890625
-93.3837890625
-95.21484375
-96.13037109375
-99.79248046875
-96.13037109375
-96.13037109375
-98.876953125
-94.29931640625
-89.7216796875
-97.0458984375
-97.0458984375
-95.21484375
-95.21484375
-97.96142578125
-93.3837890625
-91.552734375
-97.0458984375
-95.21484375
-93.3837890625
-93.3837890625
-94.29931640625
-91.552734375
-88.80615234375
-84.228515625
-85.14404296875
-86.0595703125
-90.63720703125
-88.80615234375
-87.890625
-89.7216796875
-92.46826171875
-89.7216796875
-91.552734375
-91.552734375
-88.80615234375
-89.7216796875
-92.46826171875
-97.96142578125
-89.7216796875
-92.46826171875
-93.3837890625
-90.63720703125
-88.80615234375
-88.80615234375
-81.48193359375
-78.7353515625
-80.56640625
-75.98876953125
-67.7490234375
-64.0869140625
-54.931640625
-44.86083984375
-32.958984375
-18.310546875
-5.4931640625
10.07080078125
24.71923828125
33.87451171875
54.01611328125
65.00244140625
57.67822265625
43.02978515625
36.62109375
33.87451171875
32.04345703125
32.958984375
43.02978515625
46.69189453125
42.1142578125
40.283203125
33.87451171875
27.4658203125
20.1416015625
5.4931640625
-5.4931640625
-11.90185546875
-26.55029296875
-37.53662109375
-46.69189453125
-43.02978515625
-45.7763671875
-58.59375
-56.7626953125
-55.84716796875
-54.931640625
-61.34033203125
-60.4248046875
-70.49560546875
-68.66455078125
-71.4111328125
-76.904296875
-75.98876953125
-75.98876953125
-74.15771484375
-73.2421875
-71.4111328125
-74.15771484375
-73.2421875
-69.580078125
-66.83349609375
-74.15771484375
-75.0732421875
-78.7353515625
-86.0595703125
-87.890625
-68.66455078125
-57.67822265625
-30.21240234375
5.4931640625
43.9453125
75.0732421875
115.3564453125
173.03466796875
269.1650390625
386.3525390625
516.357421875
669.25048828125
855.1025390625
1028.13720703125
1168.212890625
1338.5009765625
1484.9853515625
1554.5654296875
1584.77783203125
1606.75048828125
1574.70703125
1390.68603515625
1144.4091796875
927.42919921875
736.99951171875
503.5400390625
273.74267578125
161.1328125
108.94775390625
57.67822265625
6.40869140625
-34.7900390625
-55.84716796875
-43.02978515625
-15.56396484375
6.40869140625
27.4658203125
34.7900390625
37.53662109375
27.4658203125
19.22607421875
8.23974609375
2.74658203125
-1.8310546875
-8.23974609375
-10.07080078125
-16.4794921875
-17.39501953125
-18.310546875
-21.97265625
-16.4794921875
-18.310546875
-19.22607421875
-18.310546875
-16.4794921875
-23.8037109375
-17.39501953125
-19.22607421875
-20.1416015625
-20.1416015625
-21.97265625
-17.39501953125
-16.4794921875
-15.56396484375
-15.56396484375
-16.4794921875
-11.90185546875
-11.90185546875
-7.32421875
-4.57763671875
-4.57763671875
-4.57763671875
-3.662109375
-0.91552734375
-0.91552734375
-2.74658203125
-0.91552734375
2.74658203125
3.662109375
7.32421875
10.07080078125
8.23974609375
16.4794921875
19.22607421875
19.22607421875
21.05712890625
21.05712890625
23.8037109375
29.296875
30.21240234375
31.1279296875
36.62109375
38.4521484375
37.53662109375
43.9453125
44.86083984375
43.9453125
48.52294921875
44.86083984375
51.26953125
53.1005859375
53.1005859375
54.931640625
58.59375
65.00244140625
67.7490234375
65.91796875
65.00244140625
66.83349609375
71.4111328125
74.15771484375
73.2421875
72.32666015625
75.98876953125
83.31298828125
84.228515625
83.31298828125
86.0595703125
89.7216796875
90.63720703125
95.21484375
97.96142578125
97.96142578125
97.0458984375
103.45458984375
103.45458984375
108.0322265625
112.60986328125
113.525390625
116.27197265625
118.10302734375
115.3564453125
115.3564453125
117.1875
122.6806640625
122.6806640625
121.76513671875
118.10302734375
121.76513671875
122.6806640625
118.10302734375
113.525390625
120.849609375
118.10302734375
117.1875
116.27197265625
111.6943359375
114.44091796875
111.6943359375
111.6943359375
110.77880859375
108.94775390625
101.62353515625
100.7080078125
97.96142578125
94.29931640625
87.890625
81.48193359375
78.7353515625
76.904296875
71.4111328125
60.4248046875
53.1005859375
45.7763671875
36.62109375
29.296875
21.97265625
15.56396484375
9.1552734375
2.74658203125
-3.662109375
-10.07080078125
-14.6484375
-14.6484375
-18.310546875
-24.71923828125
-28.38134765625
-30.21240234375
-32.958984375
-34.7900390625
-37.53662109375
-38.4521484375
-38.4521484375
-43.02978515625
-41.19873046875
-39.36767578125
-43.02978515625
-43.9453125
-43.9453125
-46.69189453125
-46.69189453125
-48.52294921875
-51.26953125
-47.607421875
-45.7763671875
-48.52294921875
-47.607421875
-50.35400390625
-48.52294921875
-44.86083984375
-44.86083984375
-47.607421875
-46.69189453125
-45.7763671875
-45.7763671875
-44.86083984375
-38.4521484375
-40.283203125
-38.4521484375
-38.4521484375
-40.283203125
-41.19873046875
-41.19873046875
-40.283203125
-40.283203125
-41.19873046875
-41.19873046875
-39.36767578125
-31.1279296875
-36.62109375
-37.53662109375
-40.283203125
-39.36767578125
-38.4521484375
-40.283203125
-40.283203125
-39.36767578125
-44.86083984375
-45.7763671875
-41.19873046875
-39.36767578125
-41.19873046875
-40.283203125
-40.283203125
-42.1142578125
-43.02978515625
-42.1142578125
-43.02978515625
-39.36767578125
-42.1142578125
-42.1142578125
-41.19873046875
-42.1142578125
-43.02978515625
-42.1142578125
-47.607421875
-45.7763671875
-46.69189453125
-46.69189453125
-45.7763671875
-47.607421875
-48.52294921875
-46.69189453125
-51.26953125
-55.84716796875
-55.84716796875
-52.18505859375
-54.931640625
-55.84716796875
-54.931640625
-53.1005859375
-56.7626953125
-60.4248046875
-58.59375
-57.67822265625
-58.59375
-65.00244140625
-67.7490234375
-66.83349609375
-60.4248046875
-59.50927734375
-63.17138671875
-62.255859375
-59.50927734375
-60.4248046875
-67.7490234375
-65.91796875
-65.00244140625
-63.17138671875
-66.83349609375
-71.4111328125
-71.4111328125
-68.66455078125
-69.580078125
-66.83349609375
-67.7490234375
-68.66455078125
-69.580078125
-69.580078125
-72.32666015625
-70.49560546875
-73.2421875
-70.49560546875
-71.4111328125
-68.66455078125
-72.32666015625
-73.2421875
-73.2421875
-70.49560546875
-73.2421875
-74.15771484375
-74.15771484375
-75.98876953125
-75.0732421875
-77.81982421875
-74.15771484375
-76.904296875
-75.98876953125
-73.2421875
-75.98876953125
-78.7353515625
-77.81982421875
-75.0732421875
-70.49560546875
-71.4111328125
-76.904296875
-75.0732421875
-74.15771484375
-72.32666015625
-73.2421875
-77.81982421875
-77.81982421875
-74.15771484375
-75.0732421875
-76.904296875
-78.7353515625
-77.81982421875
-77.81982421875
-75.98876953125
-79.65087890625
-84.228515625
-84.228515625
-87.890625
-84.228515625
-79.65087890625
-81.48193359375
-86.0595703125
-86.0595703125
-84.228515625
-83.31298828125
-83.31298828125
-85.14404296875
-87.890625
-87.890625
-85.14404296875
-86.97509765625
-91.552734375
-87.890625
-84.228515625
-84.228515625
-86.97509765625
-86.0595703125
-85.14404296875
-88.80615234375
-90.63720703125
-86.97509765625
-89.7216796875
-88.80615234375
-86.97509765625
-86.97509765625
-90.63720703125
-90.63720703125
-88.80615234375
-89.7216796875
-88.80615234375
-86.0595703125
-86.97509765625
-88.80615234375
-88.80615234375
-86.97509765625
-89.7216796875
-86.0595703125
-88.80615234375
-88.80615234375
-89.7216796875
-91.552734375
-92.46826171875
-93.3837890625
-90.63720703125
-90.63720703125
-89.7216796875
-94.29931640625
-93.3837890625
-93.3837890625
-92.46826171875
-88.80615234375
-85.14404296875
-84.228515625
-78.7353515625
-73.2421875
-77.81982421875
-74.15771484375
-68.66455078125
-61.34033203125
-50.35400390625
-40.283203125
-27.4658203125
-15.56396484375
0
12.8173828125
23.8037109375
41.19873046875
55.84716796875
65.00244140625
56.7626953125
43.9453125
28.38134765625
24.71923828125
30.21240234375
39.36767578125
40.283203125
43.02978515625
39.36767578125
32.958984375
22.88818359375
15.56396484375
5.4931640625
-4.57763671875
-10.986328125
-24.71923828125
-36.62109375
-47.607421875
-58.59375
-63.17138671875
-57.67822265625
-61.34033203125
-62.255859375
-67.7490234375
-70.49560546875
-76.904296875
-74.15771484375
-79.65087890625
-83.31298828125
-83.31298828125
-80.56640625
-83.31298828125
-85.14404296875
-86.97509765625
-85.14404296875
-85.14404296875
-90.63720703125
-92.46826171875
-88.80615234375
-94.29931640625
-95.21484375
-96.13037109375
-98.876953125
-109.86328125
-107.11669921875
-95.21484375
-79.65087890625
-59.50927734375
-21.97265625
8.23974609375
41.19873046875
86.97509765625
149.23095703125
258.1787109375
380.859375
520.93505859375
703.125
897.216796875
1072.998046875
1218.56689453125
1397.0947265625
1524.35302734375
1577.45361328125
1589.35546875
1599.42626953125
1540.83251953125
1319.27490234375
1072.08251953125
860.595703125
642.7001953125
382.6904296875
133.6669921875
36.62109375
5.4931640625
-23.8037109375
-60.4248046875
-76.904296875
-58.59375
-36.62109375
-9.1552734375
11.90185546875
18.310546875
18.310546875
7.32421875
-3.662109375
-11.90185546875
-17.39501953125
-26.55029296875
-30.21240234375
-30.21240234375
-34.7900390625
-40.283203125
-44.86083984375
-45.7763671875
-43.9453125
-46.69189453125
-53.1005859375
-50.35400390625
-50.35400390625
-50.35400390625
-50.35400390625
-54.01611328125
-51.26953125
-49.4384765625
-46.69189453125
-45.7763671875
-49.4384765625
-44.86083984375
-43.9453125
-43.02978515625
-38.4521484375
-39.36767578125
-37.53662109375
-39.36767578125
-35.70556640625
-33.87451171875
-32.958984375
-32.958984375
-35.70556640625
-32.04345703125
-26.55029296875
-28.38134765625
-27.4658203125
-28.38134765625
-25.634765625
-22.88818359375
-21.97265625
-21.97265625
-16.4794921875
-15.56396484375
-12.8173828125
-13.73291015625
-10.07080078125
-8.23974609375
-7.32421875
-5.4931640625
0
0.91552734375
3.662109375
1.8310546875
10.07080078125
14.6484375
7.32421875
13.73291015625
18.310546875
21.05712890625
20.1416015625
20.1416015625
20.1416015625
27.4658203125
29.296875
28.38134765625
31.1279296875
32.04345703125
34.7900390625
40.283203125
43.02978515625
45.7763671875
45.7763671875
48.52294921875
48.52294921875
54.01611328125
59.50927734375
56.7626953125
63.17138671875
63.17138671875
68.66455078125
68.66455078125
73.2421875
79.65087890625
79.65087890625
78.7353515625
79.65087890625
78.7353515625
84.228515625
84.228515625
85.14404296875
87.890625
87.890625
88.80615234375
85.14404296875
88.80615234375
93.3837890625
95.21484375
96.13037109375
95.21484375
97.96142578125
95.21484375
91.552734375
95.21484375
93.3837890625
91.552734375
94.29931640625
92.46826171875
92.46826171875
86.97509765625
85.14404296875
82.3974609375
81.48193359375
76.904296875
75.0732421875
68.66455078125
59.50927734375
52.18505859375
45.7763671875
36.62109375
26.55029296875
21.05712890625
10.07080078125
4.57763671875
-1.8310546875
-10.07080078125
-21.97265625
-28.38134765625
-38.4521484375
-38.4521484375
-42.1142578125
-51.26953125
-54.01611328125
-57.67822265625
-63.17138671875
-65.00244140625
-72.32666015625
-77.81982421875
-79.65087890625
-79.65087890625
-82.3974609375
-85.14404296875
-86.97509765625
-88.80615234375
-89.7216796875
-91.552734375
-92.46826171875
-93.3837890625
-92.46826171875
-91.552734375
-86.97509765625
-91.552734375
-89.7216796875
-89.7216796875
-88.80615234375
-88.80615234375
-87.890625
-89.7216796875
-89.7216796875
-88.80615234375
-90.63720703125
-90.63720703125
-91.552734375
-91.552734375
-89.7216796875
-88.80615234375
-89.7216796875
-89.7216796875
-88.80615234375
-86.0595703125
-87.890625
-87.890625
-87.890625
-86.0595703125
-86.0595703125
-82.3974609375
-86.0595703125
-86.97509765625
-87.890625
-84.228515625
-87.890625
-87.890625
-82.3974609375
-84.228515625
-85.14404296875
-86.0595703125
-86.97509765625
-84.228515625
-82.3974609375
-86.0595703125
-86.0595703125
-84.228515625
-86.0595703125
-86.0595703125
-86.97509765625
-86.97509765625
-85.14404296875
-88.80615234375
-89.7216796875
-89.7216796875
-89.7216796875
-92.46826171875
-92.46826171875
-91.552734375
-86.97509765625
-90.63720703125
-95.21484375
-94.29931640625
-92.46826171875
-93.3837890625
-93.3837890625
-96.13037109375
-97.0458984375
-95.21484375
-97.0458984375
-97.0458984375
-98.876953125
-101.62353515625
-103.45458984375
-99.79248046875
-97.96142578125
-99.79248046875
-97.0458984375
-96.13037109375
-96.13037109375
-97.96142578125
-97.96142578125
-100.7080078125
-100.7080078125
-103.45458984375
-100.7080078125
-107.11669921875
-108.0322265625
-106.201171875
-105.28564453125
-105.28564453125
-110.77880859375
-112.60986328125
-108.94775390625
-107.11669921875
-110.77880859375
-111.6943359375
-116.27197265625
-108.0322265625
-113.525390625
-115.3564453125
-112.60986328125
-114.44091796875
-116.27197265625
-117.1875
-113.525390625
-116.27197265625
-116.27197265625
-118.10302734375
-118.10302734375
-118.10302734375
-117.1875
-119.0185546875
-118.10302734375
-113.525390625
-116.27197265625
-119.0185546875
-122.6806640625
-124.51171875
-122.6806640625
-121.76513671875
-124.51171875
-122.6806640625
-122.6806640625
-119.93408203125
-122.6806640625
-124.51171875
-124.51171875
-124.51171875
-123.59619140625
-124.51171875
-124.51171875
-130.0048828125
-127.25830078125
-122.6806640625
-122.6806640625
-119.93408203125
-125.42724609375
-123.59619140625
-129.08935546875
-125.42724609375
-125.42724609375
-124.51171875
-119.93408203125
-119.0185546875
-120.849609375
-119.0185546875
-121.76513671875
-121.76513671875
-120.849609375
-121.76513671875
-122.6806640625
-123.59619140625
-125.42724609375
-120.849609375
-124.51171875
-128.173828125
-128.173828125
-125.42724609375
-123.59619140625
-124.51171875
-125.42724609375
-129.08935546875
-128.173828125
-123.59619140625
-125.42724609375
-130.92041015625
-130.0048828125
-126.3427734375
-127.25830078125
-130.0048828125
-130.92041015625
-130.92041015625
-130.92041015625
-129.08935546875
-126.3427734375
-124.51171875
-132.75146484375
-132.75146484375
-129.08935546875
-128.173828125
-129.08935546875
-128.173828125
-129.08935546875
-129.08935546875
-126.3427734375
-128.173828125
-130.92041015625
-129.08935546875
-130.92041015625
-128.173828125
-130.0048828125
-130.92041015625
-130.0048828125
-130.92041015625
-130.0048828125
-129.08935546875
-123.59619140625
-119.0185546875
-117.1875
-115.3564453125
-112.60986328125
-112.60986328125
-106.201171875
-98.876953125
-88.80615234375
-77.81982421875
-62.255859375
-52.18505859375
-42.1142578125
-28.38134765625
-13.73291015625
-3.662109375
15.56396484375
31.1279296875
39.36767578125
27.4658203125
11.90185546875
2.74658203125
3.662109375
4.57763671875
8.23974609375
8.23974609375
8.23974609375
10.07080078125
2.74658203125
-6.40869140625
-18.310546875
-29.296875
-34.7900390625
-44.86083984375
-62.255859375
-76.904296875
-83.31298828125
-89.7216796875
-97.0458984375
-97.0458984375
-97.0458984375
-98.876953125
-104.3701171875
-103.45458984375
-108.0322265625
-111.6943359375
-114.44091796875
-111.6943359375
-108.94775390625
-114.44091796875
-118.10302734375
-118.10302734375
-121.76513671875
-120.849609375
-122.6806640625
-121.76513671875
-119.93408203125
-121.76513671875
-122.6806640625
-126.3427734375
-126.3427734375
-129.08935546875
-139.16015625
-140.9912109375
-132.75146484375
-115.3564453125
-95.21484375
-61.34033203125
-29.296875
0
36.62109375
86.0595703125
180.35888671875
303.03955078125
435.791015625
593.26171875
784.60693359375
975.03662109375
1126.0986328125
1287.2314453125
1441.0400390625
1519.775390625
1529.84619140625
1537.17041015625
1513.36669921875
1335.75439453125
1091.30859375
880.7373046875
671.9970703125
426.6357421875
151.9775390625
9.1552734375
-23.8037109375
-43.9453125
-76.904296875
-89.7216796875
-76.904296875
-54.931640625
-31.1279296875
-7.32421875
0
-3.662109375
-15.56396484375
-24.71923828125
-39.36767578125
-43.9453125
-48.52294921875
-60.4248046875
-63.17138671875
-65.91796875
-65.91796875
-69.580078125
-70.49560546875
-74.15771484375
-76.904296875
-78.7353515625
-75.98876953125
-75.0732421875
-79.65087890625
-76.904296875
-78.7353515625
-76.904296875
-76.904296875
-72.32666015625
-74.15771484375
-76.904296875
-72.32666015625
-71.4111328125
-71.4111328125
-68.66455078125
-66.83349609375
-65.91796875
-64.0869140625
-63.17138671875
-62.255859375
-63.17138671875
-63.17138671875
-59.50927734375
-56.7626953125
-54.01611328125
-53.1005859375
-53.1005859375
-51.26953125
-49.4384765625
-45.7763671875
-49.4384765625
-46.69189453125
-41.19873046875
-39.36767578125
-40.283203125
-37.53662109375
-36.62109375
-31.1279296875
-28.38134765625
-32.04345703125
-29.296875
-21.97265625
-18.310546875
-16.4794921875
-19.22607421875
-18.310546875
-15.56396484375
-12.8173828125
-7.32421875
0
0.91552734375
3.662109375
4.57763671875
9.1552734375
7.32421875
8.23974609375
13.73291015625
16.4794921875
17.39501953125
20.1416015625
20.1416015625
23.8037109375
26.55029296875
27.4658203125
32.04345703125
32.958984375
32.958984375
34.7900390625
38.4521484375
38.4521484375
41.19873046875
44.86083984375
50.35400390625
50.35400390625
54.01611328125
54.931640625
54.931640625
58.59375
60.4248046875
61.34033203125
63.17138671875
66.83349609375
72.32666015625
74.15771484375
69.580078125
71.4111328125
70.49560546875
76.904296875
73.2421875
67.7490234375
70.49560546875
77.81982421875
75.98876953125
74.15771484375
75.98876953125
73.2421875
73.2421875
75.0732421875
75.98876953125
70.49560546875
67.7490234375
66.83349609375
66.83349609375
57.67822265625
52.18505859375
46.69189453125
45.7763671875
37.53662109375
31.1279296875
19.22607421875
10.07080078125
2.74658203125
-5.4931640625
-16.4794921875
-19.22607421875
-24.71923828125
-32.04345703125
-38.4521484375
-44.86083984375
-50.35400390625
-54.931640625
-64.0869140625
-68.66455078125
-73.2421875
-77.81982421875
-86.0595703125
-88.80615234375
-86.97509765625
-98.876953125
-100.7080078125
-103.45458984375
-101.62353515625
-103.45458984375
-110.77880859375
-108.94775390625
-110.77880859375
-109.86328125
-110.77880859375
-114.44091796875
-113.525390625
-115.3564453125
-114.44091796875
-113.525390625
-113.525390625
-116.27197265625
-117.1875
-117.1875
-115.3564453125
-115.3564453125
-113.525390625
-112.60986328125
-111.6943359375
-112.60986328125
-113.525390625
-110.77880859375
-109.86328125
-108.94775390625
-109.86328125
-110.77880859375
-108.0322265625
-107.11669921875
-102.5390625
-106.201171875
-106.201171875
-103.45458984375
-104.3701171875
-105.28564453125
-103.45458984375
-103.45458984375
-103.45458984375
-106.201171875
-104.3701171875
-103.45458984375
-103.45458984375
-103.45458984375
-104.3701171875
-100.7080078125
-98.876953125
-102.5390625
-102.5390625
-97.0458984375
-97.0458984375
-94.29931640625
-97.0458984375
-97.0458984375
-97.0458984375
-97.96142578125
-97.0458984375
-97.96142578125
-101.62353515625
-103.45458984375
-101.62353515625
-97.96142578125
-101.62353515625
-102.5390625
-104.3701171875
-101.62353515625
-100.7080078125
-106.201171875
-107.11669921875
-106.201171875
-103.45458984375
-104.3701171875
-105.28564453125
-108.94775390625
-111.6943359375
-109.86328125
-107.11669921875
-113.525390625
-115.3564453125
-114.44091796875
-116.27197265625
-114.44091796875
-118.10302734375
-118.10302734375
-117.1875
-118.10302734375
-119.0185546875
-121.76513671875
-120.849609375
-120.849609375
-123.59619140625
-121.76513671875
-123.59619140625
-121.76513671875
-124.51171875
-125.42724609375
-125.42724609375
-125.42724609375
-124.51171875
-128.173828125
-128.173828125
-123.59619140625
-126.3427734375
-128.173828125
-128.173828125
-128.173828125
-125.42724609375
-125.42724609375
-126.3427734375
-130.92041015625
-130.0048828125
-125.42724609375
-128.173828125
-130.0048828125
-129.08935546875
-129.08935546875
-127.25830078125
-130.0048828125
-133.6669921875
-134.58251953125
-134.58251953125
-127.25830078125
-126.3427734375
-129.08935546875
-130.0048828125
-130.92041015625
-127.25830078125
-131.8359375
-130.0048828125
-130.0048828125
-131.8359375
-129.08935546875
-132.75146484375
-131.8359375
-133.6669921875
-134.58251953125
-130.92041015625
-132.75146484375
-133.6669921875
-136.41357421875
-136.41357421875
-137.3291015625
-134.58251953125
-137.3291015625
-135.498046875
-131.8359375
-134.58251953125
-134.58251953125
-134.58251953125
-133.6669921875
-136.41357421875
-133.6669921875
-133.6669921875
-132.75146484375
-134.58251953125
-135.498046875
-135.498046875
-133.6669921875
-133.6669921875
-136.41357421875
-139.16015625
-136.41357421875
-140.9912109375
-137.3291015625
-135.498046875
-132.75146484375
-134.58251953125
-136.41357421875
-139.16015625
-140.9912109375
-137.3291015625
-135.498046875
-140.9912109375
-141.90673828125
-139.16015625
-137.3291015625
-138.24462890625
-140.07568359375
-140.07568359375
-138.24462890625
-138.24462890625
-140.07568359375
-141.90673828125
-140.9912109375
-140.9912109375
-141.90673828125
-140.07568359375
-140.07568359375
-140.9912109375
-139.16015625
-135.498046875
-132.75146484375
-135.498046875
-134.58251953125
-137.3291015625
-135.498046875
-138.24462890625
-137.3291015625
-135.498046875
-137.3291015625
-134.58251953125
-127.25830078125
-129.08935546875
-128.173828125
-125.42724609375
-119.93408203125
-116.27197265625
-112.60986328125
-108.0322265625
-99.79248046875
-87.890625
-73.2421875
-64.0869140625
-47.607421875
-32.04345703125
-16.4794921875
-2.74658203125
17.39501953125
24.71923828125
24.71923828125
7.32421875
-1.8310546875
-10.07080078125
-9.1552734375
-4.57763671875
0
-2.74658203125
-3.662109375
-6.40869140625
-20.1416015625
-21.97265625
-30.21240234375
-41.19873046875
-48.52294921875
-60.4248046875
-74.15771484375
-87.890625
-94.29931640625
-98.876953125
-102.5390625
-106.201171875
-107.11669921875
-111.6943359375
-113.525390625
-118.10302734375
-118.10302734375
-120.849609375
-126.3427734375
-128.173828125
-130.0048828125
-131.8359375
-131.8359375
-129.08935546875
-131.8359375
-130.0048828125
-132.75146484375
-131.8359375
-134.58251953125
-133.6669921875
-133.6669921875
-130.92041015625
-132.75146484375
-130.0048828125
-137.3291015625
-147.39990234375
-144.6533203125
-130.0048828125
-113.525390625
-84.228515625
-44.86083984375
-14.6484375
18.310546875
64.0869140625
130.0048828125
245.361328125
368.0419921875
508.11767578125
689.39208984375
882.568359375
1053.77197265625
1199.3408203125
1368.71337890625
1483.154296875
1526.18408203125
1528.01513671875
1526.18408203125
1424.560546875
1181.0302734375
954.89501953125
755.31005859375
532.8369140625
269.1650390625
54.931640625
-13.73291015625
-34.7900390625
-63.17138671875
-95.21484375
-96.13037109375
-76.904296875
-59.50927734375
-30.21240234375
-10.986328125
-8.23974609375
-14.6484375
-30.21240234375
-37.53662109375
-44.86083984375
-51.26953125
-59.50927734375
-62.255859375
-66.83349609375
-65.91796875
-67.7490234375
-66.83349609375
-74.15771484375
-75.0732421875
-75.0732421875
-74.15771484375
-78.7353515625
-81.48193359375
-78.7353515625
-75.98876953125
-77.81982421875
-79.65087890625
-80.56640625
-76.904296875
-75.0732421875
-75.0732421875
-75.98876953125
-75.98876953125
-70.49560546875
-65.91796875
-65.91796875
-67.7490234375
-65.00244140625
-58.59375
-60.4248046875
-60.4248046875
-57.67822265625
-52.18505859375
-54.01611328125
-50.35400390625
-50.35400390625
-50.35400390625
-46.69189453125
-43.9453125
-39.36767578125
-42.1142578125
-43.02978515625
-39.36767578125
-35.70556640625
-32.958984375
-33.87451171875
-30.21240234375
-26.55029296875
-25.634765625
-24.71923828125
-22.88818359375
-20.1416015625
-18.310546875
-14.6484375
-14.6484375
-15.56396484375
-10.07080078125
-8.23974609375
-2.74658203125
-1.8310546875
-5.4931640625
-1.8310546875
-0.91552734375
4.57763671875
3.662109375
10.07080078125
11.90185546875
13.73291015625
15.56396484375
18.310546875
18.310546875
25.634765625
27.4658203125
30.21240234375
35.70556640625
29.296875
36.62109375
41.19873046875
33.87451171875
42.1142578125
47.607421875
53.1005859375
54.931640625
52.18505859375
52.18505859375
54.931640625
59.50927734375
58.59375
64.0869140625
63.17138671875
65.91796875
69.580078125
72.32666015625
71.4111328125
72.32666015625
68.66455078125
72.32666015625
72.32666015625
71.4111328125
76.904296875
72.32666015625
69.580078125
75.98876953125
74.15771484375
75.98876953125
75.0732421875
68.66455078125
70.49560546875
75.98876953125
72.32666015625
68.66455078125
65.00244140625
62.255859375
58.59375
52.18505859375
46.69189453125
43.02978515625
34.7900390625
24.71923828125
17.39501953125
11.90185546875
4.57763671875
-6.40869140625
-11.90185546875
-21.05712890625
-27.4658203125
-39.36767578125
-45.7763671875
-49.4384765625
-52.18505859375
-60.4248046875
-65.91796875
-70.49560546875
-75.98876953125
-78.7353515625
-86.0595703125
-89.7216796875
-90.63720703125
-96.13037109375
-97.96142578125
-97.96142578125
-103.45458984375
-104.3701171875
-103.45458984375
-100.7080078125
-102.5390625
-100.7080078125
-102.5390625
-101.62353515625
-102.5390625
-98.876953125
-106.201171875
-106.201171875
-108.0322265625
-103.45458984375
-108.94775390625
-108.0322265625
-102.5390625
-103.45458984375
-108.0322265625
-105.28564453125
-104.3701171875
-105.28564453125
-102.5390625
-103.45458984375
-102.5390625
-103.45458984375
-104.3701171875
-102.5390625
-97.96142578125
-95.21484375
-98.876953125
-99.79248046875
-95.21484375
-95.21484375
-99.79248046875
-94.29931640625
-97.0458984375
-99.79248046875
-97.0458984375
-94.29931640625
-98.876953125
-92.46826171875
-89.7216796875
-93.3837890625
-94.29931640625
-91.552734375
-92.46826171875
-92.46826171875
-89.7216796875
-91.552734375
-87.890625
-88.80615234375
-85.14404296875
-84.228515625
-86.0595703125
-86.97509765625
-88.80615234375
-88.80615234375
-88.80615234375
-89.7216796875
-89.7216796875
-91.552734375
-91.552734375
-92.46826171875
-97.96142578125
-97.0458984375
-95.21484375
-96.13037109375
-101.62353515625
-101.62353515625
-99.79248046875
-101.62353515625
-100.7080078125
-104.3701171875
-100.7080078125
-106.201171875
-106.201171875
-105.28564453125
-106.201171875
-104.3701171875
-107.11669921875
-108.94775390625
-105.28564453125
-102.5390625
-106.201171875
-108.0322265625
-106.201171875
-108.0322265625
-108.0322265625
-110.77880859375
-108.94775390625
-110.77880859375
-108.0322265625
-107.11669921875
-110.77880859375
-108.0322265625
-107.11669921875
-103.45458984375
-108.94775390625
-103.45458984375
-107.11669921875
-107.11669921875
-106.201171875
-108.0322265625
-109.86328125
-111.6943359375
-114.44091796875
-111.6943359375
-112.60986328125
-116.27197265625
-119.0185546875
-117.1875
-113.525390625
-112.60986328125
-110.77880859375
-114.44091796875
-113.525390625
-116.27197265625
-115.3564453125
-113.525390625
-114.44091796875
-116.27197265625
-110.77880859375
-109.86328125
-110.77880859375
-116.27197265625
-116.27197265625
-115.3564453125
-112.60986328125
-115.3564453125
-112.60986328125
-113.525390625
-114.44091796875
-118.10302734375
-115.3564453125
-116.27197265625
-111.6943359375
-114.44091796875
-111.6943359375
-115.3564453125
-119.0185546875
-120.849609375
-112.60986328125
-112.60986328125
-114.44091796875
-111.6943359375
-115.3564453125
-109.86328125
-111.6943359375
-111.6943359375
-111.6943359375
-116.27197265625
-118.10302734375
-115.3564453125
-117.1875
-117.1875
-117.1875
-117.1875
-119.0185546875
-113.525390625
-115.3564453125
-117.1875
-117.1875
-114.44091796875
-116.27197265625
-117.1875
-120.849609375
-115.3564453125
-119.0185546875
-116.27197265625
-117.1875
-118.10302734375
-115.3564453125
-116.27197265625
-115.3564453125
-113.525390625
-119.0185546875
-116.27197265625
-114.44091796875
-115.3564453125
-115.3564453125
-116.27197265625
-114.44091796875
-114.44091796875
-116.27197265625
-116.27197265625
-111.6943359375
-110.77880859375
-111.6943359375
-106.201171875
-108.0322265625
-106.201171875
-105.28564453125
-107.11669921875
-108.0322265625
-108.94775390625
-108.0322265625
-101.62353515625
-95.21484375
-96.13037109375
-94.29931640625
-89.7216796875
-86.0595703125
-79.65087890625
-70.49560546875
-56.7626953125
-44.86083984375
-31.1279296875
-13.73291015625
-1.8310546875
7.32421875
23.8037109375
39.36767578125
39.36767578125
26.55029296875
19.22607421875
10.07080078125
11.90185546875
15.56396484375
22.88818359375
22.88818359375
19.22607421875
19.22607421875
13.73291015625
8.23974609375
-0.91552734375
-14.6484375
-18.310546875
-31.1279296875
-50.35400390625
-60.4248046875
-67.7490234375
-74.15771484375
-76.904296875
-76.904296875
-77.81982421875
-83.31298828125
-82.3974609375
-82.3974609375
-86.0595703125
-87.890625
-88.80615234375
-92.46826171875
-92.46826171875
-91.552734375
-95.21484375
-97.0458984375
-97.0458984375
-96.13037109375
-100.7080078125
-102.5390625
-108.0322265625
-106.201171875
-105.28564453125
-104.3701171875
-107.11669921875
-106.201171875
-108.0322265625
-111.6943359375
-107.11669921875
-99.79248046875
-91.552734375
-68.66455078125
-30.21240234375
7.32421875
36.62109375
74.15771484375
129.08935546875
224.30419921875
339.66064453125
457.763671875
607.91015625
794.677734375
978.69873046875
1123.35205078125
1289.97802734375
1450.1953125
1526.18408203125
1554.5654296875
1575.62255859375
1553.64990234375
1382.4462890625
1132.50732421875
916.44287109375
726.01318359375
502.62451171875
259.09423828125
128.173828125
78.7353515625
32.958984375
-19.22607421875
-65.00244140625
-84.228515625
-65.91796875
-43.02978515625
-24.71923828125
0
15.56396484375
10.07080078125
2.74658203125
-8.23974609375
-17.39501953125
-20.1416015625
-27.4658203125
-34.7900390625
-35.70556640625
-40.283203125
-43.9453125
-43.02978515625
-48.52294921875
-50.35400390625
-47.607421875
-49.4384765625
-48.52294921875
-49.4384765625
-47.607421875
-49.4384765625
-46.69189453125
-47.607421875
-43.9453125
-43.02978515625
-52.18505859375
-48.52294921875
-45.7763671875
-43.9453125
-44.86083984375
-43.02978515625
-41.19873046875
-43.02978515625
-39.36767578125
-37.53662109375
-37.53662109375
-39.36767578125
-35.70556640625
-32.958984375
-31.1279296875
-31.1279296875
-31.1279296875
-23.8037109375
-19.22607421875
-20.1416015625
-21.97265625
-20.1416015625
-14.6484375
-12.8173828125
-9.1552734375
-10.07080078125
-6.40869140625
-4.57763671875
-2.74658203125
-0.91552734375
0.91552734375
1.8310546875
1.8310546875
10.07080078125
11.90185546875
8.23974609375
8.23974609375
15.56396484375
13.73291015625
15.56396484375
15.56396484375
17.39501953125
21.05712890625
21.05712890625
21.97265625
21.97265625
24.71923828125
28.38134765625
32.958984375
33.87451171875
37.53662109375
43.9453125
43.02978515625
46.69189453125
47.607421875
45.7763671875
50.35400390625
53.1005859375
54.01611328125
54.01611328125
55.84716796875
62.255859375
65.00244140625
64.0869140625
65.00244140625
65.91796875
68.66455078125
75.0732421875
74.15771484375
74.15771484375
75.98876953125
78.7353515625
79.65087890625
83.31298828125
84.228515625
82.3974609375
85.14404296875
87.890625
86.97509765625
83.31298828125
79.65087890625
84.228515625
85.14404296875
79.65087890625
80.56640625
77.81982421875
80.56640625
77.81982421875
73.2421875
73.2421875
69.580078125
65.00244140625
60.4248046875
59.50927734375
54.01611328125
47.607421875
43.9453125
38.4521484375
29.296875
17.39501953125
8.23974609375
7.32421875
-2.74658203125
-13.73291015625
-23.8037109375
-26.55029296875
-36.62109375
-40.283203125
-43.02978515625
-51.26953125
-58.59375
-65.00244140625
-64.0869140625
-70.49560546875
-75.98876953125
-80.56640625
-82.3974609375
-86.0595703125
-89.7216796875
-91.552734375
-93.3837890625
-95.21484375
-93.3837890625
-97.0458984375
-104.3701171875
-101.62353515625
-100.7080078125
-100.7080078125
-102.5390625
-101.62353515625
-104.3701171875
-104.3701171875
-99.79248046875
-99.79248046875
-98.876953125
-97.96142578125
-100.7080078125
-97.0458984375
-95.21484375
-98.876953125
-102.5390625
-99.79248046875
-96.13037109375
-98.876953125
-99.79248046875
-97.96142578125
-99.79248046875
-97.96142578125
-97.0458984375
-96.13037109375
-97.96142578125
-97.96142578125
-94.29931640625
-92.46826171875
-92.46826171875
-94.29931640625
-90.63720703125
-87.890625
-91.552734375
-92.46826171875
-89.7216796875
-89.7216796875
-88.80615234375
-90.63720703125
-90.63720703125
-92.46826171875
-90.63720703125
-86.97509765625
-88.80615234375
-91.552734375
-88.80615234375
-89.7216796875
-90.63720703125
-89.7216796875
-89.7216796875
-88.80615234375
-88.80615234375
-87.890625
-91.552734375
-92.46826171875
-92.46826171875
-93.3837890625
-91.552734375
-92.46826171875
-97.0458984375
-97.0458984375
-95.21484375
-99.79248046875
-96.13037109375
-99.79248046875
-99.79248046875
-97.0458984375
-97.96142578125
-102.5390625
-104.3701171875
-104.3701171875
-99.79248046875
-100.7080078125
-103.45458984375
-102.5390625
-103.45458984375
-103.45458984375
-105.28564453125
-104.3701171875
-106.201171875
-108.0322265625
-105.28564453125
-106.201171875
-110.77880859375
-109.86328125
-114.44091796875
-114.44091796875
-114.44091796875
-114.44091796875
-117.1875
-114.44091796875
-116.27197265625
-111.6943359375
-117.1875
-119.0185546875
-119.0185546875
-113.525390625
-114.44091796875
-118.10302734375
-123.59619140625
-121.76513671875
-119.0185546875
-118.10302734375
-120.849609375
-120.849609375
-121.76513671875
-124.51171875
-121.76513671875
-119.93408203125
-121.76513671875
-122.6806640625
-126.3427734375
-124.51171875
-124.51171875
-128.173828125
-129.08935546875
-128.173828125
-124.51171875
-127.25830078125
-127.25830078125
-126.3427734375
-129.08935546875
-129.08935546875
-123.59619140625
-127.25830078125
-130.0048828125
-129.08935546875
-128.173828125
-129.08935546875
-131.8359375
-131.8359375
-129.08935546875
-129.08935546875
-126.3427734375
-130.0048828125
-131.8359375
-128.173828125
-129.08935546875
-130.92041015625
-135.498046875
-133.6669921875
-133.6669921875
-131.8359375
-129.08935546875
-132.75146484375
-134.58251953125
-130.92041015625
-131.8359375
-134.58251953125
-138.24462890625
-133.6669921875
-133.6669921875
-132.75146484375
-134.58251953125
-135.498046875
-133.6669921875
-136.41357421875
-134.58251953125
-137.3291015625
-139.16015625
-134.58251953125
-138.24462890625
-133.6669921875
-131.8359375
-134.58251953125
-135.498046875
-137.3291015625
-136.41357421875
-134.58251953125
-134.58251953125
-137.3291015625
-136.41357421875
-134.58251953125
-139.16015625
-136.41357421875
-138.24462890625
-138.24462890625
-139.16015625
-137.3291015625
-139.16015625
-138.24462890625
-136.41357421875
-133.6669921875
-134.58251953125
-136.41357421875
-136.41357421875
-138.24462890625
-138.24462890625
-139.16015625
-135.498046875
-140.9912109375
-140.07568359375
-139.16015625
-138.24462890625
-139.16015625
-142.822265625
-140.9912109375
-136.41357421875
-140.07568359375
-137.3291015625
-134.58251953125
-130.92041015625
-128.173828125
-121.76513671875
-119.93408203125
-120.849609375
-116.27197265625
-108.94775390625
-96.13037109375
-86.0595703125
-76.904296875
-67.7490234375
-49.4384765625
-32.958984375
-22.88818359375
-9.1552734375
6.40869140625
13.73291015625
18.310546875
-0.91552734375
-11.90185546875
-21.05712890625
-14.6484375
-13.73291015625
-4.57763671875
-4.57763671875
-10.07080078125
-12.8173828125
-23.8037109375
-26.55029296875
-35.70556640625
-44.86083984375
-51.26953125
-62.255859375
-78.7353515625
-90.63720703125
-99.79248046875
-106.201171875
-107.11669921875
-114.44091796875
-119.93408203125
-120.849609375
-120.849609375
-120.849609375
-127.25830078125
-129.08935546875
-130.92041015625
-131.8359375
-130.0048828125
-134.58251953125
-138.24462890625
-132.75146484375
-131.8359375
-135.498046875
-136.41357421875
-137.3291015625
-140.07568359375
-140.07568359375
-140.07568359375
-139.16015625
-140.9912109375
-139.16015625
-140.9912109375
-151.06201171875
-158.38623046875
-145.56884765625
-134.58251953125
-112.60986328125
-76.904296875
-40.283203125
-12.8173828125
25.634765625
77.81982421875
171.20361328125
292.05322265625
422.9736328125
584.1064453125
779.11376953125
973.20556640625
1120.60546875
1276.2451171875
1430.0537109375
1515.19775390625
1525.2685546875
1534.423828125
1514.2822265625
1336.669921875
1086.73095703125
875.244140625
667.41943359375
422.05810546875
148.3154296875
7.32421875
-31.1279296875
-56.7626953125
-87.890625
-106.201171875
-95.21484375
-70.49560546875
-50.35400390625
-24.71923828125
-16.4794921875
-20.1416015625
-25.634765625
-36.62109375
-48.52294921875
-55.84716796875
-63.17138671875
-66.83349609375
-73.2421875
-76.904296875
-76.904296875
-82.3974609375
-84.228515625
-79.65087890625
-82.3974609375
-86.97509765625
-88.80615234375
-89.7216796875
-87.890625
-88.80615234375
-88.80615234375
-86.97509765625
-89.7216796875
-90.63720703125
-89.7216796875
-87.890625
-87.890625
-86.0595703125
-89.7216796875
-85.14404296875
-85.14404296875
-83.31298828125
-82.3974609375
-80.56640625
-79.65087890625
-79.65087890625
-76.904296875
-75.0732421875
-75.98876953125
-73.2421875
-68.66455078125
-67.7490234375
-66.83349609375
-65.00244140625
-61.34033203125
-60.4248046875
-61.34033203125
-61.34033203125
-54.01611328125
-54.931640625
-54.01611328125
-46.69189453125
-46.69189453125
-45.7763671875
-39.36767578125
-38.4521484375
-38.4521484375
-36.62109375
-32.04345703125
-31.1279296875
-32.04345703125
-29.296875
-22.88818359375
-24.71923828125
-26.55029296875
-21.97265625
-20.1416015625
-14.6484375
-14.6484375
-13.73291015625
-9.1552734375
-8.23974609375
-5.4931640625
-4.57763671875
-5.4931640625
0
3.662109375
5.4931640625
9.1552734375
12.8173828125
14.6484375
18.310546875
24.71923828125
23.8037109375
22.88818359375
30.21240234375
32.04345703125
33.87451171875
34.7900390625
37.53662109375
42.1142578125
44.86083984375
44.86083984375
48.52294921875
52.18505859375
51.26953125
52.18505859375
52.18505859375
54.931640625
55.84716796875
56.7626953125
57.67822265625
57.67822265625
57.67822265625
55.84716796875
59.50927734375
59.50927734375
58.59375
57.67822265625
54.931640625
56.7626953125
56.7626953125
55.84716796875
57.67822265625
56.7626953125
54.01611328125
49.4384765625
45.7763671875
42.1142578125
32.04345703125
25.634765625
23.8037109375
18.310546875
7.32421875
-2.74658203125
-11.90185546875
-17.39501953125
-23.8037109375
-33.87451171875
-43.02978515625
-52.18505859375
-54.01611328125
-63.17138671875
-72.32666015625
-79.65087890625
-84.228515625
-87.890625
-97.96142578125
-101.62353515625
-105.28564453125
-109.86328125
-114.44091796875
-117.1875
-123.59619140625
-127.25830078125
-127.25830078125
-130.0048828125
-132.75146484375
-137.3291015625
-138.24462890625
-138.24462890625
-134.58251953125
-138.24462890625
-140.07568359375
-137.3291015625
-140.07568359375
-140.07568359375
-137.3291015625
-138.24462890625
-140.9912109375
-139.16015625
-138.24462890625
-140.9912109375
-135.498046875
-135.498046875
-135.498046875
-131.8359375
-132.75146484375
-130.92041015625
-132.75146484375
-131.8359375
-129.08935546875
-130.0048828125
-129.08935546875
-130.92041015625
-130.0048828125
-126.3427734375
-129.08935546875
-129.08935546875
-128.173828125
-122.6806640625
-120.849609375
-125.42724609375
-125.42724609375
-122.6806640625
-122.6806640625
-122.6806640625
-121.76513671875
-124.51171875
-124.51171875
-120.849609375
-121.76513671875
-124.51171875
-127.25830078125
-123.59619140625
-121.76513671875
-123.59619140625
-124.51171875
-122.6806640625
-122.6806640625
-121.76513671875
-124.51171875
-123.59619140625
-122.6806640625
-121.76513671875
-127.25830078125
-121.76513671875
-121.76513671875
-128.173828125
-127.25830078125
-126.3427734375
-126.3427734375
-127.25830078125
-124.51171875
-129.08935546875
-132.75146484375
-130.0048828125
-130.0048828125
-131.8359375
-133.6669921875
-135.498046875
-131.8359375
-133.6669921875
-133.6669921875
-136.41357421875
-138.24462890625
-140.9912109375
-135.498046875
-139.16015625
-141.90673828125
-137.3291015625
-140.07568359375
-141.90673828125
-142.822265625
-143.73779296875
-143.73779296875
-140.9912109375
-143.73779296875
-144.6533203125
-144.6533203125
-148.3154296875
-143.73779296875
-145.56884765625
-150.146484375
-150.146484375
-147.39990234375
-146.484375
-148.3154296875
-149.23095703125
-151.9775390625
-150.146484375
-151.9775390625
-155.6396484375
-153.80859375
-154.72412109375
-153.80859375
-153.80859375
-151.9775390625
-155.6396484375
-152.89306640625
-152.89306640625
-154.72412109375
-154.72412109375
-155.6396484375
-153.80859375
-153.80859375
-155.6396484375
-157.470703125
-156.55517578125
-155.6396484375
-159.3017578125
-160.21728515625
-157.470703125
-160.21728515625
-159.3017578125
-159.3017578125
-161.1328125
-157.470703125
-155.6396484375
-151.9775390625
-155.6396484375
-159.3017578125
-158.38623046875
-160.21728515625
-160.21728515625
-158.38623046875
-160.21728515625
-157.470703125
-156.55517578125
-157.470703125
-156.55517578125
-156.55517578125
-162.04833984375
-162.9638671875
-161.1328125
-159.3017578125
-161.1328125
-163.87939453125
-161.1328125
-162.04833984375
-161.1328125
-161.1328125
-163.87939453125
-161.1328125
-164.794921875
-162.9638671875
-160.21728515625
-159.3017578125
-162.04833984375
-162.04833984375
-161.1328125
-161.1328125
-164.794921875
-162.9638671875
-162.9638671875
-162.9638671875
-162.9638671875
-161.1328125
-161.1328125
-162.9638671875
-162.9638671875
-163.87939453125
-159.3017578125
-157.470703125
-164.794921875
-162.9638671875
-162.9638671875
-161.1328125
-164.794921875
-165.71044921875
-164.794921875
-161.1328125
-162.9638671875
-164.794921875
-161.1328125
-160.21728515625
-162.9638671875
-165.71044921875
-165.71044921875
-167.54150390625
-163.87939453125
-162.9638671875
-166.6259765625
-167.54150390625
-167.54150390625
-165.71044921875
-164.794921875
-165.71044921875
-166.6259765625
-163.87939453125
-160.21728515625
-155.6396484375
-152.89306640625
-152.89306640625
-148.3154296875
-145.56884765625
-138.24462890625
-135.498046875
-125.42724609375
-115.3564453125
-105.28564453125
-91.552734375
-82.3974609375
-68.66455078125
-54.931640625
-42.1142578125
-24.71923828125
-10.07080078125
-7.32421875
-15.56396484375
-32.04345703125
-43.9453125
-41.19873046875
-36.62109375
-32.958984375
-32.04345703125
-32.04345703125
-36.62109375
-45.7763671875
-52.18505859375
-59.50927734375
-65.00244140625
-75.0732421875
-86.0595703125
-105.28564453125
-117.1875
-128.173828125
-131.8359375
-133.6669921875
-135.498046875
-141.90673828125
-140.07568359375
-138.24462890625
-146.484375
-145.56884765625
-148.3154296875
-151.06201171875
-155.6396484375
-158.38623046875
-159.3017578125
-161.1328125
-158.38623046875
-163.87939453125
-164.794921875
-165.71044921875
-166.6259765625
-164.794921875
-162.9638671875
-163.87939453125
-165.71044921875
-166.6259765625
-162.9638671875
-164.794921875
-165.71044921875
-177.6123046875
-183.10546875
-171.20361328125
-161.1328125
-133.6669921875
-95.21484375
-59.50927734375
-30.21240234375
14.6484375
60.4248046875
154.72412109375
276.4892578125
403.74755859375
563.04931640625
757.14111328125
940.24658203125
1094.970703125
1251.52587890625
1400.7568359375
1484.9853515625
1491.39404296875
1495.05615234375
1464.84375
1274.4140625
1029.96826171875
820.3125
614.31884765625
368.0419921875
99.79248046875
-32.958984375
-65.91796875
-86.97509765625
-119.0185546875
-135.498046875
-117.1875
-93.3837890625
-74.15771484375
-52.18505859375
-43.9453125
-50.35400390625
-57.67822265625
-68.66455078125
-77.81982421875
-86.0595703125
-90.63720703125
-97.96142578125
-98.876953125
-106.201171875
-105.28564453125
-108.0322265625
-111.6943359375
-112.60986328125
-113.525390625
-115.3564453125
-114.44091796875
-113.525390625
-113.525390625
-109.86328125
-113.525390625
-113.525390625
-117.1875
-115.3564453125
-109.86328125
-109.86328125
-112.60986328125
-109.86328125
-108.0322265625
-107.11669921875
-103.45458984375
-106.201171875
-107.11669921875
-103.45458984375
-98.876953125
-96.13037109375
-101.62353515625
-97.0458984375
-95.21484375
-90.63720703125
-92.46826171875
-90.63720703125
-90.63720703125
-85.14404296875
-80.56640625
-82.3974609375
-77.81982421875
-74.15771484375
-74.15771484375
-70.49560546875
-71.4111328125
-68.66455078125
-66.83349609375
-66.83349609375
-61.34033203125
-59.50927734375
-57.67822265625
-57.67822265625
-55.84716796875
-53.1005859375
-53.1005859375
-54.01611328125
-48.52294921875
-42.1142578125
-43.9453125
-41.19873046875
-39.36767578125
-37.53662109375
-35.70556640625
-31.1279296875
-28.38134765625
-28.38134765625
-26.55029296875
-25.634765625
-22.88818359375
-20.1416015625
-16.4794921875
-13.73291015625
-12.8173828125
-13.73291015625
-9.1552734375
