ECG
-107.11669921875
-116.27197265625
-116.27197265625
-124.51171875
-141.90673828125
-138.24462890625
-136.41357421875
-131.8359375
-128.173828125
-140.9912109375
-143.73779296875
-130.0048828125
-132.75146484375
-151.9775390625
-159.3017578125
-165.71044921875
-162.04833984375
-154.72412109375
-140.07568359375
-131.8359375
-148.3154296875
-155.6396484375
-157.470703125
-155.6396484375
-146.484375
-133.6669921875
-161.1328125
-191.34521484375
-191.34521484375
-176.69677734375
-163.87939453125
-156.55517578125
-140.9912109375
-121.76513671875
-119.0185546875
-119.93408203125
-98.876953125
-63.17138671875
-20.1416015625
47.607421875
94.29931640625
174.86572265625
291.1376953125
414.73388671875
563.04931640625
734.2529296875
921.0205078125
1087.646484375
1253.35693359375
1426.3916015625
1527.099609375
1539.9169921875
1528.01513671875
1487.73193359375
1291.80908203125
1040.95458984375
851.4404296875
665.58837890625
451.35498046875
173.03466796875
-22.88818359375
-81.48193359375
-93.3837890625
-113.525390625
-127.25830078125
-118.10302734375
-86.0595703125
-48.52294921875
-27.4658203125
-39.36767578125
-57.67822265625
-55.84716796875
-41.19873046875
-52.18505859375
-67.7490234375
-81.48193359375
-85.14404296875
-77.81982421875
-75.98876953125
-73.2421875
-85.14404296875
-93.3837890625
-84.228515625
-86.97509765625
-84.228515625
-76.904296875
-77.81982421875
-75.0732421875
-84.228515625
-94.29931640625
-102.5390625
-102.5390625
-87.890625
-79.65087890625
-74.15771484375
-66.83349609375
-66.83349609375
-65.91796875
-58.59375
-59.50927734375
-65.91796875
-75.0732421875
-94.29931640625
-114.44091796875
-101.62353515625
-84.228515625
-65.91796875
-58.59375
-49.4384765625
-49.4384765625
-70.49560546875
-97.0458984375
-102.5390625
-79.65087890625
-57.67822265625
-41.19873046875
-28.38134765625
-29.296875
-33.87451171875
-25.634765625
-26.55029296875
-31.1279296875
-35.70556640625
-28.38134765625
-21.05712890625
-32.04345703125
-47.607421875
-51.26953125
-37.53662109375
-21.97265625
-11.90185546875
-19.22607421875
-22.88818359375
-22.88818359375
-14.6484375
-3.662109375
4.57763671875
16.4794921875
30.21240234375
31.1279296875
22.88818359375
19.22607421875
17.39501953125
36.62109375
37.53662109375
17.39501953125
1.8310546875
-14.6484375
-3.662109375
20.1416015625
42.1142578125
49.4384765625
46.69189453125
43.9453125
55.84716796875
61.34033203125
61.34033203125
68.66455078125
56.7626953125
59.50927734375
72.32666015625
86.97509765625
98.876953125
95.21484375
95.21484375
94.29931640625
88.80615234375
86.97509765625
86.0595703125
89.7216796875
87.890625
79.65087890625
89.7216796875
100.7080078125
88.80615234375
75.98876953125
83.31298828125
98.876953125
100.7080078125
105.28564453125
114.44091796875
115.3564453125
106.201171875
95.21484375
94.29931640625
93.3837890625
85.14404296875
77.81982421875
85.14404296875
80.56640625
59.50927734375
35.70556640625
21.97265625
4.57763671875
-0.91552734375
-3.662109375
-31.1279296875
-46.69189453125
-46.69189453125
-47.607421875
-58.59375
-75.98876953125
-80.56640625
-72.32666015625
-70.49560546875
-87.890625
-95.21484375
-99.79248046875
-98.876953125
-94.29931640625
-102.5390625
-110.77880859375
-109.86328125
-108.0322265625
-103.45458984375
-108.94775390625
-119.93408203125
-140.07568359375
-151.06201171875
-149.23095703125
-156.55517578125
-157.470703125
-148.3154296875
-134.58251953125
-142.822265625
-140.07568359375
-130.92041015625
-132.75146484375
-129.08935546875
-120.849609375
-134.58251953125
-153.80859375
-150.146484375
-149.23095703125
-145.56884765625
-131.8359375
-132.75146484375
-126.3427734375
-124.51171875
-139.16015625
-139.16015625
-138.24462890625
-139.16015625
-132.75146484375
-127.25830078125
-122.6806640625
-136.41357421875
-133.6669921875
-133.6669921875
-125.42724609375
-118.10302734375
-127.25830078125
-131.8359375
-126.3427734375
-130.0048828125
-135.498046875
-139.16015625
-132.75146484375
-120.849609375
-124.51171875
-145.56884765625
-143.73779296875
-144.6533203125
-137.3291015625
-130.0048828125
-130.0048828125
-124.51171875
-124.51171875
-118.10302734375
-121.76513671875
-119.93408203125
-120.849609375
-123.59619140625
-112.60986328125
-105.28564453125
-109.86328125
-133.6669921875
-142.822265625
-140.07568359375
-122.6806640625
-109.86328125
-117.1875
-126.3427734375
-141.90673828125
-168.45703125
-146.484375
-136.41357421875
-143.73779296875
-150.146484375
-130.0048828125
-118.10302734375
-109.86328125
-119.0185546875
-122.6806640625
-120.849609375
-131.8359375
-126.3427734375
-125.42724609375
-114.44091796875
-122.6806640625
-130.92041015625
-133.6669921875
-136.41357421875
-131.8359375
-134.58251953125
-131.8359375
-128.173828125
-138.24462890625
-160.21728515625
-158.38623046875
-153.80859375
-148.3154296875
-145.56884765625
-147.39990234375
-141.90673828125
-153.80859375
-162.9638671875
-161.1328125
-152.89306640625
-157.470703125
-162.04833984375
-142.822265625
-145.56884765625
-148.3154296875
-137.3291015625
-132.75146484375
-132.75146484375
-137.3291015625
-143.73779296875
-158.38623046875
-162.04833984375
-162.9638671875
-150.146484375
-146.484375
-146.484375
-138.24462890625
-146.484375
-138.24462890625
-136.41357421875
-140.07568359375
-151.9775390625
-151.9775390625
-156.55517578125
-152.89306640625
-153.80859375
-151.9775390625
-160.21728515625
-164.794921875
-168.45703125
-156.55517578125
-146.484375
-135.498046875
-132.75146484375
-132.75146484375
-134.58251953125
-136.41357421875
-146.484375
-146.484375
-138.24462890625
-137.3291015625
-120.849609375
-113.525390625
-118.10302734375
-141.90673828125
-144.6533203125
-147.39990234375
-163.87939453125
-180.35888671875
-166.6259765625
-153.80859375
-150.146484375
-149.23095703125
-121.76513671875
-117.1875
-128.173828125
-143.73779296875
-135.498046875
-138.24462890625
-135.498046875
-138.24462890625
-138.24462890625
-146.484375
-146.484375
-137.3291015625
-134.58251953125
-138.24462890625
-130.0048828125
-130.0048828125
-134.58251953125
-139.16015625
-139.16015625
-149.23095703125
-150.146484375
-142.822265625
-130.92041015625
-132.75146484375
-140.07568359375
-149.23095703125
-149.23095703125
-134.58251953125
-125.42724609375
-121.76513671875
-126.3427734375
-119.0185546875
-126.3427734375
-127.25830078125
-123.59619140625
-127.25830078125
-110.77880859375
-119.93408203125
-125.42724609375
-133.6669921875
-139.16015625
-140.9912109375
-128.173828125
-117.1875
-119.0185546875
-119.93408203125
-97.0458984375
-78.7353515625
-87.890625
-86.0595703125
-70.49560546875
-65.91796875
-81.48193359375
-77.81982421875
-79.65087890625
-77.81982421875
-67.7490234375
-37.53662109375
-21.05712890625
-21.05712890625
-41.19873046875
-66.83349609375
-61.34033203125
-54.01611328125
-47.607421875
-44.86083984375
-42.1142578125
-43.02978515625
-65.91796875
-87.890625
-92.46826171875
-86.97509765625
-95.21484375
-106.201171875
-108.0322265625
-107.11669921875
-94.29931640625
-90.63720703125
-82.3974609375
-90.63720703125
-92.46826171875
-101.62353515625
-97.96142578125
-104.3701171875
-123.59619140625
-152.89306640625
-149.23095703125
-130.0048828125
-114.44091796875
-118.10302734375
-122.6806640625
-115.3564453125
-114.44091796875
-110.77880859375
-105.28564453125
-92.46826171875
-109.86328125
-138.24462890625
-136.41357421875
-133.6669921875
-125.42724609375
-109.86328125
-106.201171875
-118.10302734375
-130.92041015625
-122.6806640625
-104.3701171875
-70.49560546875
-43.9453125
-15.56396484375
10.07080078125
40.283203125
100.7080078125
214.2333984375
337.82958984375
467.83447265625
629.8828125
819.39697265625
992.431640625
1144.4091796875
1301.8798828125
1471.25244140625
1534.423828125
1559.14306640625
1565.5517578125
1516.11328125
1293.64013671875
1041.8701171875
834.9609375
651.85546875
433.04443359375
196.83837890625
72.32666015625
30.21240234375
5.4931640625
-39.36767578125
-82.3974609375
-114.44091796875
-92.46826171875
-54.931640625
-32.958984375
-14.6484375
1.8310546875
-0.91552734375
-20.1416015625
-34.7900390625
-41.19873046875
-40.283203125
-36.62109375
-46.69189453125
-50.35400390625
-49.4384765625
-55.84716796875
-63.17138671875
-44.86083984375
-35.70556640625
-37.53662109375
-43.9453125
-55.84716796875
-70.49560546875
-77.81982421875
-75.98876953125
-79.65087890625
-72.32666015625
-54.931640625
-45.7763671875
-50.35400390625
-43.9453125
-50.35400390625
-43.02978515625
-39.36767578125
-43.9453125
-45.7763671875
-39.36767578125
-26.55029296875
-18.310546875
-43.9453125
-65.00244140625
-52.18505859375
-30.21240234375
-19.22607421875
-19.22607421875
-14.6484375
-9.1552734375
-14.6484375
-0.91552734375
0
-13.73291015625
-26.55029296875
-30.21240234375
-21.05712890625
-14.6484375
-8.23974609375
-1.8310546875
-6.40869140625
2.74658203125
20.1416015625
21.05712890625
10.986328125
-7.32421875
-20.1416015625
-19.22607421875
-7.32421875
13.73291015625
20.1416015625
30.21240234375
31.1279296875
30.21240234375
43.02978515625
48.52294921875
54.01611328125
50.35400390625
51.26953125
42.1142578125
37.53662109375
33.87451171875
45.7763671875
46.69189453125
40.283203125
49.4384765625
48.52294921875
62.255859375
68.66455078125
81.48193359375
85.14404296875
84.228515625
86.97509765625
91.552734375
89.7216796875
90.63720703125
111.6943359375
114.44091796875
109.86328125
98.876953125
95.21484375
98.876953125
106.201171875
119.0185546875
128.173828125
122.6806640625
104.3701171875
100.7080078125
104.3701171875
108.0322265625
122.6806640625
131.8359375
139.16015625
137.3291015625
132.75146484375
127.25830078125
132.75146484375
123.59619140625
127.25830078125
132.75146484375
132.75146484375
141.90673828125
115.3564453125
98.876953125
100.7080078125
106.201171875
112.60986328125
107.11669921875
93.3837890625
77.81982421875
43.9453125
38.4521484375
37.53662109375
30.21240234375
28.38134765625
15.56396484375
12.8173828125
12.8173828125
5.4931640625
-8.23974609375
-31.1279296875
-43.9453125
-48.52294921875
-43.9453125
-36.62109375
-42.1142578125
-58.59375
-72.32666015625
-93.3837890625
-108.0322265625
-110.77880859375
-111.6943359375
-101.62353515625
-94.29931640625
-88.80615234375
-81.48193359375
-77.81982421875
-77.81982421875
-77.81982421875
-86.0595703125
-73.2421875
-68.66455078125
-79.65087890625
-86.0595703125
-83.31298828125
-86.97509765625
-100.7080078125
-104.3701171875
-97.0458984375
-90.63720703125
-85.14404296875
-86.0595703125
-82.3974609375
-93.3837890625
-99.79248046875
-90.63720703125
-84.228515625
-77.81982421875
-66.83349609375
-69.580078125
-76.904296875
-89.7216796875
-86.97509765625
-97.0458984375
-105.28564453125
-103.45458984375
-98.876953125
-94.29931640625
-86.0595703125
-84.228515625
-79.65087890625
-82.3974609375
-86.97509765625
-73.2421875
-59.50927734375
-68.66455078125
-85.14404296875
-93.3837890625
-105.28564453125
-108.0322265625
-89.7216796875
-88.80615234375
-81.48193359375
-84.228515625
-85.14404296875
-80.56640625
-73.2421875
-64.0869140625
-54.931640625
-54.01611328125
-57.67822265625
-55.84716796875
-64.0869140625
-65.91796875
-63.17138671875
-56.7626953125
-54.01611328125
-56.7626953125
-84.228515625
-88.80615234375
-87.890625
-92.46826171875
-88.80615234375
-94.29931640625
-98.876953125
-95.21484375
-81.48193359375
-75.98876953125
-82.3974609375
-101.62353515625
-93.3837890625
-78.7353515625
-65.91796875
-65.00244140625
-49.4384765625
-57.67822265625
-110.77880859375
-140.9912109375
-131.8359375
-117.1875
-102.5390625
-87.890625
-87.890625
-96.13037109375
-113.525390625
-117.1875
-109.86328125
-96.13037109375
-85.14404296875
-89.7216796875
-90.63720703125
-90.63720703125
-92.46826171875
-97.0458984375
-91.552734375
-91.552734375
-91.552734375
-86.0595703125
-90.63720703125
-86.0595703125
-89.7216796875
-114.44091796875
-130.0048828125
-116.27197265625
-108.0322265625
-108.0322265625
-98.876953125
-97.96142578125
-100.7080078125
-98.876953125
-107.11669921875
-122.6806640625
-120.849609375
-108.94775390625
-101.62353515625
-97.96142578125
-89.7216796875
-102.5390625
-126.3427734375
-128.173828125
-107.11669921875
-100.7080078125
-108.0322265625
-101.62353515625
-97.96142578125
-91.552734375
-85.14404296875
-102.5390625
-116.27197265625
-120.849609375
-106.201171875
-81.48193359375
-80.56640625
-86.0595703125
-117.1875
-125.42724609375
-107.11669921875
-110.77880859375
-99.79248046875
-107.11669921875
-126.3427734375
-128.173828125
-127.25830078125
-121.76513671875
-103.45458984375
-101.62353515625
-107.11669921875
-110.77880859375
-114.44091796875
-97.96142578125
-88.80615234375
-103.45458984375
-119.93408203125
-120.849609375
-114.44091796875
-119.0185546875
-114.44091796875
-97.96142578125
-104.3701171875
-117.1875
-120.849609375
-108.0322265625
-94.29931640625
-88.80615234375
-85.14404296875
-95.21484375
-113.525390625
-125.42724609375
-116.27197265625
-111.6943359375
-94.29931640625
-78.7353515625
-69.580078125
-57.67822265625
-60.4248046875
-67.7490234375
-79.65087890625
-71.4111328125
-63.17138671875
-75.0732421875
-72.32666015625
-65.91796875
-55.84716796875
-38.4521484375
-19.22607421875
-25.634765625
-30.21240234375
-16.4794921875
-9.1552734375
-13.73291015625
-28.38134765625
-32.958984375
-32.04345703125
-39.36767578125
-42.1142578125
-42.1142578125
-48.52294921875
-57.67822265625
-78.7353515625
-80.56640625
-78.7353515625
-71.4111328125
-52.18505859375
-46.69189453125
-51.26953125
-64.0869140625
-63.17138671875
-81.48193359375
-94.29931640625
-100.7080078125
-111.6943359375
-105.28564453125
-105.28564453125
-96.13037109375
-97.96142578125
-108.0322265625
-127.25830078125
-132.75146484375
-119.0185546875
-108.0322265625
-99.79248046875
-91.552734375
-115.3564453125
-146.484375
-164.794921875
-142.822265625
-113.525390625
-86.97509765625
-78.7353515625
-83.31298828125
-98.876953125
-112.60986328125
-113.525390625
-97.0458984375
-90.63720703125
-71.4111328125
-46.69189453125
-10.986328125
31.1279296875
77.81982421875
129.08935546875
203.2470703125
318.603515625
444.03076171875
574.03564453125
741.5771484375
942.07763671875
1117.85888671875
1274.4140625
1455.6884765625
1566.46728515625
1593.017578125
1585.693359375
1552.734375
1418.15185546875
1168.212890625
964.05029296875
775.45166015625
557.55615234375
295.71533203125
88.80615234375
14.6484375
-23.8037109375
-45.7763671875
-60.4248046875
-65.00244140625
-63.17138671875
-47.607421875
-39.36767578125
-24.71923828125
-11.90185546875
-12.8173828125
-6.40869140625
-1.8310546875
-7.32421875
-6.40869140625
-2.74658203125
-9.1552734375
-17.39501953125
-26.55029296875
-26.55029296875
-22.88818359375
-26.55029296875
-37.53662109375
-43.02978515625
-43.9453125
-44.86083984375
-37.53662109375
-32.04345703125
-37.53662109375
-41.19873046875
-47.607421875
-60.4248046875
-48.52294921875
-38.4521484375
-50.35400390625
-47.607421875
-37.53662109375
-28.38134765625
-25.634765625
-25.634765625
-10.986328125
-1.8310546875
-3.662109375
-15.56396484375
-31.1279296875
-32.958984375
-18.310546875
-5.4931640625
-2.74658203125
-7.32421875
-11.90185546875
-18.310546875
-11.90185546875
-3.662109375
-5.4931640625
-4.57763671875
1.8310546875
10.07080078125
8.23974609375
-3.662109375
-11.90185546875
-4.57763671875
23.8037109375
30.21240234375
7.32421875
-5.4931640625
-6.40869140625
2.74658203125
3.662109375
16.4794921875
34.7900390625
43.9453125
30.21240234375
17.39501953125
34.7900390625
50.35400390625
55.84716796875
70.49560546875
66.83349609375
50.35400390625
54.01611328125
49.4384765625
44.86083984375
60.4248046875
65.00244140625
79.65087890625
80.56640625
70.49560546875
58.59375
64.0869140625
66.83349609375
71.4111328125
95.21484375
119.0185546875
115.3564453125
106.201171875
93.3837890625
81.48193359375
93.3837890625
108.0322265625
111.6943359375
119.0185546875
131.8359375
138.24462890625
125.42724609375
114.44091796875
118.10302734375
129.08935546875
144.6533203125
139.16015625
132.75146484375
130.0048828125
137.3291015625
145.56884765625
144.6533203125
129.08935546875
125.42724609375
130.0048828125
131.8359375
135.498046875
149.23095703125
157.470703125
157.470703125
143.73779296875
113.525390625
101.62353515625
96.13037109375
86.0595703125
95.21484375
91.552734375
96.13037109375
77.81982421875
53.1005859375
27.4658203125
16.4794921875
10.07080078125
-0.91552734375
-5.4931640625
-16.4794921875
-21.97265625
-30.21240234375
-26.55029296875
-22.88818359375
-50.35400390625
-79.65087890625
-93.3837890625
-104.3701171875
-97.0458984375
-74.15771484375
-57.67822265625
-55.84716796875
-71.4111328125
-83.31298828125
-99.79248046875
-97.0458984375
-95.21484375
-100.7080078125
-108.94775390625
-99.79248046875
-95.21484375
-97.0458984375
-117.1875
-124.51171875
-114.44091796875
-105.28564453125
-99.79248046875
-98.876953125
-119.0185546875
-138.24462890625
-134.58251953125
-122.6806640625
-109.86328125
-93.3837890625
-106.201171875
-100.7080078125
-83.31298828125
-94.29931640625
-106.201171875
-119.0185546875
-131.8359375
-120.849609375
-101.62353515625
-84.228515625
-96.13037109375
-112.60986328125
-126.3427734375
-131.8359375
-109.86328125
-105.28564453125
-105.28564453125
-87.890625
-78.7353515625
-66.83349609375
-61.34033203125
-65.91796875
-86.97509765625
-108.0322265625
-98.876953125
-93.3837890625
-102.5390625
-93.3837890625
-90.63720703125
-97.96142578125
-104.3701171875
-97.0458984375
-95.21484375
-107.11669921875
-131.8359375
-130.92041015625
-98.876953125
-82.3974609375
-93.3837890625
-104.3701171875
-114.44091796875
-119.93408203125
-107.11669921875
-88.80615234375
-80.56640625
-75.0732421875
-81.48193359375
-101.62353515625
-99.79248046875
-110.77880859375
-114.44091796875
-112.60986328125
-105.28564453125
-100.7080078125
-110.77880859375
-123.59619140625
-125.42724609375
-121.76513671875
-114.44091796875
-97.96142578125
-93.3837890625
-90.63720703125
-97.0458984375
-87.890625
-63.17138671875
-76.904296875
-110.77880859375
-127.25830078125
-153.80859375
-148.3154296875
-137.3291015625
-130.92041015625
-130.0048828125
-125.42724609375
-122.6806640625
-118.10302734375
-108.0322265625
-96.13037109375
-113.525390625
-121.76513671875
-139.16015625
-130.92041015625
-130.0048828125
-124.51171875
-120.849609375
-106.201171875
-100.7080078125
-97.96142578125
-97.96142578125
-111.6943359375
-127.25830078125
-139.16015625
-148.3154296875
-161.1328125
-152.89306640625
-121.76513671875
-108.0322265625
-118.10302734375
-117.1875
-119.93408203125
-111.6943359375
-113.525390625
-127.25830078125
-130.0048828125
-120.849609375
-108.94775390625
-106.201171875
-114.44091796875
-131.8359375
-135.498046875
-130.92041015625
-128.173828125
-119.93408203125
-122.6806640625
-127.25830078125
-126.3427734375
-123.59619140625
-115.3564453125
-109.86328125
-103.45458984375
-120.849609375
-136.41357421875
-138.24462890625
-134.58251953125
-131.8359375
-132.75146484375
-120.849609375
-120.849609375
-128.173828125
-136.41357421875
-137.3291015625
-132.75146484375
-127.25830078125
-124.51171875
-142.822265625
-148.3154296875
-143.73779296875
-130.0048828125
-138.24462890625
-150.146484375
-147.39990234375
-130.92041015625
-124.51171875
-119.0185546875
-102.5390625
-101.62353515625
-120.849609375
-138.24462890625
-146.484375
-139.16015625
-128.173828125
-124.51171875
-131.8359375
-131.8359375
-123.59619140625
-120.849609375
-119.0185546875
-118.10302734375
-128.173828125
-133.6669921875
-137.3291015625
-128.173828125
-124.51171875
-131.8359375
-138.24462890625
-134.58251953125
-129.08935546875
-128.173828125
-120.849609375
-101.62353515625
-97.0458984375
-117.1875
-135.498046875
-134.58251953125
-128.173828125
-147.39990234375
-148.3154296875
-142.822265625
-125.42724609375
-110.77880859375
-103.45458984375
-88.80615234375
-86.97509765625
-77.81982421875
-56.7626953125
-51.26953125
-77.81982421875
-88.80615234375
-79.65087890625
-76.904296875
-63.17138671875
-59.50927734375
-57.67822265625
-64.0869140625
-67.7490234375
-56.7626953125
-48.52294921875
-32.958984375
-21.05712890625
-29.296875
-40.283203125
-53.1005859375
-61.34033203125
-64.0869140625
-65.91796875
-69.580078125
-74.15771484375
-75.0732421875
-80.56640625
-77.81982421875
-68.66455078125
-85.14404296875
-95.21484375
-97.96142578125
-94.29931640625
-100.7080078125
-107.11669921875
-107.11669921875
-105.28564453125
-109.86328125
-105.28564453125
-98.876953125
-110.77880859375
-131.8359375
-132.75146484375
-122.6806640625
-108.94775390625
-115.3564453125
-117.1875
-115.3564453125
-129.08935546875
-128.173828125
-113.525390625
-120.849609375
-130.0048828125
-145.56884765625
-138.24462890625
-117.1875
-108.94775390625
-92.46826171875
-90.63720703125
-100.7080078125
-114.44091796875
-119.0185546875
-103.45458984375
-97.96142578125
-76.904296875
-45.7763671875
-15.56396484375
24.71923828125
76.904296875
141.90673828125
228.8818359375
335.99853515625
457.763671875
620.7275390625
817.56591796875
1009.82666015625
1166.3818359375
1321.10595703125
1483.154296875
1572.8759765625
1565.5517578125
1531.67724609375
1464.84375
1245.1171875
1023.5595703125
845.947265625
665.58837890625
424.8046875
160.21728515625
14.6484375
-28.38134765625
-54.931640625
-86.0595703125
-86.0595703125
-72.32666015625
-53.1005859375
-43.02978515625
-27.4658203125
-10.986328125
-19.22607421875
-18.310546875
-17.39501953125
-27.4658203125
-28.38134765625
-26.55029296875
-34.7900390625
-53.1005859375
-58.59375
-54.01611328125
-43.9453125
-46.69189453125
-53.1005859375
-54.01611328125
-57.67822265625
-57.67822265625
-48.52294921875
-33.87451171875
-33.87451171875
-29.296875
-42.1142578125
-65.00244140625
-61.34033203125
-56.7626953125
-57.67822265625
-56.7626953125
-49.4384765625
-44.86083984375
-45.7763671875
-35.70556640625
-30.21240234375
-25.634765625
-31.1279296875
-38.4521484375
-42.1142578125
-43.9453125
-54.931640625
-65.00244140625
-57.67822265625
-38.4521484375
-28.38134765625
-22.88818359375
-16.4794921875
-5.4931640625
-6.40869140625
-9.1552734375
-11.90185546875
-11.90185546875
-4.57763671875
-2.74658203125
-3.662109375
0.91552734375
12.8173828125
25.634765625
16.4794921875
-9.1552734375
-20.1416015625
-30.21240234375
-27.4658203125
-13.73291015625
0.91552734375
10.986328125
20.1416015625
32.958984375
35.70556640625
30.21240234375
25.634765625
31.1279296875
43.02978515625
52.18505859375
53.1005859375
51.26953125
54.01611328125
50.35400390625
44.86083984375
47.607421875
50.35400390625
54.931640625
61.34033203125
70.49560546875
70.49560546875
65.91796875
61.34033203125
65.00244140625
81.48193359375
97.0458984375
100.7080078125
103.45458984375
89.7216796875
93.3837890625
97.0458984375
93.3837890625
95.21484375
106.201171875
117.1875
123.59619140625
118.10302734375
110.77880859375
113.525390625
122.6806640625
140.07568359375
143.73779296875
144.6533203125
151.9775390625
147.39990234375
130.0048828125
117.1875
119.93408203125
124.51171875
132.75146484375
141.90673828125
147.39990234375
141.90673828125
118.10302734375
102.5390625
104.3701171875
99.79248046875
95.21484375
95.21484375
92.46826171875
86.97509765625
86.0595703125
86.97509765625
71.4111328125
50.35400390625
43.02978515625
26.55029296875
14.6484375
15.56396484375
10.986328125
0
-9.1552734375
-20.1416015625
-22.88818359375
-16.4794921875
-21.97265625
-50.35400390625
-72.32666015625
-69.580078125
-65.00244140625
-65.00244140625
-68.66455078125
-51.26953125
-49.4384765625
-68.66455078125
-86.0595703125
-109.86328125
-101.62353515625
-86.0595703125
-96.13037109375
-94.29931640625
-88.80615234375
-86.0595703125
-89.7216796875
-86.97509765625
-88.80615234375
-75.0732421875
-75.98876953125
-85.14404296875
-86.0595703125
-92.46826171875
-86.0595703125
-79.65087890625
-79.65087890625
-82.3974609375
-65.00244140625
-63.17138671875
-89.7216796875
-96.13037109375
-89.7216796875
-75.98876953125
-74.15771484375
-76.904296875
-65.00244140625
-65.00244140625
-78.7353515625
-86.0595703125
-86.0595703125
-76.904296875
-71.4111328125
-65.91796875
-67.7490234375
-65.00244140625
-74.15771484375
-77.81982421875
-72.32666015625
-62.255859375
-54.01611328125
-50.35400390625
-51.26953125
-57.67822265625
-80.56640625
-93.3837890625
-98.876953125
-83.31298828125
-78.7353515625
-72.32666015625
-76.904296875
-82.3974609375
-87.890625
-75.98876953125
-79.65087890625
-64.0869140625
-47.607421875
-44.86083984375
-57.67822265625
-74.15771484375
-86.97509765625
-95.21484375
-99.79248046875
-83.31298828125
-72.32666015625
-63.17138671875
-60.4248046875
-65.91796875
-69.580078125
-69.580078125
-66.83349609375
-74.15771484375
-78.7353515625
-83.31298828125
-87.890625
-78.7353515625
-59.50927734375
-51.26953125
-66.83349609375
-77.81982421875
-94.29931640625
-89.7216796875
-73.2421875
-66.83349609375
-73.2421875
-78.7353515625
-79.65087890625
-86.0595703125
-79.65087890625
-70.49560546875
-55.84716796875
-53.1005859375
-56.7626953125
-62.255859375
-82.3974609375
-111.6943359375
-119.93408203125
-100.7080078125
-97.0458984375
-101.62353515625
-86.97509765625
-69.580078125
-72.32666015625
-96.13037109375
-105.28564453125
-89.7216796875
-72.32666015625
-66.83349609375
-65.91796875
-58.59375
-66.83349609375
-82.3974609375
-90.63720703125
-77.81982421875
-71.4111328125
-74.15771484375
-72.32666015625
-80.56640625
-81.48193359375
-85.14404296875
-86.97509765625
-80.56640625
-75.0732421875
-82.3974609375
-81.48193359375
-80.56640625
-73.2421875
-75.98876953125
-82.3974609375
-81.48193359375
-88.80615234375
-93.3837890625
-91.552734375
-87.890625
-89.7216796875
-86.97509765625
-73.2421875
-67.7490234375
-59.50927734375
-56.7626953125
-68.66455078125
-85.14404296875
-92.46826171875
-107.11669921875
-117.1875
-109.86328125
-98.876953125
-84.228515625
-78.7353515625
-57.67822265625
-63.17138671875
-80.56640625
-95.21484375
-77.81982421875
-75.0732421875
-99.79248046875
-109.86328125
-102.5390625
-86.97509765625
-75.0732421875
-77.81982421875
-71.4111328125
-66.83349609375
-66.83349609375
-63.17138671875
-52.18505859375
-56.7626953125
-65.00244140625
-63.17138671875
-65.91796875
-87.890625
-87.890625
-79.65087890625
-65.00244140625
-74.15771484375
-67.7490234375
-66.83349609375
-74.15771484375
-75.98876953125
-79.65087890625
-89.7216796875
-87.890625
-74.15771484375
-68.66455078125
-75.98876953125
-68.66455078125
-66.83349609375
-66.83349609375
-53.1005859375
-38.4521484375
-43.9453125
-48.52294921875
-39.36767578125
-13.73291015625
-24.71923828125
-21.97265625
-14.6484375
-7.32421875
-4.57763671875
-4.57763671875
13.73291015625
23.8037109375
18.310546875
26.55029296875
33.87451171875
39.36767578125
15.56396484375
-7.32421875
0
5.4931640625
0
14.6484375
16.4794921875
19.22607421875
15.56396484375
-14.6484375
-24.71923828125
-29.296875
-33.87451171875
-51.26953125
-59.50927734375
-43.02978515625
-44.86083984375
-62.255859375
-61.34033203125
-61.34033203125
-66.83349609375
-63.17138671875
-47.607421875
-59.50927734375
-88.80615234375
-99.79248046875
-81.48193359375
-70.49560546875
-78.7353515625
-73.2421875
-69.580078125
-70.49560546875
-74.15771484375
-77.81982421875
-78.7353515625
-66.83349609375
-46.69189453125
-32.958984375
-39.36767578125
-59.50927734375
-61.34033203125
-68.66455078125
-83.31298828125
-105.28564453125
-93.3837890625
-66.83349609375
-36.62109375
-11.90185546875
23.8037109375
59.50927734375
102.5390625
158.38623046875
253.60107421875
377.197265625
501.708984375
639.0380859375
817.56591796875
999.755859375
1149.90234375
1297.30224609375
1470.3369140625
1581.11572265625
1609.4970703125
1610.41259765625
1578.369140625
1414.48974609375
1164.55078125
950.3173828125
763.5498046875
590.51513671875
361.63330078125
214.2333984375
150.146484375
95.21484375
32.04345703125
-32.04345703125
-59.50927734375
-65.00244140625
-38.4521484375
-10.07080078125
18.310546875
41.19873046875
47.607421875
41.19873046875
51.26953125
60.4248046875
34.7900390625
-9.1552734375
-37.53662109375
-28.38134765625
-14.6484375
-10.07080078125
0
-0.91552734375
3.662109375
-1.8310546875
-6.40869140625
0
3.662109375
12.8173828125
11.90185546875
1.8310546875
3.662109375
12.8173828125
8.23974609375
-3.662109375
-12.8173828125
-3.662109375
1.8310546875
7.32421875
20.1416015625
31.1279296875
18.310546875
10.986328125
1.8310546875
0
-0.91552734375
4.57763671875
22.88818359375
12.8173828125
-5.4931640625
-12.8173828125
4.57763671875
24.71923828125
36.62109375
47.607421875
41.19873046875
28.38134765625
29.296875
35.70556640625
40.283203125
53.1005859375
51.26953125
48.52294921875
57.67822265625
63.17138671875
45.7763671875
10.07080078125
-4.57763671875
11.90185546875
42.1142578125
58.59375
61.34033203125
46.69189453125
52.18505859375
62.255859375
75.98876953125
81.48193359375
91.552734375
89.7216796875
74.15771484375
69.580078125
72.32666015625
83.31298828125
95.21484375
103.45458984375
106.201171875
102.5390625
91.552734375
88.80615234375
97.0458984375
118.10302734375
131.8359375
120.849609375
102.5390625
94.29931640625
103.45458984375
114.44091796875
120.849609375
133.6669921875
129.08935546875
122.6806640625
130.0048828125
137.3291015625
141.90673828125
161.1328125
166.6259765625
145.56884765625
140.07568359375
143.73779296875
145.56884765625
138.24462890625
135.498046875
144.6533203125
155.6396484375
157.470703125
141.90673828125
141.90673828125
150.146484375
154.72412109375
156.55517578125
178.52783203125
195.00732421875
172.119140625
144.6533203125
132.75146484375
122.6806640625
114.44091796875
116.27197265625
120.849609375
124.51171875
126.3427734375
117.1875
109.86328125
105.28564453125
99.79248046875
84.228515625
66.83349609375
58.59375
43.02978515625
34.7900390625
21.97265625
21.97265625
14.6484375
-5.4931640625
-18.310546875
-7.32421875
5.4931640625
-8.23974609375
-21.05712890625
-40.283203125
-58.59375
-57.67822265625
-46.69189453125
-42.1142578125
-44.86083984375
-55.84716796875
-51.26953125
-49.4384765625
-53.1005859375
-43.9453125
-46.69189453125
-61.34033203125
-59.50927734375
-42.1142578125
-44.86083984375
-59.50927734375
-66.83349609375
-57.67822265625
-44.86083984375
-33.87451171875
-42.1142578125
-56.7626953125
-60.4248046875
-59.50927734375
-64.0869140625
-68.66455078125
-70.49560546875
-68.66455078125
-56.7626953125
-41.19873046875
-38.4521484375
-45.7763671875
-48.52294921875
-50.35400390625
-58.59375
-72.32666015625
-67.7490234375
-49.4384765625
-43.02978515625
-52.18505859375
-66.83349609375
-54.01611328125
-50.35400390625
-59.50927734375
-66.83349609375
-44.86083984375
-32.04345703125
-40.283203125
-54.931640625
-64.0869140625
-61.34033203125
-44.86083984375
-44.86083984375
-56.7626953125
-53.1005859375
-54.931640625
-44.86083984375
-32.04345703125
-39.36767578125
-61.34033203125
-61.34033203125
-57.67822265625
-60.4248046875
-58.59375
-57.67822265625
-47.607421875
-28.38134765625
-44.86083984375
-55.84716796875
-49.4384765625
-51.26953125
-56.7626953125
-73.2421875
-77.81982421875
-54.931640625
-60.4248046875
-78.7353515625
-85.14404296875
-75.0732421875
-55.84716796875
-54.931640625
-64.0869140625
-71.4111328125
-60.4248046875
-54.931640625
-64.0869140625
-70.49560546875
-75.0732421875
-69.580078125
-61.34033203125
-51.26953125
-64.0869140625
-75.98876953125
-78.7353515625
-76.904296875
-65.00244140625
-62.255859375
-78.7353515625
-94.29931640625
-91.552734375
-80.56640625
-76.904296875
-79.65087890625
-75.0732421875
-65.00244140625
-61.34033203125
-73.2421875
-78.7353515625
-76.904296875
-65.91796875
-62.255859375
-87.890625
-118.10302734375
-136.41357421875
-119.93408203125
-95.21484375
-82.3974609375
-65.00244140625
-58.59375
-74.15771484375
-93.3837890625
-112.60986328125
-115.3564453125
-97.0458984375
-87.890625
-77.81982421875
-65.91796875
-69.580078125
-74.15771484375
-75.0732421875
-71.4111328125
-79.65087890625
-92.46826171875
-97.0458984375
-84.228515625
-68.66455078125
-61.34033203125
-72.32666015625
-96.13037109375
-108.0322265625
-115.3564453125
-95.21484375
-88.80615234375
-85.14404296875
-85.14404296875
-86.97509765625
-96.13037109375
-101.62353515625
-93.3837890625
-83.31298828125
-81.48193359375
-80.56640625
-85.14404296875
-89.7216796875
-86.0595703125
-88.80615234375
-94.29931640625
-105.28564453125
-103.45458984375
-83.31298828125
-68.66455078125
-68.66455078125
-89.7216796875
-127.25830078125
-130.0048828125
-123.59619140625
-104.3701171875
-93.3837890625
-96.13037109375
-95.21484375
-85.14404296875
-81.48193359375
-72.32666015625
-67.7490234375
-63.17138671875
-80.56640625
-92.46826171875
-86.0595703125
-87.890625
-96.13037109375
-91.552734375
-91.552734375
-99.79248046875
-96.13037109375
-88.80615234375
-78.7353515625
-72.32666015625
-83.31298828125
-92.46826171875
-87.890625
-82.3974609375
-65.91796875
-45.7763671875
-35.70556640625
-48.52294921875
-56.7626953125
-54.931640625
-43.02978515625
-26.55029296875
-15.56396484375
-24.71923828125
-36.62109375
-44.86083984375
-27.4658203125
-16.4794921875
-9.1552734375
4.57763671875
21.05712890625
4.57763671875
-12.8173828125
-15.56396484375
-21.05712890625
-17.39501953125
-18.310546875
-32.958984375
-54.01611328125
-51.26953125
-45.7763671875
-58.59375
-57.67822265625
-58.59375
-62.255859375
-58.59375
-47.607421875
-39.36767578125
-61.34033203125
-77.81982421875
-86.0595703125
-92.46826171875
-94.29931640625
-98.876953125
-94.29931640625
-75.98876953125
-55.84716796875
-64.0869140625
-82.3974609375
-97.96142578125
-107.11669921875
-96.13037109375
-85.14404296875
-83.31298828125
-81.48193359375
-86.97509765625
-97.96142578125
-94.29931640625
-94.29931640625
-103.45458984375
-104.3701171875
-95.21484375
-86.0595703125
-79.65087890625
-97.0458984375
-103.45458984375
-98.876953125
-86.0595703125
-74.15771484375
-43.02978515625
-4.57763671875
31.1279296875
71.4111328125
105.28564453125
198.66943359375
336.9140625
470.5810546875
618.896484375
801.08642578125
990.6005859375
1147.15576171875
1316.5283203125
1491.39404296875
1582.94677734375
1588.43994140625
1568.29833984375
1534.423828125
1381.53076171875
1136.16943359375
946.6552734375
768.12744140625
530.09033203125
239.8681640625
44.86083984375
-0.91552734375
-13.73291015625
-24.71923828125
-41.19873046875
-45.7763671875
-22.88818359375
-14.6484375
-6.40869140625
11.90185546875
24.71923828125
21.97265625
5.4931640625
-3.662109375
-9.1552734375
-21.05712890625
-22.88818359375
-14.6484375
-16.4794921875
3.662109375
13.73291015625
-0.91552734375
-15.56396484375
-34.7900390625
-42.1142578125
-38.4521484375
-51.26953125
-56.7626953125
-54.931640625
-47.607421875
-32.958984375
-16.4794921875
-11.90185546875
-14.6484375
-20.1416015625
-15.56396484375
-0.91552734375
0.91552734375
-7.32421875
-26.55029296875
-35.70556640625
-48.52294921875
-39.36767578125
-30.21240234375
-26.55029296875
-19.22607421875
-11.90185546875
-2.74658203125
-4.57763671875
-10.07080078125
-17.39501953125
-10.07080078125
-3.662109375
-5.4931640625
10.986328125
21.97265625
26.55029296875
21.05712890625
15.56396484375
20.1416015625
32.958984375
39.36767578125
43.9453125
43.02978515625
14.6484375
-25.634765625
-31.1279296875
-2.74658203125
29.296875
54.931640625
62.255859375
54.931640625
40.283203125
42.1142578125
46.69189453125
38.4521484375
60.4248046875
74.15771484375
71.4111328125
60.4248046875
46.69189453125
57.67822265625
64.0869140625
75.98876953125
70.49560546875
75.98876953125
79.65087890625
90.63720703125
90.63720703125
100.7080078125
101.62353515625
86.0595703125
71.4111328125
82.3974609375
81.48193359375
92.46826171875
96.13037109375
98.876953125
105.28564453125
105.28564453125
108.0322265625
120.849609375
132.75146484375
141.90673828125
137.3291015625
127.25830078125
117.1875
103.45458984375
111.6943359375
119.0185546875
121.76513671875
130.92041015625
134.58251953125
143.73779296875
140.9912109375
127.25830078125
121.76513671875
127.25830078125
142.822265625
151.06201171875
153.80859375
156.55517578125
149.23095703125
149.23095703125
149.23095703125
147.39990234375
136.41357421875
120.849609375
99.79248046875
82.3974609375
75.0732421875
72.32666015625
65.91796875
65.91796875
61.34033203125
61.34033203125
57.67822265625
38.4521484375
15.56396484375
8.23974609375
7.32421875
14.6484375
10.986328125
-1.8310546875
-22.88818359375
-46.69189453125
-73.2421875
-81.48193359375
-75.0732421875
-56.7626953125
-53.1005859375
-49.4384765625
-46.69189453125
-54.01611328125
-64.0869140625
-83.31298828125
-94.29931640625
-86.0595703125
-71.4111328125
-75.98876953125
-97.0458984375
-97.96142578125
-95.21484375
-88.80615234375
-74.15771484375
-75.0732421875
-80.56640625
-86.97509765625
-88.80615234375
-77.81982421875
-76.904296875
-75.0732421875
-81.48193359375
-83.31298828125
-75.98876953125
-66.83349609375
-75.98876953125
-92.46826171875
-102.5390625
-103.45458984375
-98.876953125
-97.0458984375
-95.21484375
-84.228515625
-80.56640625
-89.7216796875
-90.63720703125
-86.97509765625
-82.3974609375
-79.65087890625
-75.0732421875
-54.931640625
-64.0869140625
-85.14404296875
-93.3837890625
-91.552734375
-87.890625
-99.79248046875
-96.13037109375
-76.904296875
-69.580078125
-74.15771484375
-80.56640625
-87.890625
-87.890625
-99.79248046875
-93.3837890625
-85.14404296875
-87.890625
-85.14404296875
-72.32666015625
-58.59375
-57.67822265625
-55.84716796875
-50.35400390625
-46.69189453125
-51.26953125
-75.0732421875
-96.13037109375
-117.1875
-116.27197265625
-103.45458984375
-102.5390625
-97.96142578125
-83.31298828125
-83.31298828125
-75.0732421875
-62.255859375
-69.580078125
-97.96142578125
-116.27197265625
-110.77880859375
-107.11669921875
-104.3701171875
-91.552734375
-74.15771484375
-71.4111328125
-83.31298828125
-89.7216796875
-85.14404296875
-78.7353515625
-82.3974609375
-94.29931640625
-113.525390625
-123.59619140625
-112.60986328125
-95.21484375
-94.29931640625
-100.7080078125
-99.79248046875
-102.5390625
-107.11669921875
-114.44091796875
-110.77880859375
-101.62353515625
-108.0322265625
-127.25830078125
-130.92041015625
-124.51171875
-112.60986328125
-102.5390625
-94.29931640625
-85.14404296875
-89.7216796875
-97.96142578125
-108.0322265625
-113.525390625
-126.3427734375
-121.76513671875
-105.28564453125
-100.7080078125
-103.45458984375
-102.5390625
-102.5390625
-97.96142578125
-104.3701171875
-110.77880859375
-110.77880859375
-111.6943359375
-104.3701171875
-102.5390625
-104.3701171875
-98.876953125
-95.21484375
-96.13037109375
-111.6943359375
-130.92041015625
-140.07568359375
-129.08935546875
-99.79248046875
-85.14404296875
-82.3974609375
-90.63720703125
-113.525390625
-123.59619140625
-118.10302734375
-122.6806640625
-115.3564453125
-97.96142578125
-104.3701171875
-103.45458984375
-102.5390625
-96.13037109375
-100.7080078125
-121.76513671875
-125.42724609375
-120.849609375
-118.10302734375
-101.62353515625
-89.7216796875
-100.7080078125
-116.27197265625
-118.10302734375
-120.849609375
-120.849609375
-112.60986328125
-109.86328125
-109.86328125
-108.0322265625
-112.60986328125
-100.7080078125
-92.46826171875
-104.3701171875
-119.0185546875
-126.3427734375
-130.0048828125
-119.0185546875
-116.27197265625
-112.60986328125
-108.0322265625
-89.7216796875
-97.0458984375
-109.86328125
-100.7080078125
-82.3974609375
-92.46826171875
-100.7080078125
-118.10302734375
-116.27197265625
-112.60986328125
-109.86328125
-103.45458984375
-82.3974609375
-69.580078125
-65.91796875
-65.00244140625
-53.1005859375
-49.4384765625
-45.7763671875
-52.18505859375
-62.255859375
-59.50927734375
-46.69189453125
-50.35400390625
-34.7900390625
-13.73291015625
0
1.8310546875
0
-21.05712890625
-27.4658203125
-26.55029296875
-29.296875
-32.958984375
-31.1279296875
-42.1142578125
-54.01611328125
-60.4248046875
-61.34033203125
-60.4248046875
-54.931640625
-62.255859375
-86.97509765625
-87.890625
-77.81982421875
-68.66455078125
-67.7490234375
-64.0869140625
-71.4111328125
-88.80615234375
-102.5390625
-109.86328125
-110.77880859375
-128.173828125
-140.9912109375
-139.16015625
-135.498046875
-110.77880859375
-94.29931640625
-93.3837890625
-92.46826171875
-97.96142578125
-103.45458984375
-100.7080078125
-110.77880859375
-119.0185546875
-108.0322265625
-97.0458984375
-96.13037109375
-99.79248046875
-93.3837890625
-100.7080078125
-112.60986328125
-115.3564453125
-100.7080078125
-81.48193359375
-62.255859375
-22.88818359375
12.8173828125
47.607421875
99.79248046875
163.87939453125
283.8134765625
398.25439453125
501.708984375
644.53125
841.36962890625
1026.30615234375
1176.45263671875
1348.57177734375
1511.53564453125
1581.11572265625
1591.1865234375
1584.77783203125
1512.451171875
1256.103515625
1003.41796875
814.8193359375
634.46044921875
407.40966796875
155.6396484375
37.53662109375
11.90185546875
-12.8173828125
-55.84716796875
-81.48193359375
-76.904296875
-46.69189453125
-22.88818359375
2.74658203125
18.310546875
25.634765625
24.71923828125
12.8173828125
10.986328125
9.1552734375
3.662109375
-7.32421875
-15.56396484375
-15.56396484375
-15.56396484375
-27.4658203125
-33.87451171875
-37.53662109375
-29.296875
-21.97265625
-10.986328125
-19.22607421875
-43.02978515625
-44.86083984375
-41.19873046875
-39.36767578125
-22.88818359375
-3.662109375
-15.56396484375
-21.05712890625
-13.73291015625
-5.4931640625
-11.90185546875
-9.1552734375
-8.23974609375
-16.4794921875
-18.310546875
-28.38134765625
-32.958984375
-31.1279296875
-29.296875
-12.8173828125
3.662109375
21.97265625
18.310546875
6.40869140625
-11.90185546875
-5.4931640625
-4.57763671875
-0.91552734375
10.986328125
17.39501953125
11.90185546875
19.22607421875
21.97265625
21.05712890625
20.1416015625
28.38134765625
16.4794921875
14.6484375
21.05712890625
32.958984375
38.4521484375
45.7763671875
42.1142578125
45.7763671875
40.283203125
33.87451171875
52.18505859375
65.91796875
67.7490234375
58.59375
58.59375
65.00244140625
72.32666015625
75.98876953125
89.7216796875
100.7080078125
86.97509765625
68.66455078125
54.01611328125
54.01611328125
67.7490234375
86.97509765625
105.28564453125
108.94775390625
103.45458984375
102.5390625
107.11669921875
111.6943359375
110.77880859375
112.60986328125
118.10302734375
114.44091796875
117.1875
116.27197265625
134.58251953125
138.24462890625
133.6669921875
125.42724609375
123.59619140625
125.42724609375
133.6669921875
143.73779296875
155.6396484375
161.1328125
160.21728515625
149.23095703125
151.06201171875
140.07568359375
125.42724609375
119.0185546875
133.6669921875
148.3154296875
157.470703125
173.03466796875
169.37255859375
155.6396484375
159.3017578125
154.72412109375
139.16015625
139.16015625
117.1875
105.28564453125
100.7080078125
105.28564453125
105.28564453125
108.94775390625
103.45458984375
85.14404296875
74.15771484375
63.17138671875
63.17138671875
67.7490234375
57.67822265625
33.87451171875
10.986328125
-1.8310546875
-18.310546875
-21.05712890625
-33.87451171875
-34.7900390625
-38.4521484375
-33.87451171875
-31.1279296875
-31.1279296875
-33.87451171875
-27.4658203125
-13.73291015625
-18.310546875
-32.04345703125
-58.59375
-75.98876953125
-72.32666015625
-62.255859375
-43.9453125
-49.4384765625
-65.00244140625
-63.17138671875
-61.34033203125
-54.931640625
-65.00244140625
-61.34033203125
-50.35400390625
-37.53662109375
-47.607421875
-53.1005859375
-54.931640625
-50.35400390625
-54.931640625
-43.9453125
-30.21240234375
-38.4521484375
-61.34033203125
-65.91796875
-54.931640625
-50.35400390625
-35.70556640625
-32.04345703125
-25.634765625
-37.53662109375
-42.1142578125
-58.59375
-57.67822265625
-43.9453125
-32.958984375
-40.283203125
-45.7763671875
-38.4521484375
-44.86083984375
-51.26953125
-54.931640625
-47.607421875
-51.26953125
-50.35400390625
-48.52294921875
-51.26953125
-53.1005859375
-53.1005859375
-50.35400390625
-43.9453125
-43.9453125
-47.607421875
-32.04345703125
-27.4658203125
-41.19873046875
-62.255859375
-69.580078125
-72.32666015625
-60.4248046875
-51.26953125
-38.4521484375
-33.87451171875
-32.958984375
-34.7900390625
-42.1142578125
-43.9453125
-49.4384765625
-47.607421875
-41.19873046875
-46.69189453125
-43.02978515625
-35.70556640625
-36.62109375
-28.38134765625
-37.53662109375
-62.255859375
-64.0869140625
-64.0869140625
-70.49560546875
-71.4111328125
-83.31298828125
-67.7490234375
-51.26953125
-45.7763671875
-54.01611328125
-51.26953125
-57.67822265625
-55.84716796875
-52.18505859375
-54.01611328125
-67.7490234375
-61.34033203125
-60.4248046875
-61.34033203125
-61.34033203125
-56.7626953125
-44.86083984375
-47.607421875
-59.50927734375
-64.0869140625
-66.83349609375
-78.7353515625
-84.228515625
-80.56640625
-68.66455078125
-77.81982421875
-89.7216796875
-80.56640625
-77.81982421875
-73.2421875
-70.49560546875
-59.50927734375
-63.17138671875
-54.01611328125
-59.50927734375
-67.7490234375
-65.00244140625
-65.91796875
-72.32666015625
-73.2421875
-72.32666015625
-69.580078125
-63.17138671875
-52.18505859375
-45.7763671875
-43.02978515625
-71.4111328125
-96.13037109375
-93.3837890625
-74.15771484375
-66.83349609375
-75.0732421875
-81.48193359375
-85.14404296875
-85.14404296875
-73.2421875
-68.66455078125
-66.83349609375
-71.4111328125
-65.91796875
-65.00244140625
-69.580078125
-61.34033203125
-49.4384765625
-48.52294921875
-75.98876953125
-81.48193359375
-64.0869140625
-71.4111328125
-70.49560546875
-61.34033203125
-66.83349609375
-67.7490234375
-65.00244140625
-64.0869140625
-57.67822265625
-67.7490234375
-66.83349609375
-65.00244140625
-64.0869140625
-61.34033203125
-46.69189453125
-43.9453125
-39.36767578125
-35.70556640625
-44.86083984375
-51.26953125
-45.7763671875
-44.86083984375
-33.87451171875
-21.97265625
-25.634765625
-21.97265625
-9.1552734375
10.07080078125
-1.8310546875
-9.1552734375
-1.8310546875
10.07080078125
20.1416015625
28.38134765625
8.23974609375
7.32421875
20.1416015625
21.05712890625
12.8173828125
10.07080078125
9.1552734375
-24.71923828125
-49.4384765625
-52.18505859375
-47.607421875
-40.283203125
-34.7900390625
-28.38134765625
-28.38134765625
-40.283203125
-57.67822265625
-67.7490234375
-54.01611328125
-62.255859375
-66.83349609375
-65.00244140625
-64.0869140625
-61.34033203125
-60.4248046875
-51.26953125
-46.69189453125
-54.01611328125
-71.4111328125
-81.48193359375
-85.14404296875
-66.83349609375
-56.7626953125
-62.255859375
-65.00244140625
-69.580078125
-59.50927734375
-67.7490234375
-77.81982421875
-66.83349609375
-64.0869140625
-51.26953125
-40.283203125
-47.607421875
-48.52294921875
-40.283203125
-38.4521484375
-31.1279296875
0.91552734375
41.19873046875
87.890625
142.822265625
216.97998046875
330.50537109375
440.36865234375
560.302734375
715.02685546875
892.63916015625
1054.6875
1188.3544921875
1366.88232421875
1532.5927734375
1603.08837890625
1599.42626953125
1593.017578125
1522.52197265625
1290.8935546875
1050.10986328125
849.609375
665.58837890625
462.34130859375
261.8408203125
178.52783203125
140.07568359375
81.48193359375
9.1552734375
-47.607421875
-82.3974609375
-83.31298828125
-53.1005859375
-13.73291015625
20.1416015625
54.01611328125
59.50927734375
34.7900390625
19.22607421875
10.986328125
8.23974609375
3.662109375
0.91552734375
-4.57763671875
-0.91552734375
3.662109375
3.662109375
-1.8310546875
12.8173828125
17.39501953125
7.32421875
-8.23974609375
-14.6484375
-22.88818359375
-10.986328125
-9.1552734375
-9.1552734375
0.91552734375
3.662109375
-2.74658203125
-6.40869140625
-17.39501953125
-14.6484375
-4.57763671875
7.32421875
17.39501953125
17.39501953125
11.90185546875
11.90185546875
12.8173828125
18.310546875
18.310546875
6.40869140625
4.57763671875
13.73291015625
29.296875
28.38134765625
23.8037109375
19.22607421875
28.38134765625
38.4521484375
39.36767578125
40.283203125
44.86083984375
40.283203125
36.62109375
54.01611328125
72.32666015625
71.4111328125
62.255859375
49.4384765625
41.19873046875
40.283203125
55.84716796875
63.17138671875
55.84716796875
42.1142578125
37.53662109375
52.18505859375
56.7626953125
84.228515625
89.7216796875
86.97509765625
74.15771484375
74.15771484375
85.14404296875
82.3974609375
65.91796875
70.49560546875
95.21484375
98.876953125
96.13037109375
88.80615234375
89.7216796875
101.62353515625
108.94775390625
104.3701171875
103.45458984375
111.6943359375
127.25830078125
130.92041015625
134.58251953125
135.498046875
131.8359375
136.41357421875
145.56884765625
135.498046875
125.42724609375
124.51171875
132.75146484375
140.07568359375
137.3291015625
140.07568359375
144.6533203125
143.73779296875
140.07568359375
133.6669921875
140.9912109375
141.90673828125
139.16015625
130.0048828125
130.0048828125
140.07568359375
134.58251953125
121.76513671875
117.1875
126.3427734375
130.0048828125
124.51171875
117.1875
132.75146484375
136.41357421875
134.58251953125
137.3291015625
127.25830078125
117.1875
91.552734375
70.49560546875
64.0869140625
56.7626953125
57.67822265625
43.02978515625
23.8037109375
13.73291015625
7.32421875
10.07080078125
18.310546875
19.22607421875
6.40869140625
-24.71923828125
-32.04345703125
-30.21240234375
-26.55029296875
-23.8037109375
-37.53662109375
-39.36767578125
-51.26953125
-67.7490234375
-59.50927734375
-52.18505859375
-43.9453125
-32.958984375
-39.36767578125
-46.69189453125
-48.52294921875
-60.4248046875
-54.01611328125
-64.0869140625
-80.56640625
-91.552734375
-86.0595703125
-62.255859375
-52.18505859375
-43.9453125
-42.1142578125
-41.19873046875
-45.7763671875
-56.7626953125
-63.17138671875
-50.35400390625
-42.1142578125
-50.35400390625
-54.931640625
-56.7626953125
-56.7626953125
-54.01611328125
-44.86083984375
-42.1142578125
-45.7763671875
-49.4384765625
-55.84716796875
-54.01611328125
-49.4384765625
-51.26953125
-51.26953125
-63.17138671875
-70.49560546875
-75.0732421875
-76.904296875
-75.98876953125
-65.91796875
-63.17138671875
-58.59375
-51.26953125
-49.4384765625
-43.9453125
-53.1005859375
-59.50927734375
-55.84716796875
-44.86083984375
-43.02978515625
-41.19873046875
-59.50927734375
-68.66455078125
-52.18505859375
-47.607421875
-64.0869140625
-71.4111328125
-64.0869140625
-54.931640625
-35.70556640625
-32.958984375
-54.01611328125
-78.7353515625
-82.3974609375
-74.15771484375
-65.00244140625
-65.00244140625
-46.69189453125
-38.4521484375
-45.7763671875
-52.18505859375
-69.580078125
-89.7216796875
-96.13037109375
-87.890625
-75.98876953125
-65.91796875
-74.15771484375
-77.81982421875
-80.56640625
-69.580078125
-66.83349609375
-71.4111328125
-72.32666015625
-70.49560546875
-74.15771484375
-73.2421875
-66.83349609375
-67.7490234375
-72.32666015625
-80.56640625
-92.46826171875
-99.79248046875
-82.3974609375
-65.91796875
-69.580078125
-89.7216796875
-113.525390625
-112.60986328125
-102.5390625
-93.3837890625
-93.3837890625
-75.98876953125
-70.49560546875
-82.3974609375
-86.97509765625
-96.13037109375
-95.21484375
-87.890625
-77.81982421875
-73.2421875
-76.904296875
-80.56640625
-90.63720703125
-106.201171875
-101.62353515625
-102.5390625
-102.5390625
-92.46826171875
-71.4111328125
-72.32666015625
-75.0732421875
-76.904296875
-62.255859375
-60.4248046875
-67.7490234375
-86.97509765625
-109.86328125
-117.1875
-106.201171875
-97.0458984375
-98.876953125
-96.13037109375
-98.876953125
-99.79248046875
-101.62353515625
-107.11669921875
-104.3701171875
-96.13037109375
-86.97509765625
-89.7216796875
-96.13037109375
-95.21484375
-86.0595703125
-89.7216796875
-108.0322265625
-114.44091796875
-108.94775390625
-100.7080078125
-100.7080078125
-93.3837890625
-82.3974609375
-86.0595703125
-100.7080078125
-98.876953125
-95.21484375
-91.552734375
-84.228515625
-86.0595703125
-84.228515625
-90.63720703125
-87.890625
-83.31298828125
-75.98876953125
-69.580078125
-71.4111328125
-69.580078125
-86.97509765625
-108.94775390625
-108.94775390625
-92.46826171875
-80.56640625
-54.01611328125
-36.62109375
-40.283203125
-38.4521484375
-48.52294921875
-53.1005859375
-49.4384765625
-53.1005859375
-54.01611328125
-43.9453125
-29.296875
-25.634765625
-23.8037109375
-21.97265625
-16.4794921875
-10.07080078125
-12.8173828125
-15.56396484375
-25.634765625
-38.4521484375
-47.607421875
-44.86083984375
-41.19873046875
-32.958984375
-38.4521484375
-52.18505859375
-60.4248046875
-58.59375
-67.7490234375
-61.34033203125
-60.4248046875
-65.00244140625
-72.32666015625
-70.49560546875
-68.66455078125
-93.3837890625
-104.3701171875
-109.86328125
-98.876953125
-94.29931640625
-103.45458984375
-99.79248046875
-101.62353515625
-87.890625
-78.7353515625
-81.48193359375
-86.0595703125
-108.0322265625
-116.27197265625
-108.0322265625
-96.13037109375
-81.48193359375
-72.32666015625
-81.48193359375
-106.201171875
-115.3564453125
-101.62353515625
-86.0595703125
-89.7216796875
-105.28564453125
-108.94775390625
-96.13037109375
-88.80615234375
-74.15771484375
-43.02978515625
-7.32421875
50.35400390625
108.94775390625
170.2880859375
277.40478515625
398.25439453125
545.654296875
733.33740234375
935.6689453125
1109.619140625
1265.2587890625
1441.0400390625
1571.044921875
1590.27099609375
1580.2001953125
1554.5654296875
1449.27978515625
1194.76318359375
970.458984375
786.43798828125
575.86669921875
313.1103515625
97.0458984375
18.310546875
-12.8173828125
-55.84716796875
-74.15771484375
-78.7353515625
-52.18505859375
-21.97265625
-7.32421875
2.74658203125
1.8310546875
0.91552734375
-4.57763671875
2.74658203125
21.05712890625
19.22607421875
8.23974609375
-6.40869140625
-15.56396484375
-25.634765625
-24.71923828125
-26.55029296875
-32.04345703125
-17.39501953125
-11.90185546875
-19.22607421875
-34.7900390625
-52.18505859375
-57.67822265625
-63.17138671875
-65.00244140625
-64.0869140625
-49.4384765625
-32.04345703125
-22.88818359375
-6.40869140625
1.8310546875
-1.8310546875
-8.23974609375
-26.55029296875
-26.55029296875
-27.4658203125
-36.62109375
-36.62109375
-26.55029296875
-15.56396484375
-4.57763671875
8.23974609375
-6.40869140625
-27.4658203125
-21.97265625
-13.73291015625
-10.986328125
-5.4931640625
-5.4931640625
-1.8310546875
17.39501953125
21.97265625
27.4658203125
10.986328125
-1.8310546875
3.662109375
6.40869140625
10.07080078125
21.05712890625
35.70556640625
43.02978515625
27.4658203125
19.22607421875
21.97265625
21.05712890625
19.22607421875
41.19873046875
38.4521484375
33.87451171875
26.55029296875
21.97265625
41.19873046875
49.4384765625
49.4384765625
54.931640625
61.34033203125
56.7626953125
61.34033203125
66.83349609375
75.0732421875
91.552734375
101.62353515625
86.97509765625
70.49560546875
78.7353515625
88.80615234375
91.552734375
86.0595703125
82.3974609375
96.13037109375
114.44091796875
117.1875
108.94775390625
94.29931640625
109.86328125
129.08935546875
137.3291015625
128.173828125
119.93408203125
131.8359375
139.16015625
128.173828125
114.44091796875
111.6943359375
137.3291015625
145.56884765625
144.6533203125
140.07568359375
137.3291015625
137.3291015625
136.41357421875
130.92041015625
140.07568359375
153.80859375
140.9912109375
140.07568359375
142.822265625
149.23095703125
151.06201171875
130.0048828125
117.1875
125.42724609375
126.3427734375
112.60986328125
100.7080078125
95.21484375
75.98876953125
58.59375
54.931640625
55.84716796875
46.69189453125
31.1279296875
25.634765625
7.32421875
-9.1552734375
-15.56396484375
-23.8037109375
-28.38134765625
-24.71923828125
-34.7900390625
-34.7900390625
-43.9453125
-54.01611328125
-55.84716796875
-54.01611328125
-58.59375
-57.67822265625
-59.50927734375
-74.15771484375
-97.96142578125
-114.44091796875
-103.45458984375
-92.46826171875
-81.48193359375
-69.580078125
-72.32666015625
-77.81982421875
-69.580078125
-62.255859375
-70.49560546875
-73.2421875
-75.0732421875
-82.3974609375
-86.97509765625
-79.65087890625
-72.32666015625
-69.580078125
-51.26953125
-40.283203125
-54.01611328125
-79.65087890625
-105.28564453125
-99.79248046875
-90.63720703125
-75.98876953125
-82.3974609375
-74.15771484375
-63.17138671875
-65.00244140625
-63.17138671875
-73.2421875
-80.56640625
-93.3837890625
-93.3837890625
-75.98876953125
-67.7490234375
-64.0869140625
-76.904296875
-66.83349609375
-58.59375
-83.31298828125
-92.46826171875
-90.63720703125
-83.31298828125
-78.7353515625
-87.890625
-87.890625
-78.7353515625
-64.0869140625
-51.26953125
-54.931640625
-68.66455078125
-74.15771484375
-71.4111328125
-70.49560546875
-75.98876953125
-87.890625
-86.97509765625
-89.7216796875
-71.4111328125
-53.1005859375
-48.52294921875
-83.31298828125
-96.13037109375
-81.48193359375
-74.15771484375
-75.0732421875
-73.2421875
-65.00244140625
-66.83349609375
-64.0869140625
-71.4111328125
-85.14404296875
-86.97509765625
-90.63720703125
-86.97509765625
-82.3974609375
-89.7216796875
-88.80615234375
-84.228515625
-92.46826171875
-88.80615234375
-87.890625
-90.63720703125
-92.46826171875
-89.7216796875
-84.228515625
-83.31298828125
-93.3837890625
-97.96142578125
-93.3837890625
-90.63720703125
-95.21484375
-92.46826171875
-87.890625
-95.21484375
-85.14404296875
-85.14404296875
-92.46826171875
-97.96142578125
-98.876953125
-97.0458984375
-97.0458984375
-98.876953125
-95.21484375
-102.5390625
-109.86328125
-102.5390625
-100.7080078125
-86.97509765625
-86.0595703125
-87.890625
-93.3837890625
-94.29931640625
-93.3837890625
-98.876953125
-114.44091796875
-103.45458984375
-90.63720703125
-97.96142578125
-108.94775390625
-120.849609375
-118.10302734375
-109.86328125
-107.11669921875
-94.29931640625
-89.7216796875
-100.7080078125
-102.5390625
-97.0458984375
-89.7216796875
-85.14404296875
-79.65087890625
-67.7490234375
-75.98876953125
-107.11669921875
-118.10302734375
-138.24462890625
-128.173828125
-86.97509765625
-89.7216796875
-104.3701171875
-127.25830078125
-116.27197265625
-99.79248046875
-103.45458984375
-96.13037109375
-90.63720703125
-83.31298828125
-89.7216796875
-91.552734375
-101.62353515625
-101.62353515625
-96.13037109375
-89.7216796875
-92.46826171875
-95.21484375
-86.0595703125
-95.21484375
-97.0458984375
-106.201171875
-102.5390625
-87.890625
-80.56640625
-73.2421875
-75.0732421875
-81.48193359375
-90.63720703125
-91.552734375
-77.81982421875
-67.7490234375
-56.7626953125
-48.52294921875
-43.9453125
-46.69189453125
-57.67822265625
-56.7626953125
-44.86083984375
-35.70556640625
-33.87451171875
-30.21240234375
-22.88818359375
-21.05712890625
-20.1416015625
-16.4794921875
-7.32421875
1.8310546875
-11.90185546875
-10.986328125
-27.4658203125
-46.69189453125
-49.4384765625
-45.7763671875
-54.931640625
-44.86083984375
-39.36767578125
-52.18505859375
-60.4248046875
-64.0869140625
-56.7626953125
-45.7763671875
-42.1142578125
-50.35400390625
-57.67822265625
-54.01611328125
-69.580078125
-68.66455078125
-74.15771484375
-81.48193359375
-79.65087890625
-90.63720703125
-86.97509765625
-82.3974609375
-94.29931640625
-104.3701171875
-104.3701171875
-99.79248046875
-93.3837890625
-97.96142578125
-90.63720703125
-78.7353515625
-81.48193359375
-88.80615234375
-83.31298828125
-77.81982421875
-95.21484375
-101.62353515625
-91.552734375
-83.31298828125
-82.3974609375
-88.80615234375
-94.29931640625
-111.6943359375
-107.11669921875
-78.7353515625
-39.36767578125
0.91552734375
31.1279296875
90.63720703125
163.87939453125
276.4892578125
399.169921875
531.005859375
703.125
889.892578125
1054.6875
1186.5234375
1344.90966796875
1495.05615234375
1574.70703125
1590.27099609375
1579.28466796875
1487.73193359375
1225.89111328125
993.34716796875
820.3125
639.95361328125
403.74755859375
179.443359375
81.48193359375
54.01611328125
13.73291015625
-35.70556640625
-68.66455078125
-75.0732421875
-46.69189453125
-14.6484375
14.6484375
40.283203125
28.38134765625
0.91552734375
-0.91552734375
4.57763671875
10.986328125
5.4931640625
6.40869140625
7.32421875
-0.91552734375
-10.07080078125
-7.32421875
-18.310546875
-21.05712890625
-11.90185546875
-15.56396484375
-29.296875
-39.36767578125
-45.7763671875
-37.53662109375
-32.04345703125
-30.21240234375
-32.04345703125
-34.7900390625
-21.97265625
-21.97265625
-4.57763671875
-1.8310546875
-11.90185546875
-3.662109375
7.32421875
10.07080078125
10.986328125
16.4794921875
1.8310546875
-5.4931640625
-8.23974609375
-10.986328125
-4.57763671875
6.40869140625
2.74658203125
8.23974609375
3.662109375
3.662109375
6.40869140625
25.634765625
47.607421875
54.931640625
37.53662109375
32.958984375
28.38134765625
36.62109375
40.283203125
21.05712890625
4.57763671875
-0.91552734375
10.986328125
32.04345703125
44.86083984375
64.0869140625
72.32666015625
64.0869140625
54.01611328125
42.1142578125
40.283203125
49.4384765625
56.7626953125
60.4248046875
74.15771484375
85.14404296875
85.14404296875
76.904296875
73.2421875
65.91796875
69.580078125
87.890625
105.28564453125
114.44091796875
117.1875
125.42724609375
123.59619140625
122.6806640625
140.07568359375
134.58251953125
108.0322265625
100.7080078125
110.77880859375
115.3564453125
125.42724609375
137.3291015625
153.80859375
166.6259765625
173.9501953125
165.71044921875
168.45703125
153.80859375
135.498046875
119.93408203125
123.59619140625
134.58251953125
153.80859375
162.9638671875
161.1328125
149.23095703125
151.06201171875
150.146484375
159.3017578125
159.3017578125
159.3017578125
162.9638671875
167.54150390625
172.119140625
166.6259765625
162.04833984375
153.80859375
159.3017578125
170.2880859375
152.89306640625
112.60986328125
88.80615234375
86.97509765625
99.79248046875
103.45458984375
97.0458984375
93.3837890625
96.13037109375
86.0595703125
75.0732421875
59.50927734375
44.86083984375
46.69189453125
36.62109375
29.296875
16.4794921875
0.91552734375
-16.4794921875
-18.310546875
-2.74658203125
-1.8310546875
-7.32421875
-17.39501953125
-24.71923828125
-21.05712890625
-27.4658203125
-32.04345703125
-37.53662109375
-34.7900390625
-38.4521484375
-58.59375
-61.34033203125
-58.59375
-54.01611328125
-48.52294921875
-48.52294921875
-53.1005859375
-53.1005859375
-54.01611328125
-54.01611328125
-63.17138671875
-60.4248046875
-43.02978515625
-39.36767578125
-40.283203125
-42.1142578125
-40.283203125
-50.35400390625
-59.50927734375
-49.4384765625
-43.02978515625
-43.9453125
-58.59375
-50.35400390625
-40.283203125
-36.62109375
-37.53662109375
-33.87451171875
-34.7900390625
-29.296875
-18.310546875
-16.4794921875
-36.62109375
-39.36767578125
-37.53662109375
-32.04345703125
-26.55029296875
-35.70556640625
-33.87451171875
-42.1142578125
-43.9453125
-33.87451171875
-41.19873046875
-38.4521484375
-35.70556640625
-38.4521484375
-41.19873046875
-34.7900390625
-40.283203125
-31.1279296875
-27.4658203125
-19.22607421875
-20.1416015625
-11.90185546875
-6.40869140625
-24.71923828125
-33.87451171875
-24.71923828125
-23.8037109375
-31.1279296875
-37.53662109375
-40.283203125
-40.283203125
-48.52294921875
-34.7900390625
-22.88818359375
-33.87451171875
-39.36767578125
-43.9453125
-35.70556640625
-33.87451171875
-32.04345703125
-35.70556640625
-35.70556640625
-24.71923828125
-10.986328125
-13.73291015625
-24.71923828125
-34.7900390625
-38.4521484375
-46.69189453125
-54.931640625
-66.83349609375
-54.931640625
-48.52294921875
-48.52294921875
-37.53662109375
-32.04345703125
-43.9453125
-50.35400390625
-65.91796875
-67.7490234375
-65.00244140625
-52.18505859375
-38.4521484375
-32.958984375
-30.21240234375
-37.53662109375
-54.931640625
-57.67822265625
-64.0869140625
-57.67822265625
-42.1142578125
-40.283203125
-48.52294921875
-65.00244140625
-65.00244140625
-57.67822265625
-47.607421875
-43.9453125
-43.9453125
-30.21240234375
-18.310546875
-30.21240234375
-46.69189453125
-47.607421875
-52.18505859375
-54.931640625
-46.69189453125
-49.4384765625
-56.7626953125
-43.9453125
-36.62109375
-46.69189453125
-50.35400390625
-50.35400390625
-34.7900390625
-36.62109375
-61.34033203125
-69.580078125
-57.67822265625
-47.607421875
-43.9453125
-52.18505859375
-63.17138671875
-66.83349609375
-67.7490234375
-63.17138671875
-50.35400390625
-44.86083984375
-39.36767578125
-35.70556640625
-21.97265625
-22.88818359375
-41.19873046875
-45.7763671875
-61.34033203125
-72.32666015625
-69.580078125
-66.83349609375
-54.931640625
-34.7900390625
-26.55029296875
-18.310546875
-10.07080078125
-7.32421875
-4.57763671875
-12.8173828125
-4.57763671875
-2.74658203125
5.4931640625
17.39501953125
17.39501953125
16.4794921875
9.1552734375
31.1279296875
42.1142578125
32.04345703125
13.73291015625
21.05712890625
42.1142578125
36.62109375
34.7900390625
34.7900390625
19.22607421875
-5.4931640625
-16.4794921875
-8.23974609375
0
11.90185546875
13.73291015625
2.74658203125
-13.73291015625
-12.8173828125
-26.55029296875
-51.26953125
-52.18505859375
-59.50927734375
-58.59375
-56.7626953125
-47.607421875
-43.9453125
-32.958984375
-35.70556640625
-38.4521484375
-43.02978515625
-51.26953125
-55.84716796875
-57.67822265625
-55.84716796875
-45.7763671875
-41.19873046875
-48.52294921875
-59.50927734375
-54.01611328125
-60.4248046875
-55.84716796875
-43.02978515625
-47.607421875
-73.2421875
-80.56640625
-70.49560546875
-63.17138671875
-43.9453125
-27.4658203125
-20.1416015625
-1.8310546875
37.53662109375
79.65087890625
133.6669921875
186.767578125
264.58740234375
368.95751953125
492.5537109375
645.44677734375
828.55224609375
1026.30615234375
1183.77685546875
1328.43017578125
1495.05615234375
1582.03125
1590.27099609375
1598.5107421875
1593.93310546875
1438.29345703125
1167.29736328125
942.9931640625
757.14111328125
575.86669921875
342.4072265625
193.17626953125
137.3291015625
96.13037109375
44.86083984375
-5.4931640625
-37.53662109375
-52.18505859375
-37.53662109375
-1.8310546875
27.4658203125
42.1142578125
49.4384765625
53.1005859375
46.69189453125
43.02978515625
32.958984375
15.56396484375
5.4931640625
-1.8310546875
6.40869140625
11.90185546875
7.32421875
12.8173828125
16.4794921875
15.56396484375
9.1552734375
-16.4794921875
-16.4794921875
-15.56396484375
-17.39501953125
-2.74658203125
14.6484375
29.296875
32.04345703125
37.53662109375
30.21240234375
3.662109375
-21.97265625
-19.22607421875
-14.6484375
-2.74658203125
8.23974609375
15.56396484375
2.74658203125
3.662109375
11.90185546875
19.22607421875
28.38134765625
45.7763671875
50.35400390625
47.607421875
48.52294921875
51.26953125
42.1142578125
39.36767578125
44.86083984375
51.26953125
53.1005859375
41.19873046875
28.38134765625
25.634765625
22.88818359375
35.70556640625
54.01611328125
57.67822265625
65.00244140625
67.7490234375
71.4111328125
56.7626953125
50.35400390625
56.7626953125
62.255859375
66.83349609375
79.65087890625
96.13037109375
98.876953125
73.2421875
51.26953125
65.00244140625
92.46826171875
103.45458984375
87.890625
77.81982421875
78.7353515625
74.15771484375
78.7353515625
82.3974609375
97.0458984375
100.7080078125
103.45458984375
104.3701171875
113.525390625
115.3564453125
130.92041015625
140.07568359375
141.90673828125
135.498046875
135.498046875
136.41357421875
129.08935546875
119.93408203125
120.849609375
123.59619140625
121.76513671875
118.10302734375
132.75146484375
145.56884765625
161.1328125
170.2880859375
163.87939453125
161.1328125
165.71044921875
170.2880859375
171.20361328125
178.52783203125
168.45703125
168.45703125
151.9775390625
106.201171875
84.228515625
93.3837890625
129.08935546875
144.6533203125
141.90673828125
136.41357421875
125.42724609375
124.51171875
118.10302734375
125.42724609375
113.525390625
90.63720703125
73.2421875
78.7353515625
82.3974609375
80.56640625
71.4111328125
45.7763671875
31.1279296875
19.22607421875
13.73291015625
2.74658203125
-2.74658203125
0.91552734375
9.1552734375
8.23974609375
1.8310546875
-13.73291015625
-33.87451171875
-38.4521484375
-38.4521484375
-32.04345703125
-25.634765625
-18.310546875
-35.70556640625
-61.34033203125
-76.904296875
-79.65087890625
-69.580078125
-54.01611328125
-39.36767578125
-38.4521484375
-40.283203125
-48.52294921875
-59.50927734375
-65.00244140625
-54.01611328125
-59.50927734375
-70.49560546875
-58.59375
-36.62109375
-36.62109375
-47.607421875
-61.34033203125
-62.255859375
-64.0869140625
-61.34033203125
-54.01611328125
-53.1005859375
-62.255859375
-66.83349609375
-62.255859375
-55.84716796875
-43.9453125
-36.62109375
-43.9453125
-56.7626953125
-58.59375
-62.255859375
-52.18505859375
-41.19873046875
-36.62109375
-53.1005859375
-63.17138671875
-53.1005859375
-44.86083984375
-40.283203125
-49.4384765625
-47.607421875
-43.9453125
-50.35400390625
-48.52294921875
-46.69189453125
-57.67822265625
-62.255859375
-53.1005859375
-53.1005859375
-69.580078125
-92.46826171875
-75.98876953125
-61.34033203125
-50.35400390625
-46.69189453125
-44.86083984375
-49.4384765625
-45.7763671875
-54.01611328125
-54.931640625
-53.1005859375
-72.32666015625
-76.904296875
-67.7490234375
-65.00244140625
-49.4384765625
-41.19873046875
-57.67822265625
-81.48193359375
-83.31298828125
-71.4111328125
-60.4248046875
-59.50927734375
-75.0732421875
-90.63720703125
-88.80615234375
-74.15771484375
-62.255859375
-61.34033203125
-66.83349609375
-58.59375
-59.50927734375
-58.59375
-54.01611328125
-57.67822265625
-62.255859375
-70.49560546875
-96.13037109375
-100.7080078125
-91.552734375
-87.890625
-78.7353515625
-82.3974609375
-84.228515625
-87.890625
-86.97509765625
-78.7353515625
-80.56640625
-85.14404296875
-92.46826171875
-99.79248046875
-100.7080078125
-88.80615234375
-75.98876953125
-65.00244140625
-75.98876953125
-96.13037109375
-119.93408203125
-121.76513671875
-106.201171875
-93.3837890625
-88.80615234375
-85.14404296875
-75.0732421875
-63.17138671875
-72.32666015625
-101.62353515625
-100.7080078125
-87.890625
-73.2421875
-63.17138671875
-61.34033203125
-67.7490234375
-81.48193359375
-97.0458984375
-103.45458984375
-107.11669921875
-100.7080078125
-87.890625
-82.3974609375
-89.7216796875
-96.13037109375
-108.0322265625
-105.28564453125
-99.79248046875
-105.28564453125
-95.21484375
-86.0595703125
-85.14404296875
-80.56640625
-74.15771484375
-84.228515625
-97.96142578125
-97.0458984375
-93.3837890625
-90.63720703125
-97.0458984375
-108.0322265625
-115.3564453125
-104.3701171875
-93.3837890625
-90.63720703125
-105.28564453125
-108.0322265625
-102.5390625
-96.13037109375
-93.3837890625
-82.3974609375
-65.91796875
-73.2421875
-97.0458984375
-108.0322265625
-85.14404296875
-82.3974609375
-80.56640625
-77.81982421875
-71.4111328125
-71.4111328125
-62.255859375
-59.50927734375
-59.50927734375
-43.02978515625
-26.55029296875
-38.4521484375
-57.67822265625
-58.59375
-38.4521484375
-47.607421875
-43.9453125
-39.36767578125
-15.56396484375
-3.662109375
-21.97265625
-32.958984375
-17.39501953125
-1.8310546875
-9.1552734375
-12.8173828125
-19.22607421875
-38.4521484375
-53.1005859375
-65.00244140625
-65.00244140625
-48.52294921875
-30.21240234375
-34.7900390625
-49.4384765625
-61.34033203125
-69.580078125
-60.4248046875
-70.49560546875
-71.4111328125
-65.91796875
-65.91796875
-73.2421875
-77.81982421875
-76.904296875
-75.98876953125
-76.904296875
-83.31298828125
-93.3837890625
-97.0458984375
-81.48193359375
-75.98876953125
-77.81982421875
-75.98876953125
-81.48193359375
-93.3837890625
-104.3701171875
-108.0322265625
-108.94775390625
-108.94775390625
-112.60986328125
-105.28564453125
-104.3701171875
-102.5390625
-92.46826171875
-87.890625
-79.65087890625
-76.904296875
-77.81982421875
-80.56640625
-85.14404296875
-79.65087890625
-53.1005859375
-8.23974609375
41.19873046875
92.46826171875
154.72412109375
255.43212890625
381.77490234375
516.357421875
692.138671875
891.7236328125
1063.8427734375
1209.41162109375
1381.53076171875
1555.48095703125
1608.58154296875
1579.28466796875
1534.423828125
1451.11083984375
1214.90478515625
1000.67138671875
827.63671875
639.0380859375
404.6630859375
173.03466796875
54.01611328125
20.1416015625
-8.23974609375
-54.01611328125
-80.56640625
-59.50927734375
-16.4794921875
11.90185546875
10.07080078125
2.74658203125
-2.74658203125
0
10.07080078125
1.8310546875
-11.90185546875
-16.4794921875
-15.56396484375
-20.1416015625
-21.97265625
-18.310546875
-19.22607421875
-14.6484375
-22.88818359375
-12.8173828125
-5.4931640625
-5.4931640625
-18.310546875
-43.02978515625
-54.01611328125
-53.1005859375
-39.36767578125
-32.04345703125
-24.71923828125
-33.87451171875
-34.7900390625
-29.296875
-21.97265625
-27.4658203125
-39.36767578125
-28.38134765625
-18.310546875
-7.32421875
-5.4931640625
-10.07080078125
-20.1416015625
-21.05712890625
-21.97265625
-11.90185546875
-3.662109375
-4.57763671875
-5.4931640625
-1.8310546875
0
-0.91552734375
-9.1552734375
3.662109375
21.97265625
20.1416015625
19.22607421875
29.296875
27.4658203125
15.56396484375
4.57763671875
18.310546875
32.04345703125
35.70556640625
26.55029296875
21.05712890625
23.8037109375
29.296875
32.958984375
38.4521484375
43.02978515625
54.01611328125
56.7626953125
52.18505859375
55.84716796875
65.91796875
67.7490234375
70.49560546875
58.59375
51.26953125
62.255859375
53.1005859375
40.283203125
35.70556640625
50.35400390625
68.66455078125
86.97509765625
102.5390625
101.62353515625
88.80615234375
92.46826171875
115.3564453125
111.6943359375
104.3701171875
101.62353515625
116.27197265625
118.10302734375
103.45458984375
103.45458984375
120.849609375
125.42724609375
113.525390625
122.6806640625
133.6669921875
129.08935546875
130.92041015625
140.07568359375
151.9775390625
162.04833984375
151.06201171875
146.484375
131.8359375
121.76513671875
126.3427734375
126.3427734375
131.8359375
141.90673828125
133.6669921875
126.3427734375
115.3564453125
119.0185546875
129.08935546875
136.41357421875
130.0048828125
122.6806640625
105.28564453125
104.3701171875
101.62353515625
103.45458984375
92.46826171875
76.904296875
66.83349609375
65.00244140625
44.86083984375
24.71923828125
23.8037109375
25.634765625
10.986328125
-21.97265625
-40.283203125
-29.296875
-15.56396484375
-14.6484375
-32.958984375
-43.9453125
-54.01611328125
-60.4248046875
-59.50927734375
-62.255859375
-59.50927734375
-52.18505859375
-56.7626953125
-59.50927734375
-58.59375
-64.0869140625
-67.7490234375
-67.7490234375
-68.66455078125
-62.255859375
-54.01611328125
-63.17138671875
-95.21484375
-115.3564453125
-105.28564453125
-88.80615234375
-75.0732421875
-68.66455078125
-68.66455078125
-68.66455078125
-76.904296875
-80.56640625
-78.7353515625
-82.3974609375
-70.49560546875
-62.255859375
-71.4111328125
-78.7353515625
-81.48193359375
-77.81982421875
-69.580078125
-68.66455078125
-64.0869140625
-54.01611328125
-57.67822265625
-64.0869140625
-67.7490234375
-73.2421875
-58.59375
-56.7626953125
-69.580078125
-64.0869140625
-66.83349609375
-60.4248046875
-60.4248046875
-77.81982421875
-77.81982421875
-71.4111328125
-75.0732421875
-70.49560546875
-68.66455078125
-74.15771484375
-82.3974609375
-82.3974609375
-77.81982421875
-77.81982421875
-73.2421875
-67.7490234375
-71.4111328125
-72.32666015625
-55.84716796875
-58.59375
-62.255859375
-66.83349609375
-90.63720703125
-113.525390625
-110.77880859375
-86.0595703125
-68.66455078125
-69.580078125
-60.4248046875
-52.18505859375
-63.17138671875
-75.98876953125
-75.0732421875
-59.50927734375
-49.4384765625
-54.931640625
-56.7626953125
-65.91796875
-69.580078125
-74.15771484375
-64.0869140625
-62.255859375
-69.580078125
-85.14404296875
-106.201171875
-99.79248046875
-87.890625
-75.0732421875
-78.7353515625
-97.0458984375
-101.62353515625
-97.0458984375
-81.48193359375
-76.904296875
-77.81982421875
-85.14404296875
-91.552734375
-89.7216796875
-94.29931640625
-85.14404296875
-88.80615234375
-86.97509765625
-95.21484375
-90.63720703125
-93.3837890625
-93.3837890625
-94.29931640625
-92.46826171875
-91.552734375
-91.552734375
-90.63720703125
-101.62353515625
-108.94775390625
-96.13037109375
-89.7216796875
-91.552734375
-92.46826171875
-90.63720703125
-95.21484375
-88.80615234375
-89.7216796875
-89.7216796875
-97.0458984375
-102.5390625
-106.201171875
-111.6943359375
-108.0322265625
-104.3701171875
-107.11669921875
-118.10302734375
-130.0048828125
-127.25830078125
-117.1875
-107.11669921875
-106.201171875
-103.45458984375
-107.11669921875
-103.45458984375
-101.62353515625
-100.7080078125
-96.13037109375
-83.31298828125
-88.80615234375
-104.3701171875
-116.27197265625
-106.201171875
-110.77880859375
-117.1875
-110.77880859375
-86.97509765625
-76.904296875
-91.552734375
-100.7080078125
-111.6943359375
-120.849609375
-119.93408203125
-108.94775390625
-86.97509765625
-88.80615234375
-101.62353515625
-108.94775390625
-100.7080078125
-94.29931640625
-87.890625
-76.904296875
-85.14404296875
-84.228515625
-82.3974609375
-92.46826171875
-113.525390625
-116.27197265625
-116.27197265625
-103.45458984375
-91.552734375
-83.31298828125
-90.63720703125
-90.63720703125
-86.97509765625
-89.7216796875
-83.31298828125
-76.904296875
-65.91796875
-62.255859375
-63.17138671875
-54.931640625
-46.69189453125
-43.02978515625
-45.7763671875
-43.9453125
-33.87451171875
-34.7900390625
-36.62109375
-48.52294921875
-43.02978515625
-16.4794921875
-16.4794921875
-13.73291015625
-19.22607421875
-20.1416015625
-12.8173828125
-10.986328125
-12.8173828125
-18.310546875
-21.97265625
-33.87451171875
-40.283203125
-35.70556640625
-38.4521484375
-36.62109375
-43.9453125
-60.4248046875
-67.7490234375
-58.59375
-50.35400390625
-53.1005859375
-61.34033203125
-74.15771484375
-83.31298828125
-94.29931640625
-91.552734375
-82.3974609375
-86.97509765625
-87.890625
-86.0595703125
-90.63720703125
-90.63720703125
-85.14404296875
-77.81982421875
-80.56640625
-86.97509765625
-98.876953125
-108.0322265625
-99.79248046875
-98.876953125
-82.3974609375
-63.17138671875
-65.00244140625
-73.2421875
-79.65087890625
-91.552734375
-84.228515625
-91.552734375
-95.21484375
-76.904296875
-55.84716796875
-30.21240234375
19.22607421875
73.2421875
108.0322265625
134.58251953125
193.17626953125
308.53271484375
432.12890625
555.72509765625
718.68896484375
927.42919921875
1094.05517578125
1242.37060546875
1421.81396484375
1561.8896484375
1595.76416015625
1588.43994140625
1573.79150390625
1451.11083984375
1183.77685546875
965.88134765625
789.1845703125
603.33251953125
364.3798828125
174.86572265625
97.96142578125
63.17138671875
21.97265625
-14.6484375
-49.4384765625
-51.26953125
-25.634765625
-15.56396484375
10.986328125
34.7900390625
35.70556640625
24.71923828125
22.88818359375
12.8173828125
2.74658203125
-1.8310546875
13.73291015625
17.39501953125
16.4794921875
3.662109375
-4.57763671875
2.74658203125
5.4931640625
-0.91552734375
-10.986328125
-23.8037109375
-23.8037109375
-17.39501953125
-15.56396484375
-14.6484375
-21.05712890625
-11.90185546875
-14.6484375
-8.23974609375
5.4931640625
13.73291015625
19.22607421875
10.07080078125
-8.23974609375
-15.56396484375
-8.23974609375
-3.662109375
-3.662109375
9.1552734375
18.310546875
18.310546875
10.986328125
10.07080078125
12.8173828125
10.986328125
9.1552734375
13.73291015625
26.55029296875
28.38134765625
21.05712890625
27.4658203125
35.70556640625
41.19873046875
43.9453125
48.52294921875
51.26953125
54.931640625
54.01611328125
43.02978515625
43.02978515625
48.52294921875
54.01611328125
55.84716796875
58.59375
61.34033203125
60.4248046875
61.34033203125
52.18505859375
60.4248046875
79.65087890625
82.3974609375
77.81982421875
65.91796875
60.4248046875
65.91796875
77.81982421875
81.48193359375
91.552734375
95.21484375
88.80615234375
83.31298828125
88.80615234375
93.3837890625
109.86328125
121.76513671875
125.42724609375
124.51171875
137.3291015625
140.07568359375
136.41357421875
128.173828125
120.849609375
110.77880859375
114.44091796875
113.525390625
121.76513671875
133.6669921875
151.06201171875
164.794921875
170.2880859375
167.54150390625
165.71044921875
159.3017578125
144.6533203125
140.07568359375
156.55517578125
164.794921875
169.37255859375
164.794921875
160.21728515625
155.6396484375
162.9638671875
170.2880859375
163.87939453125
156.55517578125
152.89306640625
154.72412109375
159.3017578125
155.6396484375
152.89306640625
151.06201171875
148.3154296875
144.6533203125
140.9912109375
130.92041015625
115.3564453125
95.21484375
85.14404296875
80.56640625
81.48193359375
84.228515625
88.80615234375
81.48193359375
55.84716796875
34.7900390625
24.71923828125
10.986328125
4.57763671875
4.57763671875
-0.91552734375
-18.310546875
-30.21240234375
-21.97265625
-18.310546875
-10.07080078125
-15.56396484375
-35.70556640625
-47.607421875
-51.26953125
-62.255859375
-65.00244140625
-47.607421875
-33.87451171875
-28.38134765625
-33.87451171875
-29.296875
-32.958984375
-45.7763671875
-58.59375
-54.931640625
-54.01611328125
-51.26953125
-33.87451171875
-39.36767578125
-40.283203125
-27.4658203125
-15.56396484375
-27.4658203125
-43.9453125
-44.86083984375
-44.86083984375
-39.36767578125
-25.634765625
-33.87451171875
-40.283203125
-34.7900390625
-27.4658203125
-19.22607421875
-17.39501953125
-26.55029296875
-27.4658203125
-31.1279296875
-44.86083984375
-49.4384765625
-37.53662109375
-30.21240234375
-32.958984375
-28.38134765625
-27.4658203125
-30.21240234375
-40.283203125
-39.36767578125
-31.1279296875
-17.39501953125
-21.05712890625
-21.05712890625
-14.6484375
-10.07080078125
-2.74658203125
-10.986328125
-39.36767578125
-71.4111328125
-60.4248046875
-47.607421875
-40.283203125
-30.21240234375
-27.4658203125
-37.53662109375
-47.607421875
-40.283203125
-25.634765625
-12.8173828125
-11.90185546875
-19.22607421875
-30.21240234375
-32.04345703125
-35.70556640625
-32.958984375
-36.62109375
-24.71923828125
-19.22607421875
-25.634765625
-27.4658203125
-27.4658203125
-28.38134765625
-36.62109375
-45.7763671875
-38.4521484375
-36.62109375
-38.4521484375
-41.19873046875
-32.04345703125
-33.87451171875
-28.38134765625
-32.04345703125
-26.55029296875
-23.8037109375
-41.19873046875
-64.0869140625
-59.50927734375
-48.52294921875
-41.19873046875
-49.4384765625
-48.52294921875
-51.26953125
-54.931640625
-48.52294921875
-41.19873046875
-36.62109375
-33.87451171875
-30.21240234375
-41.19873046875
-45.7763671875
-55.84716796875
-57.67822265625
-62.255859375
-77.81982421875
-73.2421875
-73.2421875
-71.4111328125
-70.49560546875
-54.931640625
-45.7763671875
-45.7763671875
-48.52294921875
-49.4384765625
-44.86083984375
-46.69189453125
-54.01611328125
-47.607421875
-50.35400390625
-58.59375
-54.01611328125
-57.67822265625
-61.34033203125
-54.01611328125
-51.26953125
-39.36767578125
-37.53662109375
-40.283203125
-38.4521484375
-54.01611328125
-62.255859375
-63.17138671875
-66.83349609375
-61.34033203125
-55.84716796875
-57.67822265625
-51.26953125
-46.69189453125
-43.9453125
-44.86083984375
-58.59375
-52.18505859375
-46.69189453125
-64.0869140625
-73.2421875
-73.2421875
-54.931640625
-45.7763671875
-36.62109375
-30.21240234375
-23.8037109375
-30.21240234375
-40.283203125
-42.1142578125
-42.1142578125
-46.69189453125
-39.36767578125
-32.04345703125
-31.1279296875
-26.55029296875
-26.55029296875
-9.1552734375
2.74658203125
0.91552734375
-10.07080078125
-14.6484375
-1.8310546875
20.1416015625
31.1279296875
47.607421875
65.91796875
45.7763671875
22.88818359375
21.05712890625
20.1416015625
13.73291015625
-3.662109375
-12.8173828125
-14.6484375
-7.32421875
-10.986328125
-10.07080078125
-16.4794921875
-18.310546875
-13.73291015625
-17.39501953125
-21.97265625
-23.8037109375
-21.05712890625
-24.71923828125
-39.36767578125
-61.34033203125
-70.49560546875
-64.0869140625
-60.4248046875
-55.84716796875
-55.84716796875
-48.52294921875
-33.87451171875
-31.1279296875
-45.7763671875
-66.83349609375
-85.14404296875
-86.97509765625
-84.228515625
-74.15771484375
-69.580078125
-68.66455078125
-69.580078125
-66.83349609375
-56.7626953125
-60.4248046875
-65.00244140625
-49.4384765625
-46.69189453125
-55.84716796875
-53.1005859375
-47.607421875
-42.1142578125
-21.97265625
16.4794921875
52.18505859375
100.7080078125
159.3017578125
219.7265625
297.54638671875
411.9873046875
546.56982421875
718.68896484375
921.0205078125
1094.05517578125
1213.07373046875
1365.966796875
1520.69091796875
1571.044921875
1598.5107421875
1625.06103515625
1561.8896484375
1310.11962890625
1045.5322265625
848.69384765625
682.06787109375
444.9462890625
228.8818359375
126.3427734375
77.81982421875
46.69189453125
-4.57763671875
-46.69189453125
-66.83349609375
-40.283203125
-11.90185546875
11.90185546875
33.87451171875
58.59375
65.91796875
60.4248046875
52.18505859375
38.4521484375
26.55029296875
16.4794921875
1.8310546875
0
10.986328125
14.6484375
9.1552734375
-36.62109375
-42.1142578125
-24.71923828125
-19.22607421875
-5.4931640625
2.74658203125
7.32421875
1.8310546875
13.73291015625
28.38134765625
6.40869140625
-9.1552734375
-9.1552734375
-10.07080078125
-9.1552734375
-14.6484375
-12.8173828125
3.662109375
5.4931640625
5.4931640625
0.91552734375
6.40869140625
25.634765625
23.8037109375
3.662109375
-7.32421875
4.57763671875
8.23974609375
19.22607421875
29.296875
23.8037109375
25.634765625
38.4521484375
48.52294921875
58.59375
52.18505859375
37.53662109375
32.04345703125
25.634765625
27.4658203125
25.634765625
30.21240234375
43.02978515625
57.67822265625
62.255859375
54.931640625
50.35400390625
55.84716796875
77.81982421875
82.3974609375
60.4248046875
43.9453125
54.01611328125
61.34033203125
70.49560546875
80.56640625
80.56640625
89.7216796875
105.28564453125
108.0322265625
96.13037109375
71.4111328125
65.00244140625
63.17138671875
78.7353515625
100.7080078125
108.94775390625
119.93408203125
114.44091796875
93.3837890625
82.3974609375
91.552734375
108.94775390625
121.76513671875
127.25830078125
126.3427734375
124.51171875
119.0185546875
123.59619140625
128.173828125
137.3291015625
151.9775390625
157.470703125
149.23095703125
149.23095703125
148.3154296875
152.89306640625
162.9638671875
149.23095703125
123.59619140625
127.25830078125
129.08935546875
129.08935546875
148.3154296875
163.87939453125
164.794921875
158.38623046875
158.38623046875
154.72412109375
140.9912109375
135.498046875
131.8359375
140.07568359375
131.8359375
121.76513671875
120.849609375
118.10302734375
105.28564453125
72.32666015625
52.18505859375
53.1005859375
52.18505859375
43.02978515625
35.70556640625
30.21240234375
27.4658203125
10.07080078125
3.662109375
6.40869140625
-1.8310546875
-10.986328125
-10.07080078125
-11.90185546875
-19.22607421875
-35.70556640625
-53.1005859375
-54.931640625
-58.59375
-60.4248046875
-54.931640625
-52.18505859375
-51.26953125
-43.9453125
-57.67822265625
-63.17138671875
-54.931640625
-54.931640625
-62.255859375
-54.01611328125
-48.52294921875
-65.91796875
-73.2421875
-75.0732421875
-77.81982421875
-89.7216796875
-86.0595703125
-69.580078125
-55.84716796875
-58.59375
-65.91796875
-71.4111328125
-76.904296875
-76.904296875
-73.2421875
-72.32666015625
-72.32666015625
-75.98876953125
-77.81982421875
-71.4111328125
-63.17138671875
-65.91796875
-65.00244140625
-62.255859375
-58.59375
-61.34033203125
-60.4248046875
-58.59375
-52.18505859375
-55.84716796875
-62.255859375
-65.00244140625
-52.18505859375
-44.86083984375
-40.283203125
-32.958984375
-44.86083984375
-76.904296875
-91.552734375
-78.7353515625
-72.32666015625
-64.0869140625
-53.1005859375
-52.18505859375
-54.01611328125
-49.4384765625
-42.1142578125
-32.958984375
-29.296875
-31.1279296875
-38.4521484375
-47.607421875
-65.00244140625
-80.56640625
-80.56640625
-70.49560546875
-60.4248046875
-67.7490234375
-78.7353515625
-68.66455078125
-64.0869140625
-73.2421875
-66.83349609375
-61.34033203125
-63.17138671875
-65.91796875
-70.49560546875
-72.32666015625
-71.4111328125
-74.15771484375
-67.7490234375
-72.32666015625
-93.3837890625
-103.45458984375
-101.62353515625
-111.6943359375
-114.44091796875
-95.21484375
-78.7353515625
-70.49560546875
-73.2421875
-75.0732421875
-79.65087890625
-78.7353515625
-73.2421875
-75.98876953125
-86.97509765625
-104.3701171875
-97.96142578125
-86.97509765625
-84.228515625
-85.14404296875
-77.81982421875
-75.0732421875
-82.3974609375
-106.201171875
-107.11669921875
-87.890625
-86.97509765625
-86.0595703125
-89.7216796875
-89.7216796875
-85.14404296875
-90.63720703125
-93.3837890625
-96.13037109375
-97.0458984375
-86.97509765625
-83.31298828125
-76.904296875
-75.0732421875
-81.48193359375
-83.31298828125
-73.2421875
-71.4111328125
-85.14404296875
-108.0322265625
-124.51171875
-130.92041015625
-111.6943359375
-90.63720703125
-81.48193359375
-97.0458984375
-106.201171875
-99.79248046875
-85.14404296875
-89.7216796875
-98.876953125
-104.3701171875
-104.3701171875
-86.97509765625
-75.98876953125
-74.15771484375
-97.0458984375
-106.201171875
-108.94775390625
-116.27197265625
-113.525390625
-104.3701171875
-100.7080078125
-101.62353515625
-100.7080078125
-97.0458984375
-86.97509765625
-78.7353515625
-70.49560546875
-80.56640625
-107.11669921875
-124.51171875
-113.525390625
-109.86328125
-112.60986328125
-116.27197265625
-105.28564453125
-100.7080078125
-100.7080078125
-96.13037109375
-88.80615234375
-89.7216796875
-95.21484375
-107.11669921875
-95.21484375
-84.228515625
-78.7353515625
-87.890625
-100.7080078125
-99.79248046875
-85.14404296875
-68.66455078125
-54.931640625
-46.69189453125
-38.4521484375
-36.62109375
-43.02978515625
-39.36767578125
-55.84716796875
-67.7490234375
-70.49560546875
-54.01611328125
-32.04345703125
-17.39501953125
-10.986328125
-21.05712890625
-18.310546875
-4.57763671875
-3.662109375
-13.73291015625
-6.40869140625
0
-19.22607421875
-52.18505859375
-72.32666015625
-74.15771484375
-72.32666015625
-46.69189453125
-36.62109375
-33.87451171875
-40.283203125
-47.607421875
-51.26953125
-59.50927734375
-70.49560546875
-81.48193359375
-85.14404296875
-77.81982421875
-79.65087890625
-82.3974609375
-89.7216796875
-91.552734375
-94.29931640625
-106.201171875
-95.21484375
-93.3837890625
-110.77880859375
-111.6943359375
-102.5390625
-104.3701171875
-101.62353515625
-90.63720703125
-83.31298828125
-86.97509765625
-94.29931640625
-118.10302734375
-114.44091796875
-89.7216796875
-84.228515625
-94.29931640625
-92.46826171875
-100.7080078125
-111.6943359375
-119.0185546875
-105.28564453125
-86.97509765625
-54.01611328125
-9.1552734375
36.62109375
67.7490234375
95.21484375
154.72412109375
265.5029296875
398.25439453125
535.58349609375
700.37841796875
889.892578125
1057.43408203125
1195.6787109375
1348.57177734375
1495.9716796875
1565.5517578125
1571.044921875
1562.80517578125
1482.23876953125
1231.38427734375
998.84033203125
811.1572265625
614.31884765625
367.12646484375
134.58251953125
29.296875
-3.662109375
-30.21240234375
-64.0869140625
-75.0732421875
-58.59375
-24.71923828125
-0.91552734375
3.662109375
-2.74658203125
0.91552734375
18.310546875
12.8173828125
7.32421875
-8.23974609375
-18.310546875
-22.88818359375
-14.6484375
-15.56396484375
-16.4794921875
-14.6484375
-18.310546875
-32.958984375
-42.1142578125
-36.62109375
-36.62109375
-33.87451171875
-24.71923828125
-28.38134765625
-36.62109375
-32.958984375
-28.38134765625
-27.4658203125
-24.71923828125
-26.55029296875
-23.8037109375
-7.32421875
2.74658203125
2.74658203125
-32.958984375
-56.7626953125
-62.255859375
-49.4384765625
-44.86083984375
-42.1142578125
-25.634765625
-20.1416015625
-17.39501953125
-7.32421875
7.32421875
10.986328125
8.23974609375
-4.57763671875
-12.8173828125
-5.4931640625
13.73291015625
25.634765625
43.02978515625
41.19873046875
24.71923828125
-0.91552734375
-13.73291015625
-21.05712890625
-17.39501953125
-5.4931640625
11.90185546875
24.71923828125
34.7900390625
35.70556640625
25.634765625
27.4658203125
30.21240234375
38.4521484375
46.69189453125
49.4384765625
56.7626953125
64.0869140625
63.17138671875
73.2421875
82.3974609375
68.66455078125
57.67822265625
45.7763671875
36.62109375
49.4384765625
65.00244140625
79.65087890625
88.80615234375
96.13037109375
80.56640625
49.4384765625
48.52294921875
71.4111328125
106.201171875
110.77880859375
108.94775390625
103.45458984375
96.13037109375
104.3701171875
117.1875
129.08935546875
113.525390625
95.21484375
87.890625
92.46826171875
104.3701171875
119.0185546875
134.58251953125
139.16015625
126.3427734375
125.42724609375
133.6669921875
129.08935546875
120.849609375
122.6806640625
122.6806640625
130.0048828125
130.92041015625
127.25830078125
132.75146484375
136.41357421875
134.58251953125
128.173828125
126.3427734375
121.76513671875
137.3291015625
128.173828125
108.94775390625
90.63720703125
78.7353515625
73.2421875
70.49560546875
65.91796875
59.50927734375
42.1142578125
13.73291015625
0.91552734375
21.05712890625
32.958984375
17.39501953125
-9.1552734375
-17.39501953125
-24.71923828125
-33.87451171875
-40.283203125
-41.19873046875
-46.69189453125
-56.7626953125
-55.84716796875
-56.7626953125
-53.1005859375
-56.7626953125
-65.91796875
-70.49560546875
-65.00244140625
-74.15771484375
-86.97509765625
-91.552734375
-103.45458984375
-108.94775390625
-96.13037109375
-83.31298828125
-70.49560546875
-75.98876953125
-83.31298828125
-70.49560546875
-65.00244140625
-75.98876953125
-80.56640625
-81.48193359375
-77.81982421875
-75.98876953125
-86.0595703125
-83.31298828125
-80.56640625
-78.7353515625
-76.904296875
-84.228515625
-75.0732421875
-70.49560546875
-66.83349609375
-83.31298828125
-86.97509765625
-67.7490234375
-66.83349609375
-63.17138671875
-66.83349609375
-73.2421875
-84.228515625
-83.31298828125
-82.3974609375
-81.48193359375
-70.49560546875
-62.255859375
-65.91796875
-86.97509765625
-91.552734375
-87.890625
-87.890625
-82.3974609375
-77.81982421875
-69.580078125
-72.32666015625
-69.580078125
-62.255859375
-54.931640625
-44.86083984375
-44.86083984375
-60.4248046875
-71.4111328125
-81.48193359375
-92.46826171875
-98.876953125
-92.46826171875
-74.15771484375
-58.59375
-58.59375
-65.00244140625
-71.4111328125
-75.98876953125
-76.904296875
-80.56640625
-77.81982421875
-70.49560546875
-70.49560546875
-72.32666015625
-64.0869140625
-62.255859375
-71.4111328125
-79.65087890625
-86.97509765625
-72.32666015625
-65.91796875
-68.66455078125
-66.83349609375
-63.17138671875
-68.66455078125
-75.0732421875
-105.28564453125
-114.44091796875
-103.45458984375
-97.96142578125
-88.80615234375
-88.80615234375
-74.15771484375
-65.91796875
-69.580078125
-70.49560546875
-65.00244140625
-70.49560546875
-80.56640625
-82.3974609375
-90.63720703125
-104.3701171875
-96.13037109375
-82.3974609375
-84.228515625
-83.31298828125
-76.904296875
-73.2421875
-63.17138671875
-62.255859375
-80.56640625
-86.97509765625
-104.3701171875
-101.62353515625
-97.0458984375
-97.0458984375
-96.13037109375
-80.56640625
-88.80615234375
-89.7216796875
-86.97509765625
-83.31298828125
-97.0458984375
-103.45458984375
-100.7080078125
-94.29931640625
-70.49560546875
-66.83349609375
-77.81982421875
-96.13037109375
-100.7080078125
-97.96142578125
-79.65087890625
-65.00244140625
-73.2421875
-73.2421875
-75.98876953125
-84.228515625
-86.97509765625
-80.56640625
-74.15771484375
-81.48193359375
-97.0458984375
-96.13037109375
-88.80615234375
-86.97509765625
-86.97509765625
-92.46826171875
-88.80615234375
-86.97509765625
-87.890625
-83.31298828125
-82.3974609375
-73.2421875
-73.2421875
-75.0732421875
-83.31298828125
-82.3974609375
-80.56640625
-87.890625
-91.552734375
-83.31298828125
-84.228515625
-84.228515625
-85.14404296875
-74.15771484375
-65.00244140625
-76.904296875
-86.97509765625
-83.31298828125
-75.0732421875
-74.15771484375
-65.91796875
-60.4248046875
-47.607421875
-65.00244140625
-72.32666015625
-77.81982421875
-74.15771484375
-45.7763671875
-28.38134765625
-21.05712890625
-11.90185546875
-12.8173828125
-12.8173828125
-6.40869140625
-5.4931640625
3.662109375
13.73291015625
25.634765625
32.958984375
30.21240234375
23.8037109375
17.39501953125
19.22607421875
-3.662109375
-14.6484375
-18.310546875
-21.97265625
-17.39501953125
-31.1279296875
-54.931640625
-54.931640625
-47.607421875
-39.36767578125
-28.38134765625
-28.38134765625
-30.21240234375
-48.52294921875
-51.26953125
-54.931640625
-49.4384765625
-53.1005859375
-62.255859375
-69.580078125
-82.3974609375
-93.3837890625
-85.14404296875
-85.14404296875
-83.31298828125
-70.49560546875
-68.66455078125
-73.2421875
-54.931640625
-41.19873046875
-43.9453125
-43.9453125
-46.69189453125
-54.01611328125
-67.7490234375
-87.890625
-89.7216796875
-68.66455078125
-72.32666015625
-80.56640625
-87.890625
-71.4111328125
-55.84716796875
-36.62109375
9.1552734375
56.7626953125
88.80615234375
125.42724609375
169.37255859375
245.361328125
348.81591796875
479.736328125
635.3759765625
820.3125
1012.5732421875
1149.90234375
1298.2177734375
1485.90087890625
1596.6796875
1612.24365234375
1607.666015625
1569.2138671875
1379.69970703125
1132.50732421875
932.0068359375
728.759765625
519.10400390625
295.71533203125
173.9501953125
122.6806640625
85.14404296875
32.958984375
-21.97265625
-70.49560546875
-65.91796875
-29.296875
8.23974609375
33.87451171875
44.86083984375
52.18505859375
53.1005859375
54.01611328125
49.4384765625
53.1005859375
31.1279296875
9.1552734375
-1.8310546875
-13.73291015625
-8.23974609375
-2.74658203125
-0.91552734375
6.40869140625
12.8173828125
9.1552734375
15.56396484375
13.73291015625
8.23974609375
10.07080078125
15.56396484375
12.8173828125
-0.91552734375
10.07080078125
10.986328125
2.74658203125
0.91552734375
3.662109375
9.1552734375
10.07080078125
9.1552734375
21.97265625
31.1279296875
24.71923828125
18.310546875
18.310546875
11.90185546875
11.90185546875
19.22607421875
19.22607421875
17.39501953125
21.97265625
32.04345703125
29.296875
28.38134765625
39.36767578125
46.69189453125
46.69189453125
30.21240234375
13.73291015625
25.634765625
44.86083984375
52.18505859375
33.87451171875
32.958984375
55.84716796875
65.91796875
64.0869140625
73.2421875
73.2421875
75.98876953125
76.904296875
84.228515625
87.890625
88.80615234375
97.96142578125
97.96142578125
103.45458984375
100.7080078125
95.21484375
90.63720703125
105.28564453125
110.77880859375
95.21484375
54.931640625
61.34033203125
88.80615234375
108.94775390625
111.6943359375
114.44091796875
124.51171875
133.6669921875
139.16015625
138.24462890625
138.24462890625
136.41357421875
134.58251953125
135.498046875
140.07568359375
150.146484375
156.55517578125
162.9638671875
161.1328125
159.3017578125
157.470703125
159.3017578125
168.45703125
174.86572265625
172.119140625
163.87939453125
165.71044921875
174.86572265625
167.54150390625
157.470703125
169.37255859375
176.69677734375
173.03466796875
181.2744140625
186.767578125
158.38623046875
151.06201171875
159.3017578125
156.55517578125
156.55517578125
162.9638671875
160.21728515625
162.9638671875
156.55517578125
150.146484375
134.58251953125
124.51171875
113.525390625
117.1875
113.525390625
112.60986328125
110.77880859375
97.0458984375
64.0869140625
32.958984375
22.88818359375
24.71923828125
31.1279296875
30.21240234375
26.55029296875
15.56396484375
-7.32421875
-14.6484375
-4.57763671875
0.91552734375
3.662109375
1.8310546875
11.90185546875
0.91552734375
-20.1416015625
-27.4658203125
-26.55029296875
-29.296875
-31.1279296875
-25.634765625
-32.04345703125
-41.19873046875
-44.86083984375
-42.1142578125
-46.69189453125
-49.4384765625
-35.70556640625
-26.55029296875
-27.4658203125
-26.55029296875
-21.05712890625
-17.39501953125
-12.8173828125
-11.90185546875
-17.39501953125
-23.8037109375
-28.38134765625
-36.62109375
-32.958984375
-32.04345703125
-29.296875
-25.634765625
-24.71923828125
-14.6484375
-20.1416015625
-21.97265625
-21.05712890625
-19.22607421875
-15.56396484375
1.8310546875
-1.8310546875
-9.1552734375
-24.71923828125
-49.4384765625
-52.18505859375
-38.4521484375
-30.21240234375
-21.05712890625
-4.57763671875
0.91552734375
3.662109375
10.07080078125
10.07080078125
1.8310546875
-5.4931640625
-9.1552734375
-6.40869140625
-14.6484375
-17.39501953125
-13.73291015625
-24.71923828125
-23.8037109375
-22.88818359375
-19.22607421875
-0.91552734375
3.662109375
-11.90185546875
-23.8037109375
-28.38134765625
-21.05712890625
-17.39501953125
-21.97265625
-32.958984375
-37.53662109375
-40.283203125
-28.38134765625
-7.32421875
-2.74658203125
-4.57763671875
-13.73291015625
-9.1552734375
-13.73291015625
-10.07080078125
-8.23974609375
-22.88818359375
-43.9453125
-47.607421875
-40.283203125
-34.7900390625
-29.296875
-29.296875
-43.02978515625
-43.9453125
-35.70556640625
-42.1142578125
-44.86083984375
-42.1142578125
-36.62109375
-32.04345703125
-37.53662109375
-32.04345703125
-29.296875
-33.87451171875
-59.50927734375
-56.7626953125
-43.9453125
-48.52294921875
-33.87451171875
-38.4521484375
-51.26953125
-51.26953125
-41.19873046875
-44.86083984375
-50.35400390625
-44.86083984375
-42.1142578125
-17.39501953125
-9.1552734375
-34.7900390625
-64.0869140625
-78.7353515625
-71.4111328125
-50.35400390625
-41.19873046875
-33.87451171875
-29.296875
-24.71923828125
-23.8037109375
-32.958984375
-49.4384765625
-75.98876953125
-76.904296875
-60.4248046875
-63.17138671875
-54.01611328125
-45.7763671875
-49.4384765625
-42.1142578125
-39.36767578125
-40.283203125
-39.36767578125
-34.7900390625
-40.283203125
-37.53662109375
-40.283203125
-40.283203125
-45.7763671875
-59.50927734375
-60.4248046875
-56.7626953125
-44.86083984375
-30.21240234375
-19.22607421875
-2.74658203125
2.74658203125
-0.91552734375
-7.32421875
-10.986328125
-12.8173828125
-14.6484375
-7.32421875
-0.91552734375
17.39501953125
22.88818359375
22.88818359375
30.21240234375
35.70556640625
55.84716796875
62.255859375
40.283203125
7.32421875
-2.74658203125
9.1552734375
3.662109375
-30.21240234375
-43.9453125
-30.21240234375
-22.88818359375
-12.8173828125
-12.8173828125
-15.56396484375
-26.55029296875
-21.97265625
-17.39501953125
-8.23974609375
-3.662109375
-10.07080078125
-25.634765625
-50.35400390625
-77.81982421875
-70.49560546875
-65.91796875
-69.580078125
-59.50927734375
-52.18505859375
-50.35400390625
-53.1005859375
-58.59375
-51.26953125
-43.9453125
-44.86083984375
-53.1005859375
-66.83349609375
-71.4111328125
-68.66455078125
-64.0869140625
-65.00244140625
-61.34033203125
-59.50927734375
-65.00244140625
-68.66455078125
-73.2421875
-72.32666015625
-56.7626953125
-38.4521484375
-38.4521484375
-21.05712890625
33.87451171875
86.97509765625
138.24462890625
169.37255859375
229.79736328125
349.7314453125
473.32763671875
607.91015625
768.12744140625
953.9794921875
1131.591796875
1271.66748046875
1466.6748046875
1588.43994140625
1624.1455078125
1630.55419921875
1610.41259765625
1486.81640625
1242.37060546875
1021.728515625
823.974609375
618.896484375
358.88671875
169.37255859375
95.21484375
58.59375
6.40869140625
-44.86083984375
-50.35400390625
-44.86083984375
-21.97265625
2.74658203125
25.634765625
44.86083984375
59.50927734375
61.34033203125
48.52294921875
43.02978515625
30.21240234375
15.56396484375
18.310546875
13.73291015625
1.8310546875
-7.32421875
-4.57763671875
-3.662109375
-3.662109375
-3.662109375
5.4931640625
9.1552734375
7.32421875
-0.91552734375
-7.32421875
-4.57763671875
-5.4931640625
13.73291015625
21.05712890625
19.22607421875
10.986328125
0.91552734375
0.91552734375
8.23974609375
4.57763671875
20.1416015625
29.296875
19.22607421875
11.90185546875
14.6484375
17.39501953125
28.38134765625
19.22607421875
12.8173828125
11.90185546875
8.23974609375
10.986328125
31.1279296875
42.1142578125
44.86083984375
39.36767578125
32.04345703125
43.02978515625
57.67822265625
59.50927734375
49.4384765625
32.958984375
45.7763671875
50.35400390625
47.607421875
58.59375
71.4111328125
74.15771484375
62.255859375
55.84716796875
55.84716796875
52.18505859375
56.7626953125
69.580078125
86.97509765625
86.0595703125
83.31298828125
76.904296875
72.32666015625
67.7490234375
78.7353515625
101.62353515625
108.94775390625
108.94775390625
108.0322265625
99.79248046875
93.3837890625
105.28564453125
110.77880859375
119.93408203125
118.10302734375
114.44091796875
113.525390625
111.6943359375
116.27197265625
124.51171875
133.6669921875
141.90673828125
147.39990234375
158.38623046875
152.89306640625
156.55517578125
147.39990234375
140.9912109375
130.92041015625
124.51171875
130.92041015625
142.822265625
157.470703125
164.794921875
163.87939453125
162.9638671875
161.1328125
164.794921875
166.6259765625
168.45703125
164.794921875
156.55517578125
150.146484375
141.90673828125
141.90673828125
140.07568359375
139.16015625
139.16015625
144.6533203125
147.39990234375
151.9775390625
140.07568359375
109.86328125
83.31298828125
75.0732421875
70.49560546875
76.904296875
75.0732421875
65.00244140625
45.7763671875
36.62109375
27.4658203125
18.310546875
-5.4931640625
-18.310546875
-17.39501953125
-15.56396484375
-12.8173828125
-11.90185546875
-16.4794921875
-18.310546875
-16.4794921875
-24.71923828125
-45.7763671875
-59.50927734375
-54.01611328125
-47.607421875
-54.01611328125
-65.91796875
-61.34033203125
-56.7626953125
-67.7490234375
-81.48193359375
-88.80615234375
-93.3837890625
-83.31298828125
-68.66455078125
-75.98876953125
-80.56640625
-65.00244140625
-55.84716796875
-54.01611328125
-55.84716796875
-54.931640625
-54.01611328125
-63.17138671875
-67.7490234375
-73.2421875
-65.00244140625
-73.2421875
-70.49560546875
-81.48193359375
-86.97509765625
-85.14404296875
-77.81982421875
-60.4248046875
-57.67822265625
-54.931640625
-48.52294921875
-51.26953125
-64.0869140625
-81.48193359375
-80.56640625
-85.14404296875
-81.48193359375
-73.2421875
-66.83349609375
-60.4248046875
-54.01611328125
-53.1005859375
-69.580078125
-67.7490234375
-65.91796875
-72.32666015625
-66.83349609375
-56.7626953125
-55.84716796875
-60.4248046875
-58.59375
-55.84716796875
-52.18505859375
-41.19873046875
-54.931640625
-71.4111328125
-63.17138671875
-48.52294921875
-47.607421875
-58.59375
-74.15771484375
-95.21484375
-103.45458984375
-98.876953125
-86.0595703125
-65.91796875
-53.1005859375
-44.86083984375
-38.4521484375
-40.283203125
-63.17138671875
-73.2421875
-67.7490234375
-65.91796875
-77.81982421875
-87.890625
-86.97509765625
-80.56640625
-64.0869140625
-56.7626953125
-86.97509765625
-103.45458984375
-108.0322265625
-95.21484375
-75.0732421875
-65.00244140625
-63.17138671875
-73.2421875
-73.2421875
-68.66455078125
-75.98876953125
-87.890625
-97.0458984375
-92.46826171875
-89.7216796875
-84.228515625
-80.56640625
-75.98876953125
-62.255859375
-61.34033203125
-65.00244140625
-75.98876953125
-89.7216796875
-99.79248046875
-106.201171875
-116.27197265625
-111.6943359375
-104.3701171875
-93.3837890625
-100.7080078125
-92.46826171875
-88.80615234375
-89.7216796875
-92.46826171875
-98.876953125
-91.552734375
-87.890625
-88.80615234375
-83.31298828125
-92.46826171875
-106.201171875
-112.60986328125
-109.86328125
-104.3701171875
-90.63720703125
-79.65087890625
-77.81982421875
-75.0732421875
-77.81982421875
-99.79248046875
-109.86328125
-114.44091796875
-108.94775390625
-93.3837890625
-83.31298828125
-94.29931640625
-99.79248046875
-99.79248046875
-98.876953125
-108.0322265625
-115.3564453125
-109.86328125
-108.0322265625
-101.62353515625
-91.552734375
-76.904296875
-78.7353515625
-88.80615234375
-95.21484375
-89.7216796875
-84.228515625
-91.552734375
-95.21484375
-98.876953125
-101.62353515625
-107.11669921875
-105.28564453125
-93.3837890625
-82.3974609375
-88.80615234375
-91.552734375
-75.0732421875
-65.91796875
-63.17138671875
-62.255859375
-63.17138671875
-64.0869140625
-63.17138671875
-44.86083984375
-37.53662109375
-43.9453125
-35.70556640625
-30.21240234375
-44.86083984375
-64.0869140625
-69.580078125
-58.59375
-32.04345703125
0.91552734375
3.662109375
-14.6484375
-17.39501953125
-11.90185546875
-19.22607421875
-34.7900390625
-43.02978515625
-65.00244140625
-75.98876953125
-53.1005859375
-45.7763671875
-54.01611328125
-61.34033203125
-67.7490234375
-63.17138671875
-63.17138671875
-71.4111328125
-75.0732421875
-86.0595703125
-83.31298828125
-86.97509765625
-92.46826171875
-97.96142578125
-93.3837890625
-90.63720703125
-97.96142578125
-104.3701171875
-99.79248046875
-93.3837890625
-97.96142578125
-103.45458984375
-111.6943359375
-88.80615234375
-85.14404296875
-103.45458984375
-123.59619140625
-129.08935546875
-108.94775390625
-97.96142578125
-120.849609375
-116.27197265625
-111.6943359375
-108.0322265625
-97.96142578125
-97.96142578125
-106.201171875
-113.525390625
-108.0322265625
-87.890625
-45.7763671875
-5.4931640625
40.283203125
99.79248046875
140.07568359375
229.79736328125
344.23828125
470.5810546875
629.8828125
816.650390625
1013.48876953125
1175.537109375
1344.90966796875
1510.6201171875
1581.11572265625
1575.62255859375
1556.396484375
1495.05615234375
1270.751953125
1028.13720703125
856.93359375
670.166015625
420.22705078125
155.6396484375
27.4658203125
10.07080078125
-4.57763671875
-43.02978515625
-81.48193359375
-85.14404296875
-66.83349609375
-54.931640625
-23.8037109375
12.8173828125
24.71923828125
22.88818359375
21.97265625
11.90185546875
-14.6484375
-31.1279296875
-32.04345703125
-21.97265625
-23.8037109375
-21.05712890625
-22.88818359375
-30.21240234375
-31.1279296875
-38.4521484375
-25.634765625
-32.04345703125
-51.26953125
-53.1005859375
-49.4384765625
-43.9453125
-33.87451171875
-43.02978515625
-46.69189453125
-43.02978515625
-47.607421875
-36.62109375
-20.1416015625
-18.310546875
-31.1279296875
-47.607421875
-39.36767578125
-26.55029296875
-27.4658203125
-32.04345703125
-22.88818359375
-27.4658203125
-40.283203125
-40.283203125
-25.634765625
-14.6484375
-15.56396484375
-6.40869140625
0.91552734375
7.32421875
0
-5.4931640625
-13.73291015625
-13.73291015625
-13.73291015625
-8.23974609375
14.6484375
24.71923828125
21.05712890625
10.07080078125
3.662109375
9.1552734375
16.4794921875
26.55029296875
32.04345703125
36.62109375
31.1279296875
21.05712890625
5.4931640625
29.296875
36.62109375
33.87451171875
25.634765625
26.55029296875
37.53662109375
44.86083984375
51.26953125
64.0869140625
67.7490234375
63.17138671875
63.17138671875
65.91796875
71.4111328125
69.580078125
72.32666015625
76.904296875
66.83349609375
64.0869140625
78.7353515625
94.29931640625
104.3701171875
110.77880859375
119.0185546875
108.0322265625
93.3837890625
80.56640625
78.7353515625
90.63720703125
103.45458984375
107.11669921875
110.77880859375
112.60986328125
110.77880859375
110.77880859375
103.45458984375
117.1875
132.75146484375
135.498046875
135.498046875
140.9912109375
151.06201171875
146.484375
130.0048828125
119.0185546875
117.1875
132.75146484375
136.41357421875
119.93408203125
103.45458984375
92.46826171875
84.228515625
90.63720703125
95.21484375
98.876953125
92.46826171875
88.80615234375
86.0595703125
76.904296875
66.83349609375
58.59375
41.19873046875
29.296875
16.4794921875
12.8173828125
-0.91552734375
-15.56396484375
-37.53662109375
-52.18505859375
-54.931640625
-61.34033203125
-66.83349609375
-65.00244140625
-64.0869140625
-57.67822265625
-55.84716796875
-56.7626953125
-57.67822265625
-55.84716796875
-59.50927734375
-73.2421875
-86.0595703125
-83.31298828125
-86.97509765625
-76.904296875
-75.0732421875
-79.65087890625
-82.3974609375
-88.80615234375
-99.79248046875
-98.876953125
-103.45458984375
-102.5390625
-94.29931640625
-85.14404296875
-90.63720703125
-103.45458984375
-91.552734375
-81.48193359375
-76.904296875
-88.80615234375
-93.3837890625
-90.63720703125
-86.97509765625
-94.29931640625
-101.62353515625
-103.45458984375
-103.45458984375
-93.3837890625
-84.228515625
-85.14404296875
-84.228515625
-76.904296875
-69.580078125
-73.2421875
-73.2421875
-79.65087890625
-88.80615234375
-97.96142578125
-109.86328125
-104.3701171875
-92.46826171875
-85.14404296875
-68.66455078125
-69.580078125
-85.14404296875
-91.552734375
-90.63720703125
-81.48193359375
-75.0732421875
-69.580078125
-64.0869140625
-74.15771484375
-77.81982421875
-87.890625
-93.3837890625
-91.552734375
-88.80615234375
-94.29931640625
-96.13037109375
-98.876953125
-100.7080078125
-97.96142578125
-89.7216796875
-86.0595703125
-86.97509765625
-75.0732421875
-71.4111328125
-66.83349609375
-68.66455078125
-74.15771484375
-77.81982421875
-76.904296875
-87.890625
-101.62353515625
-97.0458984375
-101.62353515625
-99.79248046875
-93.3837890625
-92.46826171875
-106.201171875
-106.201171875
-101.62353515625
-92.46826171875
-75.0732421875
-81.48193359375
-73.2421875
-80.56640625
-88.80615234375
-94.29931640625
-103.45458984375
-113.525390625
-106.201171875
-95.21484375
-96.13037109375
-97.96142578125
-106.201171875
-102.5390625
-97.0458984375
-97.96142578125
-99.79248046875
-94.29931640625
-91.552734375
-101.62353515625
-102.5390625
-96.13037109375
-107.11669921875
-123.59619140625
-126.3427734375
-124.51171875
-117.1875
-108.0322265625
-89.7216796875
-85.14404296875
-96.13037109375
-108.0322265625
-108.94775390625
-105.28564453125
-97.96142578125
-106.201171875
-109.86328125
-96.13037109375
-99.79248046875
-96.13037109375
-87.890625
-89.7216796875
-104.3701171875
-113.525390625
-117.1875
-109.86328125
-106.201171875
-95.21484375
-89.7216796875
-97.96142578125
-109.86328125
-104.3701171875
-95.21484375
-95.21484375
-96.13037109375
-100.7080078125
-108.0322265625
-120.849609375
-111.6943359375
-108.0322265625
-105.28564453125
-102.5390625
-114.44091796875
-113.525390625
-100.7080078125
-97.96142578125
-106.201171875
-98.876953125
-93.3837890625
-103.45458984375
-116.27197265625
-119.93408203125
-118.10302734375
-108.0322265625
-101.62353515625
-93.3837890625
-83.31298828125
-86.97509765625
-97.96142578125
-97.96142578125
-92.46826171875
-89.7216796875
-97.96142578125
-70.49560546875
-45.7763671875
-63.17138671875
-87.890625
-95.21484375
-89.7216796875
-74.15771484375
-64.0869140625
-58.59375
-41.19873046875
-38.4521484375
-32.958984375
-27.4658203125
-28.38134765625
-19.22607421875
-7.32421875
-9.1552734375
-24.71923828125
-27.4658203125
-12.8173828125
-16.4794921875
-27.4658203125
-38.4521484375
-42.1142578125
-47.607421875
-44.86083984375
-52.18505859375
-49.4384765625
-39.36767578125
-46.69189453125
-63.17138671875
-65.91796875
-66.83349609375
-81.48193359375
-87.890625
-86.97509765625
-82.3974609375
-89.7216796875
-93.3837890625
-91.552734375
-90.63720703125
-94.29931640625
-82.3974609375
-83.31298828125
-92.46826171875
-87.890625
-98.876953125
-101.62353515625
-106.201171875
-104.3701171875
-94.29931640625
-85.14404296875
-86.97509765625
-82.3974609375
-100.7080078125
-98.876953125
-92.46826171875
-88.80615234375
-97.0458984375
-108.0322265625
-110.77880859375
-112.60986328125
-94.29931640625
-75.0732421875
-62.255859375
-24.71923828125
20.1416015625
45.7763671875
93.3837890625
137.3291015625
226.13525390625
343.32275390625
471.49658203125
630.79833984375
812.98828125
983.2763671875
1116.943359375
1270.751953125
1453.857421875
1554.5654296875
1583.8623046875
1579.28466796875
1538.0859375
1335.75439453125
1091.30859375
886.23046875
703.125
500.79345703125
267.333984375
135.498046875
86.0595703125
43.02978515625
-7.32421875
-43.02978515625
-75.98876953125
-70.49560546875
-54.01611328125
-31.1279296875
-11.90185546875
4.57763671875
11.90185546875
20.1416015625
10.986328125
3.662109375
3.662109375
-5.4931640625
-0.91552734375
-8.23974609375
-10.07080078125
-14.6484375
-12.8173828125
-32.04345703125
-38.4521484375
-45.7763671875
-38.4521484375
-24.71923828125
-19.22607421875
-13.73291015625
-20.1416015625
-10.986328125
-13.73291015625
-21.05712890625
-22.88818359375
-17.39501953125
-10.07080078125
1.8310546875
3.662109375
-8.23974609375
-15.56396484375
-10.07080078125
-11.90185546875
-7.32421875
6.40869140625
11.90185546875
17.39501953125
9.1552734375
10.07080078125
3.662109375
-2.74658203125
-11.90185546875
-2.74658203125
15.56396484375
24.71923828125
30.21240234375
31.1279296875
29.296875
20.1416015625
7.32421875
17.39501953125
24.71923828125
30.21240234375
32.04345703125
35.70556640625
39.36767578125
37.53662109375
42.1142578125
43.02978515625
32.04345703125
41.19873046875
52.18505859375
54.931640625
61.34033203125
67.7490234375
65.91796875
74.15771484375
68.66455078125
67.7490234375
55.84716796875
48.52294921875
43.9453125
57.67822265625
67.7490234375
76.904296875
94.29931640625
97.96142578125
98.876953125
80.56640625
67.7490234375
80.56640625
78.7353515625
81.48193359375
112.60986328125
113.525390625
108.94775390625
118.10302734375
127.25830078125
136.41357421875
137.3291015625
134.58251953125
140.07568359375
146.484375
148.3154296875
137.3291015625
124.51171875
116.27197265625
116.27197265625
129.08935546875
140.07568359375
144.6533203125
145.56884765625
142.822265625
151.06201171875
150.146484375
136.41357421875
137.3291015625
148.3154296875
152.89306640625
145.56884765625
142.822265625
141.90673828125
142.822265625
137.3291015625
137.3291015625
146.484375
147.39990234375
142.822265625
131.8359375
111.6943359375
95.21484375
82.3974609375
75.0732421875
83.31298828125
69.580078125
51.26953125
37.53662109375
28.38134765625
21.97265625
19.22607421875
10.07080078125
9.1552734375
7.32421875
7.32421875
1.8310546875
-10.07080078125
-27.4658203125
-30.21240234375
-42.1142578125
-41.19873046875
-40.283203125
-52.18505859375
-60.4248046875
-43.02978515625
-41.19873046875
-47.607421875
-73.2421875
-86.97509765625
-65.00244140625
-57.67822265625
-49.4384765625
-51.26953125
-57.67822265625
-57.67822265625
-67.7490234375
-73.2421875
-58.59375
-58.59375
-56.7626953125
-47.607421875
-50.35400390625
-45.7763671875
-56.7626953125
-58.59375
-71.4111328125
-82.3974609375
-72.32666015625
-66.83349609375
-50.35400390625
-52.18505859375
-69.580078125
-62.255859375
-58.59375
-59.50927734375
-56.7626953125
-54.01611328125
-53.1005859375
-43.9453125
-46.69189453125
-41.19873046875
-47.607421875
-65.00244140625
-68.66455078125
-74.15771484375
-70.49560546875
-56.7626953125
-47.607421875
-37.53662109375
-29.296875
-31.1279296875
-38.4521484375
-39.36767578125
-54.01611328125
-64.0869140625
-71.4111328125
-70.49560546875
-66.83349609375
-65.91796875
-53.1005859375
-42.1142578125
-35.70556640625
-32.04345703125
-44.86083984375
-48.52294921875
-50.35400390625
-42.1142578125
-43.02978515625
-43.9453125
-51.26953125
-51.26953125
-47.607421875
-34.7900390625
-43.02978515625
-71.4111328125
-93.3837890625
-88.80615234375
-68.66455078125
-59.50927734375
-49.4384765625
-43.9453125
-46.69189453125
-50.35400390625
-49.4384765625
-63.17138671875
-76.904296875
-77.81982421875
-68.66455078125
-65.00244140625
-56.7626953125
-61.34033203125
-60.4248046875
-56.7626953125
-56.7626953125
-57.67822265625
-62.255859375
-68.66455078125
-74.15771484375
-92.46826171875
-96.13037109375
-74.15771484375
-69.580078125
-65.00244140625
-67.7490234375
-69.580078125
-59.50927734375
-64.0869140625
-73.2421875
-85.14404296875
-88.80615234375
-85.14404296875
-88.80615234375
-97.96142578125
-93.3837890625
-75.0732421875
-61.34033203125
-65.91796875
-100.7080078125
-125.42724609375
-114.44091796875
-95.21484375
-82.3974609375
-68.66455078125
-57.67822265625
-51.26953125
-67.7490234375
-86.97509765625
-87.890625
-74.15771484375
-67.7490234375
-65.00244140625
-68.66455078125
-75.98876953125
-90.63720703125
-101.62353515625
-108.0322265625
-103.45458984375
-98.876953125
-89.7216796875
-78.7353515625
-81.48193359375
-89.7216796875
-91.552734375
-83.31298828125
-87.890625
-92.46826171875
-86.0595703125
-78.7353515625
-74.15771484375
-73.2421875
-84.228515625
-102.5390625
-104.3701171875
-92.46826171875
-75.0732421875
-56.7626953125
-60.4248046875
-71.4111328125
-73.2421875
-69.580078125
-64.0869140625
-59.50927734375
-58.59375
-60.4248046875
-57.67822265625
-52.18505859375
-47.607421875
-41.19873046875
-28.38134765625
-9.1552734375
-3.662109375
0
-0.91552734375
8.23974609375
14.6484375
10.986328125
2.74658203125
-1.8310546875
-21.05712890625
-49.4384765625
-44.86083984375
-33.87451171875
-43.9453125
-54.931640625
-51.26953125
-42.1142578125
-42.1142578125
-54.01611328125
-60.4248046875
-64.0869140625
-57.67822265625
-54.931640625
-56.7626953125
-58.59375
-54.01611328125
-69.580078125
-99.79248046875
-115.3564453125
-110.77880859375
-107.11669921875
-101.62353515625
-98.876953125
-96.13037109375
-98.876953125
-88.80615234375
-81.48193359375
-87.890625
-92.46826171875
-88.80615234375
-95.21484375
-100.7080078125
-97.0458984375
-90.63720703125
-75.98876953125
-74.15771484375
-75.98876953125
-76.904296875
-82.3974609375
-96.13037109375
-104.3701171875
-97.0458984375
-84.228515625
-69.580078125
-56.7626953125
-28.38134765625
-0.91552734375
44.86083984375
95.21484375
153.80859375
250.8544921875
368.0419921875
487.060546875
648.193359375
840.4541015625
1033.63037109375
1184.6923828125
1355.89599609375
1520.69091796875
1579.28466796875
1593.017578125
1600.341796875
1549.072265625
1315.61279296875
1043.701171875
819.39697265625
626.220703125
422.9736328125
203.2470703125
98.876953125
65.00244140625
34.7900390625
-6.40869140625
-56.7626953125
-97.0458984375
-75.98876953125
-48.52294921875
-25.634765625
-4.57763671875
10.986328125
6.40869140625
-10.986328125
-19.22607421875
-7.32421875
-9.1552734375
-21.97265625
-19.22607421875
-21.05712890625
-19.22607421875
-10.07080078125
-8.23974609375
-7.32421875
-16.4794921875
-45.7763671875
-64.0869140625
-62.255859375
-40.283203125
-45.7763671875
-43.02978515625
-26.55029296875
-19.22607421875
-46.69189453125
-88.80615234375
-93.3837890625
-69.580078125
-46.69189453125
-29.296875
-20.1416015625
-10.986328125
-16.4794921875
-29.296875
-29.296875
-20.1416015625
-8.23974609375
-16.4794921875
-26.55029296875
-30.21240234375
-26.55029296875
-21.97265625
-21.97265625
-24.71923828125
-12.8173828125
-16.4794921875
-23.8037109375
-21.05712890625
-16.4794921875
-7.32421875
-2.74658203125
9.1552734375
6.40869140625
11.90185546875
24.71923828125
21.05712890625
2.74658203125
-0.91552734375
10.986328125
19.22607421875
24.71923828125
24.71923828125
22.88818359375
27.4658203125
10.986328125
-6.40869140625
-2.74658203125
4.57763671875
14.6484375
16.4794921875
6.40869140625
23.8037109375
36.62109375
