ECG
-64.0869140625
-53.1005859375
-59.50927734375
-71.4111328125
-86.97509765625
-87.890625
-80.56640625
-79.65087890625
-76.904296875
-68.66455078125
-70.49560546875
-73.2421875
-75.0732421875
-65.91796875
-54.01611328125
-51.26953125
-54.931640625
-59.50927734375
-65.00244140625
-63.17138671875
-66.83349609375
-58.59375
-59.50927734375
-59.50927734375
-67.7490234375
-77.81982421875
-84.228515625
-79.65087890625
-67.7490234375
-66.83349609375
-61.34033203125
-58.59375
-58.59375
-60.4248046875
-59.50927734375
-58.59375
-65.91796875
-65.00244140625
-71.4111328125
-71.4111328125
-65.00244140625
-56.7626953125
-63.17138671875
-71.4111328125
-65.00244140625
-60.4248046875
-63.17138671875
-54.931640625
-40.283203125
-50.35400390625
-58.59375
-52.18505859375
-41.19873046875
-43.02978515625
-35.70556640625
-27.4658203125
-16.4794921875
-11.90185546875
1.8310546875
13.73291015625
36.62109375
57.67822265625
55.84716796875
60.4248046875
71.4111328125
74.15771484375
65.91796875
56.7626953125
54.931640625
54.01611328125
70.49560546875
74.15771484375
76.904296875
78.7353515625
79.65087890625
79.65087890625
71.4111328125
64.0869140625
54.931640625
38.4521484375
35.70556640625
29.296875
14.6484375
10.07080078125
0.91552734375
-10.986328125
-23.8037109375
-21.05712890625
-26.55029296875
-22.88818359375
-13.73291015625
-10.986328125
-23.8037109375
-30.21240234375
-33.87451171875
-40.283203125
-25.634765625
-20.1416015625
-33.87451171875
-48.52294921875
-47.607421875
-41.19873046875
-38.4521484375
-40.283203125
-35.70556640625
-31.1279296875
-31.1279296875
-32.04345703125
-31.1279296875
-43.02978515625
-44.86083984375
-34.7900390625
-25.634765625
5.4931640625
49.4384765625
78.7353515625
126.3427734375
167.54150390625
229.79736328125
342.4072265625
461.42578125
586.85302734375
753.47900390625
942.07763671875
1115.1123046875
1248.779296875
1426.3916015625
1557.31201171875
1607.666015625
1642.4560546875
1648.86474609375
1566.46728515625
1333.92333984375
1105.04150390625
910.0341796875
720.52001953125
494.384765625
295.71533203125
212.40234375
151.06201171875
108.94775390625
44.86083984375
-7.32421875
-34.7900390625
-22.88818359375
6.40869140625
31.1279296875
60.4248046875
77.81982421875
71.4111328125
58.59375
47.607421875
38.4521484375
37.53662109375
32.958984375
30.21240234375
20.1416015625
19.22607421875
14.6484375
16.4794921875
10.986328125
12.8173828125
18.310546875
21.97265625
18.310546875
16.4794921875
12.8173828125
10.07080078125
8.23974609375
7.32421875
18.310546875
19.22607421875
14.6484375
4.57763671875
6.40869140625
18.310546875
29.296875
28.38134765625
28.38134765625
36.62109375
38.4521484375
38.4521484375
43.02978515625
37.53662109375
33.87451171875
37.53662109375
43.9453125
38.4521484375
34.7900390625
42.1142578125
48.52294921875
44.86083984375
36.62109375
40.283203125
53.1005859375
59.50927734375
65.91796875
70.49560546875
60.4248046875
65.91796875
72.32666015625
52.18505859375
57.67822265625
67.7490234375
58.59375
65.91796875
60.4248046875
67.7490234375
83.31298828125
86.0595703125
87.890625
97.96142578125
97.96142578125
97.96142578125
109.86328125
108.0322265625
111.6943359375
118.10302734375
106.201171875
94.29931640625
91.552734375
98.876953125
110.77880859375
118.10302734375
119.0185546875
131.8359375
137.3291015625
133.6669921875
133.6669921875
139.16015625
136.41357421875
132.75146484375
134.58251953125
139.16015625
138.24462890625
141.90673828125
150.146484375
158.38623046875
154.72412109375
151.9775390625
143.73779296875
145.56884765625
149.23095703125
152.89306640625
156.55517578125
155.6396484375
153.80859375
157.470703125
160.21728515625
161.1328125
165.71044921875
159.3017578125
153.80859375
149.23095703125
151.06201171875
148.3154296875
136.41357421875
130.92041015625
149.23095703125
158.38623046875
161.1328125
160.21728515625
153.80859375
150.146484375
151.06201171875
148.3154296875
139.16015625
140.9912109375
130.0048828125
127.25830078125
121.76513671875
103.45458984375
91.552734375
83.31298828125
88.80615234375
88.80615234375
80.56640625
68.66455078125
60.4248046875
55.84716796875
56.7626953125
51.26953125
51.26953125
43.9453125
30.21240234375
37.53662109375
36.62109375
21.05712890625
8.23974609375
8.23974609375
12.8173828125
12.8173828125
14.6484375
13.73291015625
12.8173828125
18.310546875
13.73291015625
10.986328125
13.73291015625
5.4931640625
1.8310546875
3.662109375
5.4931640625
-2.74658203125
-7.32421875
-8.23974609375
-17.39501953125
-11.90185546875
3.662109375
0
-0.91552734375
0
10.986328125
14.6484375
13.73291015625
2.74658203125
-0.91552734375
0.91552734375
-7.32421875
-3.662109375
8.23974609375
15.56396484375
0.91552734375
6.40869140625
10.986328125
16.4794921875
21.97265625
16.4794921875
6.40869140625
4.57763671875
10.986328125
13.73291015625
7.32421875
6.40869140625
15.56396484375
15.56396484375
-0.91552734375
-0.91552734375
-3.662109375
3.662109375
8.23974609375
15.56396484375
8.23974609375
5.4931640625
15.56396484375
22.88818359375
21.05712890625
0.91552734375
-12.8173828125
-4.57763671875
8.23974609375
6.40869140625
7.32421875
9.1552734375
3.662109375
-8.23974609375
-12.8173828125
-1.8310546875
13.73291015625
15.56396484375
10.986328125
7.32421875
-4.57763671875
-4.57763671875
0.91552734375
3.662109375
1.8310546875
3.662109375
2.74658203125
-10.986328125
-8.23974609375
-1.8310546875
-5.4931640625
-6.40869140625
-1.8310546875
2.74658203125
-1.8310546875
-3.662109375
-2.74658203125
-8.23974609375
-21.97265625
-22.88818359375
-16.4794921875
-13.73291015625
-10.986328125
-11.90185546875
-10.07080078125
-10.986328125
-6.40869140625
-11.90185546875
-12.8173828125
-10.986328125
-12.8173828125
-16.4794921875
-17.39501953125
-22.88818359375
-27.4658203125
-26.55029296875
-28.38134765625
-20.1416015625
-14.6484375
-15.56396484375
-18.310546875
-23.8037109375
-23.8037109375
-50.35400390625
-55.84716796875
-43.9453125
-30.21240234375
-21.97265625
-12.8173828125
-9.1552734375
-16.4794921875
-27.4658203125
-32.958984375
-27.4658203125
-25.634765625
-27.4658203125
-32.958984375
-31.1279296875
-28.38134765625
-21.97265625
-16.4794921875
-21.05712890625
-19.22607421875
-20.1416015625
-23.8037109375
-24.71923828125
-29.296875
-42.1142578125
-41.19873046875
-38.4521484375
-36.62109375
-29.296875
-26.55029296875
-19.22607421875
-20.1416015625
-27.4658203125
-30.21240234375
-27.4658203125
-24.71923828125
-25.634765625
-32.958984375
-32.04345703125
-37.53662109375
-38.4521484375
-26.55029296875
-17.39501953125
-27.4658203125
-46.69189453125
-73.2421875
-65.91796875
-42.1142578125
-22.88818359375
-22.88818359375
-21.05712890625
-21.05712890625
-26.55029296875
-34.7900390625
-41.19873046875
-48.52294921875
-43.9453125
-33.87451171875
-25.634765625
-27.4658203125
-38.4521484375
-39.36767578125
-39.36767578125
-45.7763671875
-43.9453125
-32.958984375
-33.87451171875
-24.71923828125
-32.958984375
-42.1142578125
-46.69189453125
-41.19873046875
-49.4384765625
-58.59375
-48.52294921875
-43.02978515625
-43.02978515625
-33.87451171875
-33.87451171875
-43.02978515625
-46.69189453125
-49.4384765625
-43.9453125
-38.4521484375
-36.62109375
-39.36767578125
-33.87451171875
-31.1279296875
-42.1142578125
-54.01611328125
-48.52294921875
-48.52294921875
-59.50927734375
-59.50927734375
-43.02978515625
-32.958984375
-33.87451171875
-36.62109375
-31.1279296875
-20.1416015625
-21.05712890625
-19.22607421875
-21.97265625
-18.310546875
-11.90185546875
-10.986328125
-21.05712890625
-15.56396484375
0
7.32421875
18.310546875
22.88818359375
39.36767578125
62.255859375
69.580078125
70.49560546875
91.552734375
107.11669921875
92.46826171875
75.98876953125
71.4111328125
71.4111328125
65.00244140625
57.67822265625
46.69189453125
39.36767578125
33.87451171875
35.70556640625
48.52294921875
48.52294921875
41.19873046875
26.55029296875
27.4658203125
20.1416015625
9.1552734375
-10.07080078125
-30.21240234375
-49.4384765625
-52.18505859375
-47.607421875
-42.1142578125
-36.62109375
-30.21240234375
-31.1279296875
-35.70556640625
-38.4521484375
-42.1142578125
-42.1142578125
-49.4384765625
-49.4384765625
-45.7763671875
-45.7763671875
-42.1142578125
-44.86083984375
-49.4384765625
-54.931640625
-58.59375
-61.34033203125
-54.931640625
-48.52294921875
-44.86083984375
-56.7626953125
-67.7490234375
-73.2421875
-52.18505859375
-15.56396484375
35.70556640625
73.2421875
108.94775390625
150.146484375
235.29052734375
354.30908203125
478.82080078125
618.896484375
793.76220703125
982.36083984375
1151.7333984375
1305.5419921875
1486.81640625
1612.24365234375
1641.54052734375
1651.611328125
1630.55419921875
1522.52197265625
1277.16064453125
1063.8427734375
874.32861328125
654.60205078125
391.845703125
167.54150390625
91.552734375
61.34033203125
25.634765625
-5.4931640625
-24.71923828125
-19.22607421875
7.32421875
32.04345703125
50.35400390625
62.255859375
66.83349609375
58.59375
45.7763671875
27.4658203125
11.90185546875
4.57763671875
7.32421875
7.32421875
0.91552734375
-6.40869140625
-0.91552734375
-6.40869140625
-15.56396484375
-12.8173828125
-7.32421875
-6.40869140625
-5.4931640625
2.74658203125
-9.1552734375
-22.88818359375
-38.4521484375
-22.88818359375
-10.986328125
-1.8310546875
-4.57763671875
-0.91552734375
0
7.32421875
6.40869140625
5.4931640625
6.40869140625
11.90185546875
10.986328125
0
-5.4931640625
6.40869140625
9.1552734375
-4.57763671875
-10.986328125
-6.40869140625
6.40869140625
20.1416015625
21.05712890625
22.88818359375
21.97265625
22.88818359375
29.296875
30.21240234375
37.53662109375
43.9453125
43.02978515625
25.634765625
10.986328125
20.1416015625
28.38134765625
43.9453125
53.1005859375
59.50927734375
51.26953125
46.69189453125
41.19873046875
43.9453125
50.35400390625
51.26953125
60.4248046875
64.0869140625
73.2421875
61.34033203125
68.66455078125
72.32666015625
68.66455078125
77.81982421875
75.98876953125
79.65087890625
73.2421875
69.580078125
68.66455078125
75.0732421875
83.31298828125
87.890625
88.80615234375
90.63720703125
94.29931640625
93.3837890625
98.876953125
100.7080078125
107.11669921875
104.3701171875
97.0458984375
97.96142578125
103.45458984375
106.201171875
111.6943359375
118.10302734375
114.44091796875
116.27197265625
130.92041015625
139.16015625
127.25830078125
97.0458984375
75.0732421875
80.56640625
92.46826171875
103.45458984375
111.6943359375
133.6669921875
136.41357421875
133.6669921875
129.08935546875
126.3427734375
127.25830078125
115.3564453125
106.201171875
102.5390625
113.525390625
110.77880859375
113.525390625
106.201171875
89.7216796875
84.228515625
82.3974609375
82.3974609375
72.32666015625
69.580078125
58.59375
49.4384765625
39.36767578125
32.04345703125
26.55029296875
21.97265625
13.73291015625
12.8173828125
6.40869140625
-8.23974609375
-21.97265625
-17.39501953125
-25.634765625
-35.70556640625
-34.7900390625
-34.7900390625
-34.7900390625
-32.04345703125
-37.53662109375
-44.86083984375
-65.00244140625
-62.255859375
-55.84716796875
-48.52294921875
-50.35400390625
-54.01611328125
-53.1005859375
-59.50927734375
-66.83349609375
-54.931640625
-50.35400390625
-50.35400390625
-53.1005859375
-51.26953125
-56.7626953125
-68.66455078125
-64.0869140625
-62.255859375
-60.4248046875
-59.50927734375
-60.4248046875
-57.67822265625
-64.0869140625
-59.50927734375
-56.7626953125
-54.931640625
-46.69189453125
-44.86083984375
-47.607421875
-54.931640625
-54.01611328125
-53.1005859375
-54.01611328125
-54.01611328125
-52.18505859375
-47.607421875
-46.69189453125
-43.9453125
-49.4384765625
-48.52294921875
-41.19873046875
-47.607421875
-48.52294921875
-61.34033203125
-65.00244140625
-59.50927734375
-46.69189453125
-34.7900390625
-34.7900390625
-47.607421875
-60.4248046875
-55.84716796875
-43.9453125
-41.19873046875
-52.18505859375
-55.84716796875
-57.67822265625
-54.931640625
-47.607421875
-41.19873046875
-44.86083984375
-49.4384765625
-43.9453125
-50.35400390625
-59.50927734375
-58.59375
-64.0869140625
-54.931640625
-47.607421875
-47.607421875
-50.35400390625
-54.01611328125
-59.50927734375
-65.91796875
-66.83349609375
-61.34033203125
-55.84716796875
-56.7626953125
-59.50927734375
-63.17138671875
-54.931640625
-55.84716796875
-62.255859375
-71.4111328125
-67.7490234375
-65.91796875
-75.98876953125
-80.56640625
-74.15771484375
-67.7490234375
-75.0732421875
-64.0869140625
-62.255859375
-66.83349609375
-65.00244140625
-69.580078125
-73.2421875
-82.3974609375
-80.56640625
-66.83349609375
-72.32666015625
-75.98876953125
-75.0732421875
-83.31298828125
-95.21484375
-85.14404296875
-75.98876953125
-68.66455078125
-67.7490234375
-72.32666015625
-76.904296875
-80.56640625
-82.3974609375
-82.3974609375
-73.2421875
-81.48193359375
-91.552734375
-94.29931640625
-90.63720703125
-90.63720703125
-79.65087890625
-61.34033203125
-63.17138671875
-89.7216796875
-111.6943359375
-108.94775390625
-93.3837890625
-84.228515625
-84.228515625
-70.49560546875
-60.4248046875
-73.2421875
-82.3974609375
-77.81982421875
-74.15771484375
-66.83349609375
-77.81982421875
-82.3974609375
-80.56640625
-80.56640625
-74.15771484375
-75.0732421875
-80.56640625
-84.228515625
-86.0595703125
-85.14404296875
-72.32666015625
-74.15771484375
-73.2421875
-76.904296875
-85.14404296875
-81.48193359375
-85.14404296875
-96.13037109375
-95.21484375
-91.552734375
-90.63720703125
-77.81982421875
-77.81982421875
-84.228515625
-97.0458984375
-102.5390625
-106.201171875
-99.79248046875
-90.63720703125
-92.46826171875
-91.552734375
-82.3974609375
-84.228515625
-86.97509765625
-90.63720703125
-87.890625
-85.14404296875
-80.56640625
-75.0732421875
-69.580078125
-83.31298828125
-86.0595703125
-86.97509765625
-79.65087890625
-77.81982421875
-83.31298828125
-85.14404296875
-89.7216796875
-94.29931640625
-97.96142578125
-98.876953125
-94.29931640625
-83.31298828125
-86.0595703125
-90.63720703125
-91.552734375
-87.890625
-83.31298828125
-83.31298828125
-93.3837890625
-97.96142578125
-92.46826171875
-80.56640625
-68.66455078125
-77.81982421875
-107.11669921875
-111.6943359375
-91.552734375
-88.80615234375
-104.3701171875
-102.5390625
-91.552734375
-83.31298828125
-79.65087890625
-75.0732421875
-61.34033203125
-50.35400390625
-53.1005859375
-57.67822265625
-59.50927734375
-55.84716796875
-43.02978515625
-32.958984375
-21.05712890625
-3.662109375
0.91552734375
7.32421875
24.71923828125
24.71923828125
26.55029296875
38.4521484375
51.26953125
39.36767578125
22.88818359375
15.56396484375
18.310546875
16.4794921875
20.1416015625
18.310546875
20.1416015625
17.39501953125
18.310546875
2.74658203125
-11.90185546875
-20.1416015625
-23.8037109375
-26.55029296875
-35.70556640625
-52.18505859375
-70.49560546875
-83.31298828125
-84.228515625
-80.56640625
-78.7353515625
-74.15771484375
-78.7353515625
-85.14404296875
-86.97509765625
-86.97509765625
-82.3974609375
-86.0595703125
-95.21484375
-100.7080078125
-97.96142578125
-91.552734375
-84.228515625
-82.3974609375
-89.7216796875
-91.552734375
-93.3837890625
-94.29931640625
-89.7216796875
-90.63720703125
-97.96142578125
-105.28564453125
-105.28564453125
-92.46826171875
-83.31298828125
-60.4248046875
-32.04345703125
7.32421875
40.283203125
93.3837890625
144.6533203125
245.361328125
363.46435546875
484.31396484375
653.6865234375
847.7783203125
1029.052734375
1181.0302734375
1340.33203125
1487.73193359375
1582.94677734375
1584.77783203125
1571.044921875
1540.83251953125
1333.92333984375
1105.95703125
917.3583984375
719.6044921875
491.63818359375
232.5439453125
72.32666015625
27.4658203125
4.57763671875
-27.4658203125
-48.52294921875
-51.26953125
-21.05712890625
-6.40869140625
17.39501953125
30.21240234375
29.296875
14.6484375
15.56396484375
14.6484375
-12.8173828125
-24.71923828125
-27.4658203125
-27.4658203125
-23.8037109375
-26.55029296875
-22.88818359375
-21.97265625
-23.8037109375
-27.4658203125
-30.21240234375
-30.21240234375
-27.4658203125
-32.958984375
-31.1279296875
-33.87451171875
-29.296875
-31.1279296875
-26.55029296875
-22.88818359375
-27.4658203125
-32.958984375
-35.70556640625
-30.21240234375
-23.8037109375
-21.97265625
-21.97265625
-26.55029296875
-29.296875
-24.71923828125
-13.73291015625
-10.986328125
-12.8173828125
-11.90185546875
-8.23974609375
-7.32421875
6.40869140625
12.8173828125
8.23974609375
0
0.91552734375
7.32421875
7.32421875
1.8310546875
4.57763671875
6.40869140625
21.97265625
29.296875
21.97265625
16.4794921875
22.88818359375
31.1279296875
42.1142578125
41.19873046875
54.01611328125
57.67822265625
47.607421875
46.69189453125
46.69189453125
44.86083984375
52.18505859375
56.7626953125
65.00244140625
70.49560546875
73.2421875
77.81982421875
78.7353515625
71.4111328125
67.7490234375
66.83349609375
81.48193359375
86.0595703125
87.890625
89.7216796875
91.552734375
87.890625
90.63720703125
97.0458984375
101.62353515625
94.29931640625
97.0458984375
103.45458984375
109.86328125
109.86328125
113.525390625
115.3564453125
114.44091796875
119.93408203125
127.25830078125
121.76513671875
120.849609375
126.3427734375
126.3427734375
132.75146484375
133.6669921875
129.08935546875
132.75146484375
130.0048828125
135.498046875
135.498046875
134.58251953125
138.24462890625
133.6669921875
130.0048828125
135.498046875
131.8359375
132.75146484375
130.0048828125
131.8359375
138.24462890625
137.3291015625
128.173828125
119.0185546875
121.76513671875
114.44091796875
108.0322265625
110.77880859375
111.6943359375
98.876953125
93.3837890625
93.3837890625
83.31298828125
75.0732421875
74.15771484375
64.0869140625
58.59375
60.4248046875
42.1142578125
13.73291015625
5.4931640625
7.32421875
14.6484375
12.8173828125
3.662109375
3.662109375
0
-10.986328125
-5.4931640625
-0.91552734375
3.662109375
-11.90185546875
-27.4658203125
-22.88818359375
-21.05712890625
-13.73291015625
-14.6484375
-12.8173828125
-10.986328125
-13.73291015625
-16.4794921875
-22.88818359375
-24.71923828125
-24.71923828125
-23.8037109375
-20.1416015625
-14.6484375
-10.07080078125
-21.97265625
-21.05712890625
-21.97265625
-15.56396484375
-12.8173828125
-21.97265625
-35.70556640625
-34.7900390625
-25.634765625
-16.4794921875
-19.22607421875
-18.310546875
-20.1416015625
-12.8173828125
-15.56396484375
-19.22607421875
-10.986328125
-8.23974609375
-5.4931640625
-10.986328125
-13.73291015625
-10.986328125
-17.39501953125
-13.73291015625
-7.32421875
-7.32421875
0.91552734375
-3.662109375
9.1552734375
7.32421875
-10.986328125
-18.310546875
-26.55029296875
-24.71923828125
-24.71923828125
-13.73291015625
-1.8310546875
3.662109375
-1.8310546875
-0.91552734375
-2.74658203125
-8.23974609375
-5.4931640625
-1.8310546875
-4.57763671875
-14.6484375
-15.56396484375
-12.8173828125
-4.57763671875
-0.91552734375
-11.90185546875
-15.56396484375
-17.39501953125
-8.23974609375
2.74658203125
-6.40869140625
-5.4931640625
0
-0.91552734375
-6.40869140625
-15.56396484375
-21.05712890625
-14.6484375
-16.4794921875
-9.1552734375
-7.32421875
-6.40869140625
-5.4931640625
-13.73291015625
-17.39501953125
-18.310546875
-19.22607421875
-18.310546875
-11.90185546875
-8.23974609375
-14.6484375
-17.39501953125
-26.55029296875
-20.1416015625
-20.1416015625
-20.1416015625
-10.986328125
-7.32421875
-16.4794921875
-18.310546875
-26.55029296875
-31.1279296875
-26.55029296875
-27.4658203125
-19.22607421875
-18.310546875
-26.55029296875
-14.6484375
-5.4931640625
-14.6484375
-37.53662109375
-43.02978515625
-35.70556640625
-27.4658203125
-17.39501953125
-9.1552734375
-17.39501953125
-32.04345703125
-28.38134765625
-21.97265625
-20.1416015625
-23.8037109375
-20.1416015625
-14.6484375
-10.07080078125
-8.23974609375
-11.90185546875
-13.73291015625
-15.56396484375
-23.8037109375
-21.97265625
-24.71923828125
-25.634765625
-21.97265625
-21.97265625
-21.97265625
-21.05712890625
-21.97265625
-22.88818359375
-18.310546875
-21.05712890625
-22.88818359375
-23.8037109375
-20.1416015625
-24.71923828125
-25.634765625
-31.1279296875
-35.70556640625
-31.1279296875
-21.97265625
-21.05712890625
-17.39501953125
-10.07080078125
-12.8173828125
-19.22607421875
-20.1416015625
-25.634765625
-27.4658203125
-23.8037109375
-27.4658203125
-23.8037109375
-20.1416015625
-10.07080078125
-9.1552734375
-17.39501953125
-17.39501953125
-21.05712890625
-27.4658203125
-17.39501953125
-21.97265625
-26.55029296875
-19.22607421875
-25.634765625
-37.53662109375
-43.02978515625
-29.296875
-29.296875
-15.56396484375
-12.8173828125
-9.1552734375
0.91552734375
-2.74658203125
-15.56396484375
-23.8037109375
-26.55029296875
-26.55029296875
-16.4794921875
-18.310546875
-16.4794921875
-11.90185546875
-6.40869140625
-17.39501953125
-21.05712890625
-26.55029296875
-21.97265625
-19.22607421875
-19.22607421875
-16.4794921875
-5.4931640625
-7.32421875
-2.74658203125
2.74658203125
0.91552734375
6.40869140625
10.986328125
11.90185546875
21.05712890625
24.71923828125
38.4521484375
43.02978515625
58.59375
86.0595703125
109.86328125
109.86328125
102.5390625
111.6943359375
100.7080078125
92.46826171875
90.63720703125
87.890625
85.14404296875
93.3837890625
98.876953125
101.62353515625
93.3837890625
86.0595703125
77.81982421875
75.0732421875
80.56640625
78.7353515625
54.01611328125
21.97265625
12.8173828125
18.310546875
21.97265625
18.310546875
3.662109375
-2.74658203125
-4.57763671875
-1.8310546875
8.23974609375
4.57763671875
2.74658203125
-2.74658203125
-0.91552734375
1.8310546875
2.74658203125
-1.8310546875
4.57763671875
8.23974609375
6.40869140625
-9.1552734375
-16.4794921875
-10.07080078125
-12.8173828125
-7.32421875
-10.986328125
-3.662109375
0.91552734375
-20.1416015625
-21.97265625
-0.91552734375
30.21240234375
70.49560546875
110.77880859375
139.16015625
177.6123046875
224.30419921875
320.4345703125
433.04443359375
554.8095703125
696.71630859375
871.58203125
1043.701171875
1196.59423828125
1336.669921875
1493.22509765625
1588.43994140625
1635.1318359375
1669.00634765625
1667.17529296875
1528.9306640625
1288.14697265625
1060.1806640625
873.4130859375
699.462890625
462.34130859375
313.1103515625
248.10791015625
181.2744140625
118.10302734375
60.4248046875
30.21240234375
8.23974609375
5.4931640625
26.55029296875
51.26953125
79.65087890625
95.21484375
97.96142578125
91.552734375
76.904296875
65.91796875
64.0869140625
61.34033203125
65.91796875
64.0869140625
48.52294921875
36.62109375
30.21240234375
30.21240234375
32.958984375
40.283203125
48.52294921875
58.59375
58.59375
52.18505859375
47.607421875
45.7763671875
44.86083984375
44.86083984375
45.7763671875
46.69189453125
50.35400390625
56.7626953125
47.607421875
46.69189453125
34.7900390625
37.53662109375
49.4384765625
60.4248046875
59.50927734375
54.01611328125
52.18505859375
60.4248046875
57.67822265625
56.7626953125
61.34033203125
76.904296875
81.48193359375
63.17138671875
56.7626953125
55.84716796875
68.66455078125
76.904296875
83.31298828125
85.14404296875
92.46826171875
93.3837890625
86.0595703125
68.66455078125
61.34033203125
75.98876953125
91.552734375
99.79248046875
100.7080078125
93.3837890625
97.96142578125
109.86328125
117.1875
118.10302734375
110.77880859375
103.45458984375
108.0322265625
117.1875
132.75146484375
126.3427734375
100.7080078125
95.21484375
108.0322265625
111.6943359375
121.76513671875
130.92041015625
130.0048828125
122.6806640625
124.51171875
129.08935546875
134.58251953125
132.75146484375
140.9912109375
135.498046875
135.498046875
134.58251953125
135.498046875
146.484375
151.06201171875
148.3154296875
144.6533203125
151.9775390625
145.56884765625
142.822265625
142.822265625
153.80859375
155.6396484375
144.6533203125
130.92041015625
140.9912109375
154.72412109375
159.3017578125
151.06201171875
135.498046875
136.41357421875
145.56884765625
154.72412109375
147.39990234375
128.173828125
122.6806640625
132.75146484375
140.07568359375
140.9912109375
145.56884765625
147.39990234375
141.90673828125
141.90673828125
137.3291015625
122.6806640625
108.0322265625
99.79248046875
102.5390625
109.86328125
99.79248046875
91.552734375
85.14404296875
78.7353515625
75.0732421875
67.7490234375
58.59375
55.84716796875
46.69189453125
37.53662109375
29.296875
28.38134765625
29.296875
33.87451171875
34.7900390625
26.55029296875
24.71923828125
27.4658203125
19.22607421875
15.56396484375
10.986328125
6.40869140625
-20.1416015625
-31.1279296875
-14.6484375
2.74658203125
6.40869140625
0.91552734375
3.662109375
2.74658203125
2.74658203125
2.74658203125
0
-0.91552734375
-7.32421875
-9.1552734375
-5.4931640625
-0.91552734375
1.8310546875
-4.57763671875
-9.1552734375
-6.40869140625
-10.07080078125
0.91552734375
2.74658203125
-2.74658203125
-6.40869140625
-12.8173828125
-10.986328125
-5.4931640625
-1.8310546875
4.57763671875
4.57763671875
1.8310546875
-3.662109375
-2.74658203125
-6.40869140625
0
3.662109375
5.4931640625
-10.986328125
-26.55029296875
-32.04345703125
-12.8173828125
1.8310546875
5.4931640625
11.90185546875
14.6484375
12.8173828125
3.662109375
-0.91552734375
-13.73291015625
-13.73291015625
-6.40869140625
-1.8310546875
1.8310546875
3.662109375
1.8310546875
-6.40869140625
-4.57763671875
-3.662109375
1.8310546875
-1.8310546875
-9.1552734375
-17.39501953125
-10.986328125
-12.8173828125
-13.73291015625
-10.07080078125
-12.8173828125
-13.73291015625
-21.97265625
-20.1416015625
-8.23974609375
-8.23974609375
-12.8173828125
-16.4794921875
-20.1416015625
-23.8037109375
-30.21240234375
-33.87451171875
-33.87451171875
-35.70556640625
-38.4521484375
-35.70556640625
-21.97265625
-16.4794921875
-21.97265625
-23.8037109375
-29.296875
-29.296875
-28.38134765625
-28.38134765625
-21.05712890625
-24.71923828125
-32.04345703125
-34.7900390625
-38.4521484375
-32.958984375
-31.1279296875
-37.53662109375
-37.53662109375
-49.4384765625
-53.1005859375
-43.9453125
-44.86083984375
-54.01611328125
-57.67822265625
-49.4384765625
-44.86083984375
-43.9453125
-41.19873046875
-39.36767578125
-40.283203125
-40.283203125
-45.7763671875
-43.02978515625
-40.283203125
-42.1142578125
-47.607421875
-42.1142578125
-34.7900390625
-46.69189453125
-64.0869140625
-64.0869140625
-59.50927734375
-44.86083984375
-49.4384765625
-51.26953125
-58.59375
-65.00244140625
-65.00244140625
-54.01611328125
-48.52294921875
-39.36767578125
-38.4521484375
-43.9453125
-44.86083984375
-45.7763671875
-54.01611328125
-55.84716796875
-60.4248046875
-53.1005859375
-51.26953125
-49.4384765625
-53.1005859375
-55.84716796875
-65.00244140625
-73.2421875
-65.00244140625
-61.34033203125
-68.66455078125
-69.580078125
-69.580078125
-56.7626953125
-54.01611328125
-59.50927734375
-57.67822265625
-53.1005859375
-54.931640625
-57.67822265625
-58.59375
-67.7490234375
-63.17138671875
-50.35400390625
-44.86083984375
-54.01611328125
-63.17138671875
-65.00244140625
-60.4248046875
-62.255859375
-58.59375
-55.84716796875
-56.7626953125
-59.50927734375
-60.4248046875
-60.4248046875
-63.17138671875
-56.7626953125
-53.1005859375
-63.17138671875
-75.98876953125
-75.0732421875
-81.48193359375
-76.904296875
-68.66455078125
-63.17138671875
-63.17138671875
-63.17138671875
-63.17138671875
-61.34033203125
-61.34033203125
-56.7626953125
-48.52294921875
-58.59375
-73.2421875
-81.48193359375
-67.7490234375
-43.9453125
-54.01611328125
-81.48193359375
-81.48193359375
-68.66455078125
-56.7626953125
-42.1142578125
-20.1416015625
-16.4794921875
-17.39501953125
-9.1552734375
-4.57763671875
-14.6484375
-14.6484375
-3.662109375
-10.986328125
-11.90185546875
-14.6484375
-15.56396484375
-5.4931640625
-3.662109375
9.1552734375
21.97265625
25.634765625
16.4794921875
0
1.8310546875
8.23974609375
-3.662109375
-3.662109375
-12.8173828125
-23.8037109375
-31.1279296875
-30.21240234375
-19.22607421875
-12.8173828125
-26.55029296875
-43.9453125
-51.26953125
-45.7763671875
-43.9453125
-45.7763671875
-43.02978515625
-38.4521484375
-52.18505859375
-62.255859375
-53.1005859375
-54.01611328125
-73.2421875
-86.0595703125
-83.31298828125
-75.98876953125
-77.81982421875
-71.4111328125
-62.255859375
-64.0869140625
-68.66455078125
-65.00244140625
-65.00244140625
-62.255859375
-66.83349609375
-70.49560546875
-69.580078125
-71.4111328125
-66.83349609375
-67.7490234375
-78.7353515625
-85.14404296875
-88.80615234375
-83.31298828125
-72.32666015625
-44.86083984375
-3.662109375
29.296875
74.15771484375
127.25830078125
188.5986328125
287.4755859375
405.57861328125
528.25927734375
695.80078125
895.3857421875
1083.984375
1243.2861328125
1398.92578125
1543.5791015625
1625.9765625
1647.03369140625
1621.39892578125
1524.35302734375
1280.82275390625
1056.5185546875
893.5546875
707.70263671875
468.75
205.99365234375
73.2421875
28.38134765625
10.07080078125
-13.73291015625
-31.1279296875
-20.1416015625
2.74658203125
29.296875
50.35400390625
53.1005859375
55.84716796875
43.02978515625
31.1279296875
33.87451171875
25.634765625
7.32421875
-10.07080078125
-17.39501953125
-11.90185546875
-5.4931640625
-5.4931640625
5.4931640625
-8.23974609375
-21.97265625
-25.634765625
-18.310546875
-15.56396484375
-17.39501953125
-14.6484375
-4.57763671875
1.8310546875
-2.74658203125
-12.8173828125
-12.8173828125
-8.23974609375
-7.32421875
-9.1552734375
-18.310546875
-20.1416015625
-4.57763671875
16.4794921875
7.32421875
-21.05712890625
-29.296875
-31.1279296875
-13.73291015625
4.57763671875
11.90185546875
16.4794921875
14.6484375
16.4794921875
14.6484375
15.56396484375
10.986328125
10.986328125
14.6484375
16.4794921875
28.38134765625
36.62109375
36.62109375
33.87451171875
28.38134765625
22.88818359375
26.55029296875
33.87451171875
43.9453125
36.62109375
23.8037109375
28.38134765625
43.02978515625
46.69189453125
38.4521484375
43.9453125
50.35400390625
51.26953125
48.52294921875
54.931640625
60.4248046875
60.4248046875
58.59375
61.34033203125
70.49560546875
72.32666015625
81.48193359375
85.14404296875
79.65087890625
70.49560546875
73.2421875
80.56640625
83.31298828125
78.7353515625
93.3837890625
91.552734375
86.97509765625
92.46826171875
97.0458984375
102.5390625
108.94775390625
105.28564453125
79.65087890625
81.48193359375
97.0458984375
102.5390625
97.96142578125
97.96142578125
106.201171875
108.0322265625
106.201171875
105.28564453125
112.60986328125
118.10302734375
114.44091796875
115.3564453125
121.76513671875
121.76513671875
128.173828125
121.76513671875
95.21484375
86.97509765625
97.0458984375
106.201171875
114.44091796875
119.0185546875
116.27197265625
118.10302734375
118.10302734375
117.1875
109.86328125
98.876953125
86.97509765625
73.2421875
64.0869140625
62.255859375
54.01611328125
41.19873046875
32.958984375
38.4521484375
34.7900390625
17.39501953125
10.07080078125
5.4931640625
9.1552734375
-1.8310546875
-14.6484375
-15.56396484375
-13.73291015625
-11.90185546875
-15.56396484375
-39.36767578125
-51.26953125
-42.1142578125
-40.283203125
-33.87451171875
-40.283203125
-39.36767578125
-53.1005859375
-66.83349609375
-69.580078125
-59.50927734375
-55.84716796875
-43.9453125
-41.19873046875
-49.4384765625
-53.1005859375
-54.931640625
-55.84716796875
-60.4248046875
-65.00244140625
-75.0732421875
-67.7490234375
-52.18505859375
-46.69189453125
-41.19873046875
-36.62109375
-56.7626953125
-63.17138671875
-56.7626953125
-62.255859375
-55.84716796875
-56.7626953125
-48.52294921875
-40.283203125
-44.86083984375
-48.52294921875
-41.19873046875
-49.4384765625
-49.4384765625
-54.931640625
-57.67822265625
-61.34033203125
-53.1005859375
-52.18505859375
-42.1142578125
-40.283203125
-40.283203125
-44.86083984375
-44.86083984375
-44.86083984375
-50.35400390625
-44.86083984375
-39.36767578125
-46.69189453125
-48.52294921875
-37.53662109375
-31.1279296875
-36.62109375
-56.7626953125
-63.17138671875
-57.67822265625
-54.01611328125
-50.35400390625
-37.53662109375
-32.04345703125
-35.70556640625
-34.7900390625
-36.62109375
-44.86083984375
-45.7763671875
-45.7763671875
-45.7763671875
-56.7626953125
-57.67822265625
-47.607421875
-50.35400390625
-48.52294921875
-31.1279296875
-29.296875
-50.35400390625
-61.34033203125
-60.4248046875
-55.84716796875
-48.52294921875
-46.69189453125
-50.35400390625
-50.35400390625
-50.35400390625
-54.01611328125
-49.4384765625
-54.01611328125
-53.1005859375
-50.35400390625
-51.26953125
-52.18505859375
-44.86083984375
-63.17138671875
-69.580078125
-68.66455078125
-54.01611328125
-38.4521484375
-47.607421875
-61.34033203125
-66.83349609375
-60.4248046875
-47.607421875
-43.02978515625
-47.607421875
-47.607421875
-52.18505859375
-64.0869140625
-67.7490234375
-55.84716796875
-52.18505859375
-49.4384765625
-49.4384765625
-44.86083984375
-47.607421875
-57.67822265625
-62.255859375
-66.83349609375
-71.4111328125
-58.59375
-57.67822265625
-55.84716796875
-60.4248046875
-56.7626953125
-51.26953125
-56.7626953125
-60.4248046875
-66.83349609375
-58.59375
-58.59375
-64.0869140625
-61.34033203125
-59.50927734375
-49.4384765625
-52.18505859375
-50.35400390625
-57.67822265625
-60.4248046875
-56.7626953125
-49.4384765625
-62.255859375
-60.4248046875
-58.59375
-66.83349609375
-62.255859375
-55.84716796875
-51.26953125
-50.35400390625
-59.50927734375
-50.35400390625
-45.7763671875
-49.4384765625
-48.52294921875
-50.35400390625
-51.26953125
-51.26953125
-53.1005859375
-51.26953125
-50.35400390625
-51.26953125
-54.931640625
-61.34033203125
-69.580078125
-63.17138671875
-48.52294921875
-34.7900390625
-45.7763671875
-55.84716796875
-50.35400390625
-50.35400390625
-45.7763671875
-34.7900390625
-45.7763671875
-50.35400390625
-59.50927734375
-57.67822265625
-49.4384765625
-45.7763671875
-48.52294921875
-44.86083984375
-51.26953125
-50.35400390625
-46.69189453125
-36.62109375
-23.8037109375
-33.87451171875
-33.87451171875
-35.70556640625
-32.958984375
-36.62109375
-36.62109375
-32.04345703125
-40.283203125
-43.02978515625
-25.634765625
-8.23974609375
4.57763671875
5.4931640625
12.8173828125
12.8173828125
7.32421875
-3.662109375
2.74658203125
9.1552734375
13.73291015625
10.986328125
21.97265625
22.88818359375
31.1279296875
49.4384765625
53.1005859375
45.7763671875
34.7900390625
32.04345703125
29.296875
26.55029296875
16.4794921875
17.39501953125
7.32421875
10.986328125
13.73291015625
9.1552734375
-3.662109375
-12.8173828125
-11.90185546875
-2.74658203125
1.8310546875
0.91552734375
-9.1552734375
-8.23974609375
-14.6484375
-21.97265625
-25.634765625
-37.53662109375
-56.7626953125
-53.1005859375
-37.53662109375
-28.38134765625
-26.55029296875
-20.1416015625
-14.6484375
-19.22607421875
-24.71923828125
-24.71923828125
-25.634765625
-21.05712890625
-22.88818359375
-19.22607421875
-21.05712890625
-28.38134765625
-37.53662109375
-41.19873046875
-28.38134765625
-25.634765625
-35.70556640625
-36.62109375
-12.8173828125
6.40869140625
31.1279296875
71.4111328125
104.3701171875
134.58251953125
173.9501953125
242.61474609375
352.47802734375
475.15869140625
592.34619140625
749.81689453125
932.0068359375
1101.37939453125
1240.53955078125
1412.65869140625
1556.396484375
1607.666015625
1642.4560546875
1647.03369140625
1584.77783203125
1381.53076171875
1148.98681640625
951.23291015625
772.705078125
556.640625
327.7587890625
224.30419921875
172.119140625
112.60986328125
51.26953125
6.40869140625
-23.8037109375
-7.32421875
20.1416015625
26.55029296875
43.02978515625
67.7490234375
84.228515625
77.81982421875
72.32666015625
63.17138671875
54.931640625
52.18505859375
54.931640625
49.4384765625
41.19873046875
40.283203125
36.62109375
43.02978515625
51.26953125
29.296875
7.32421875
5.4931640625
19.22607421875
37.53662109375
37.53662109375
36.62109375
49.4384765625
47.607421875
53.1005859375
53.1005859375
43.9453125
43.9453125
48.52294921875
49.4384765625
42.1142578125
30.21240234375
32.958984375
43.9453125
51.26953125
53.1005859375
44.86083984375
47.607421875
51.26953125
55.84716796875
51.26953125
52.18505859375
65.00244140625
67.7490234375
67.7490234375
74.15771484375
72.32666015625
69.580078125
73.2421875
84.228515625
75.98876953125
77.81982421875
78.7353515625
78.7353515625
75.98876953125
73.2421875
65.00244140625
65.91796875
85.14404296875
103.45458984375
98.876953125
78.7353515625
76.904296875
87.890625
97.96142578125
99.79248046875
102.5390625
119.93408203125
119.0185546875
116.27197265625
112.60986328125
105.28564453125
108.94775390625
109.86328125
120.849609375
113.525390625
118.10302734375
121.76513671875
123.59619140625
128.173828125
120.849609375
122.6806640625
139.16015625
148.3154296875
139.16015625
117.1875
119.0185546875
141.90673828125
142.822265625
142.822265625
149.23095703125
148.3154296875
150.146484375
156.55517578125
155.6396484375
150.146484375
149.23095703125
143.73779296875
150.146484375
144.6533203125
140.07568359375
137.3291015625
139.16015625
140.9912109375
137.3291015625
130.0048828125
120.849609375
116.27197265625
125.42724609375
123.59619140625
127.25830078125
139.16015625
140.9912109375
144.6533203125
147.39990234375
131.8359375
120.849609375
122.6806640625
124.51171875
117.1875
119.0185546875
118.10302734375
118.10302734375
101.62353515625
78.7353515625
65.91796875
75.0732421875
71.4111328125
52.18505859375
45.7763671875
40.283203125
36.62109375
42.1142578125
44.86083984375
41.19873046875
30.21240234375
24.71923828125
23.8037109375
23.8037109375
2.74658203125
-15.56396484375
-19.22607421875
-14.6484375
-3.662109375
0
3.662109375
-5.4931640625
-3.662109375
-13.73291015625
-18.310546875
-19.22607421875
-16.4794921875
-13.73291015625
-19.22607421875
-20.1416015625
-17.39501953125
-9.1552734375
-19.22607421875
-24.71923828125
-29.296875
-31.1279296875
-39.36767578125
-32.958984375
-20.1416015625
-22.88818359375
-20.1416015625
-16.4794921875
-7.32421875
-5.4931640625
-9.1552734375
-5.4931640625
-15.56396484375
-25.634765625
-20.1416015625
-11.90185546875
-4.57763671875
-5.4931640625
-6.40869140625
-18.310546875
-20.1416015625
-22.88818359375
-19.22607421875
-14.6484375
-14.6484375
-16.4794921875
-11.90185546875
-10.986328125
-11.90185546875
-20.1416015625
-35.70556640625
-40.283203125
-14.6484375
-9.1552734375
-11.90185546875
-9.1552734375
-1.8310546875
-14.6484375
-13.73291015625
-11.90185546875
-13.73291015625
-9.1552734375
-10.07080078125
-8.23974609375
-6.40869140625
-5.4931640625
-11.90185546875
-13.73291015625
-17.39501953125
-12.8173828125
-10.07080078125
-17.39501953125
-16.4794921875
-18.310546875
-15.56396484375
-18.310546875
-17.39501953125
-22.88818359375
-21.97265625
-20.1416015625
-24.71923828125
-36.62109375
-33.87451171875
-21.97265625
-30.21240234375
-39.36767578125
-31.1279296875
-27.4658203125
-19.22607421875
-13.73291015625
-19.22607421875
-25.634765625
-28.38134765625
-31.1279296875
-36.62109375
-43.02978515625
-43.02978515625
-42.1142578125
-32.958984375
-25.634765625
-25.634765625
-34.7900390625
-43.02978515625
-31.1279296875
-28.38134765625
-30.21240234375
-36.62109375
-32.04345703125
-29.296875
-32.04345703125
-29.296875
-36.62109375
-34.7900390625
-30.21240234375
-27.4658203125
-32.04345703125
-42.1142578125
-40.283203125
-39.36767578125
-35.70556640625
-40.283203125
-44.86083984375
-52.18505859375
-54.931640625
-55.84716796875
-65.91796875
-60.4248046875
-50.35400390625
-43.02978515625
-42.1142578125
-47.607421875
-42.1142578125
-39.36767578125
-40.283203125
-53.1005859375
-49.4384765625
-44.86083984375
-33.87451171875
-35.70556640625
-43.02978515625
-60.4248046875
-70.49560546875
-63.17138671875
-62.255859375
-61.34033203125
-52.18505859375
-49.4384765625
-51.26953125
-43.9453125
-38.4521484375
-36.62109375
-53.1005859375
-64.0869140625
-64.0869140625
-62.255859375
-56.7626953125
-60.4248046875
-60.4248046875
-60.4248046875
-53.1005859375
-50.35400390625
-52.18505859375
-45.7763671875
-40.283203125
-46.69189453125
-50.35400390625
-52.18505859375
-55.84716796875
-60.4248046875
-54.01611328125
-57.67822265625
-55.84716796875
-53.1005859375
-43.02978515625
-36.62109375
-36.62109375
-32.958984375
-43.9453125
-40.283203125
-33.87451171875
-22.88818359375
-23.8037109375
-19.22607421875
-19.22607421875
-12.8173828125
-9.1552734375
-1.8310546875
6.40869140625
9.1552734375
5.4931640625
-7.32421875
-8.23974609375
4.57763671875
22.88818359375
37.53662109375
40.283203125
30.21240234375
14.6484375
15.56396484375
26.55029296875
28.38134765625
13.73291015625
2.74658203125
-5.4931640625
-0.91552734375
-2.74658203125
-4.57763671875
-7.32421875
-12.8173828125
-13.73291015625
-19.22607421875
-20.1416015625
-21.97265625
-18.310546875
-25.634765625
-38.4521484375
-39.36767578125
-42.1142578125
-52.18505859375
-64.0869140625
-75.0732421875
-71.4111328125
-55.84716796875
-52.18505859375
-55.84716796875
-68.66455078125
-71.4111328125
-72.32666015625
-60.4248046875
-54.01611328125
-49.4384765625
-50.35400390625
-48.52294921875
-47.607421875
-50.35400390625
-64.0869140625
-76.904296875
-80.56640625
-68.66455078125
-67.7490234375
-75.98876953125
-75.98876953125
-62.255859375
-61.34033203125
-48.52294921875
-16.4794921875
33.87451171875
64.0869140625
105.28564453125
158.38623046875
257.26318359375
380.859375
509.033203125
659.1796875
843.20068359375
1035.46142578125
1192.93212890625
1345.8251953125
1520.69091796875
1625.9765625
1640.625
1628.72314453125
1593.93310546875
1441.0400390625
1190.185546875
991.51611328125
813.90380859375
586.85302734375
299.37744140625
92.46826171875
24.71923828125
7.32421875
-21.97265625
-34.7900390625
-21.05712890625
10.986328125
21.05712890625
19.22607421875
19.22607421875
25.634765625
37.53662109375
36.62109375
35.70556640625
32.04345703125
25.634765625
18.310546875
10.986328125
3.662109375
2.74658203125
2.74658203125
-9.1552734375
-24.71923828125
-22.88818359375
-9.1552734375
-7.32421875
-13.73291015625
-7.32421875
-7.32421875
-12.8173828125
-14.6484375
-8.23974609375
-6.40869140625
-13.73291015625
-22.88818359375
-11.90185546875
-8.23974609375
-5.4931640625
0
-3.662109375
0.91552734375
4.57763671875
8.23974609375
8.23974609375
3.662109375
-1.8310546875
3.662109375
8.23974609375
11.90185546875
10.07080078125
1.8310546875
0
5.4931640625
13.73291015625
15.56396484375
10.07080078125
14.6484375
21.05712890625
25.634765625
27.4658203125
31.1279296875
31.1279296875
31.1279296875
35.70556640625
37.53662109375
39.36767578125
38.4521484375
38.4521484375
34.7900390625
37.53662109375
43.9453125
50.35400390625
57.67822265625
44.86083984375
29.296875
36.62109375
46.69189453125
50.35400390625
53.1005859375
67.7490234375
71.4111328125
62.255859375
64.0869140625
72.32666015625
71.4111328125
81.48193359375
86.0595703125
77.81982421875
73.2421875
78.7353515625
88.80615234375
99.79248046875
95.21484375
82.3974609375
78.7353515625
73.2421875
75.98876953125
87.890625
104.3701171875
113.525390625
119.0185546875
115.3564453125
116.27197265625
119.93408203125
113.525390625
112.60986328125
110.77880859375
106.201171875
111.6943359375
105.28564453125
97.0458984375
103.45458984375
106.201171875
107.11669921875
111.6943359375
106.201171875
109.86328125
109.86328125
108.94775390625
111.6943359375
112.60986328125
109.86328125
112.60986328125
107.11669921875
96.13037109375
97.96142578125
91.552734375
74.15771484375
70.49560546875
63.17138671875
54.931640625
49.4384765625
47.607421875
34.7900390625
42.1142578125
39.36767578125
31.1279296875
11.90185546875
1.8310546875
-1.8310546875
-0.91552734375
-0.91552734375
-15.56396484375
-20.1416015625
-26.55029296875
-27.4658203125
-27.4658203125
-48.52294921875
-55.84716796875
-69.580078125
-65.91796875
-61.34033203125
-54.931640625
-51.26953125
-53.1005859375
-60.4248046875
-67.7490234375
-65.91796875
-68.66455078125
-82.3974609375
-84.228515625
-77.81982421875
-75.0732421875
-71.4111328125
-69.580078125
-75.0732421875
-78.7353515625
-79.65087890625
-79.65087890625
-83.31298828125
-85.14404296875
-79.65087890625
-82.3974609375
-79.65087890625
-78.7353515625
-76.904296875
-83.31298828125
-78.7353515625
-78.7353515625
-80.56640625
-73.2421875
-61.34033203125
-68.66455078125
-85.14404296875
-92.46826171875
-88.80615234375
-79.65087890625
-71.4111328125
-69.580078125
-64.0869140625
-74.15771484375
-86.97509765625
-84.228515625
-76.904296875
-71.4111328125
-65.91796875
-62.255859375
-68.66455078125
-67.7490234375
-66.83349609375
-63.17138671875
-65.00244140625
-77.81982421875
-86.0595703125
-81.48193359375
-76.904296875
-75.98876953125
-70.49560546875
-62.255859375
-60.4248046875
-65.00244140625
-74.15771484375
-77.81982421875
-73.2421875
-69.580078125
-69.580078125
-67.7490234375
-68.66455078125
-67.7490234375
-65.00244140625
-69.580078125
-68.66455078125
-75.0732421875
-75.98876953125
-74.15771484375
-74.15771484375
-76.904296875
-72.32666015625
-70.49560546875
-74.15771484375
-74.15771484375
-77.81982421875
-79.65087890625
-81.48193359375
-82.3974609375
-76.904296875
-72.32666015625
-76.904296875
-86.0595703125
-85.14404296875
-81.48193359375
-75.98876953125
-69.580078125
-65.91796875
-67.7490234375
-83.31298828125
-97.96142578125
-107.11669921875
-106.201171875
-97.0458984375
-90.63720703125
-83.31298828125
-75.98876953125
-82.3974609375
-89.7216796875
-87.890625
-78.7353515625
-80.56640625
-84.228515625
-75.98876953125
-79.65087890625
-79.65087890625
-86.0595703125
-84.228515625
-92.46826171875
-98.876953125
-101.62353515625
-93.3837890625
-82.3974609375
-92.46826171875
-96.13037109375
-97.96142578125
-91.552734375
-90.63720703125
-80.56640625
-79.65087890625
-75.98876953125
-84.228515625
-89.7216796875
-87.890625
-93.3837890625
-90.63720703125
-98.876953125
-100.7080078125
-82.3974609375
-92.46826171875
-97.0458984375
-87.890625
-88.80615234375
-94.29931640625
-89.7216796875
-92.46826171875
-97.96142578125
-106.201171875
-100.7080078125
-86.0595703125
-77.81982421875
-75.98876953125
-92.46826171875
-108.94775390625
-104.3701171875
-91.552734375
-86.97509765625
-96.13037109375
-115.3564453125
-112.60986328125
-92.46826171875
-84.228515625
-75.98876953125
-81.48193359375
-83.31298828125
-82.3974609375
-86.97509765625
-81.48193359375
-77.81982421875
-79.65087890625
-85.14404296875
-96.13037109375
-94.29931640625
-96.13037109375
-97.96142578125
-86.97509765625
-86.97509765625
-80.56640625
-86.0595703125
-89.7216796875
-86.0595703125
-84.228515625
-77.81982421875
-81.48193359375
-79.65087890625
-76.904296875
-80.56640625
-91.552734375
-86.0595703125
-74.15771484375
-66.83349609375
-69.580078125
-76.904296875
-73.2421875
-68.66455078125
-73.2421875
-69.580078125
-67.7490234375
-62.255859375
-54.01611328125
-48.52294921875
-37.53662109375
-27.4658203125
-26.55029296875
-11.90185546875
-10.07080078125
-24.71923828125
-43.02978515625
-48.52294921875
-32.958984375
-23.8037109375
-21.97265625
-22.88818359375
-7.32421875
9.1552734375
21.05712890625
21.05712890625
8.23974609375
7.32421875
8.23974609375
10.986328125
10.986328125
-3.662109375
-20.1416015625
-23.8037109375
-17.39501953125
-23.8037109375
-25.634765625
-26.55029296875
-22.88818359375
-24.71923828125
-30.21240234375
-43.02978515625
-51.26953125
-45.7763671875
-45.7763671875
-51.26953125
-57.67822265625
-53.1005859375
-61.34033203125
-63.17138671875
-60.4248046875
-59.50927734375
-65.91796875
-62.255859375
-63.17138671875
-60.4248046875
-59.50927734375
-56.7626953125
-58.59375
-52.18505859375
-57.67822265625
-71.4111328125
-69.580078125
-63.17138671875
-61.34033203125
-50.35400390625
-54.01611328125
-66.83349609375
-82.3974609375
-85.14404296875
-75.98876953125
-66.83349609375
-43.9453125
-15.56396484375
8.23974609375
43.02978515625
86.0595703125
140.07568359375
190.4296875
267.333984375
370.78857421875
493.46923828125
648.193359375
844.1162109375
1028.13720703125
1181.0302734375
1338.5009765625
1504.21142578125
1602.1728515625
1617.73681640625
1614.990234375
1578.369140625
1393.4326171875
1170.0439453125
990.6005859375
802.001953125
584.1064453125
322.265625
154.72412109375
97.0458984375
63.17138671875
27.4658203125
-16.4794921875
-43.9453125
-33.87451171875
-5.4931640625
18.310546875
32.04345703125
40.283203125
52.18505859375
52.18505859375
49.4384765625
43.02978515625
38.4521484375
28.38134765625
17.39501953125
4.57763671875
10.986328125
10.986328125
5.4931640625
4.57763671875
4.57763671875
5.4931640625
8.23974609375
3.662109375
-0.91552734375
-13.73291015625
-17.39501953125
-9.1552734375
-5.4931640625
0
10.986328125
12.8173828125
9.1552734375
10.07080078125
19.22607421875
19.22607421875
14.6484375
5.4931640625
14.6484375
17.39501953125
17.39501953125
21.97265625
22.88818359375
26.55029296875
30.21240234375
30.21240234375
35.70556640625
44.86083984375
44.86083984375
37.53662109375
27.4658203125
29.296875
36.62109375
37.53662109375
44.86083984375
49.4384765625
47.607421875
38.4521484375
43.02978515625
57.67822265625
65.00244140625
58.59375
56.7626953125
66.83349609375
63.17138671875
66.83349609375
74.15771484375
79.65087890625
77.81982421875
72.32666015625
82.3974609375
79.65087890625
79.65087890625
75.0732421875
80.56640625
88.80615234375
88.80615234375
95.21484375
96.13037109375
95.21484375
76.904296875
83.31298828125
92.46826171875
97.0458984375
104.3701171875
105.28564453125
107.11669921875
121.76513671875
130.92041015625
119.93408203125
111.6943359375
123.59619140625
129.08935546875
131.8359375
137.3291015625
141.90673828125
135.498046875
130.0048828125
132.75146484375
142.822265625
143.73779296875
135.498046875
128.173828125
127.25830078125
133.6669921875
136.41357421875
141.90673828125
146.484375
149.23095703125
149.23095703125
146.484375
151.06201171875
148.3154296875
150.146484375
146.484375
141.90673828125
140.07568359375
135.498046875
141.90673828125
142.822265625
137.3291015625
140.9912109375
142.822265625
143.73779296875
149.23095703125
142.822265625
119.93408203125
84.228515625
73.2421875
76.904296875
88.80615234375
93.3837890625
90.63720703125
83.31298828125
62.255859375
54.01611328125
38.4521484375
38.4521484375
54.01611328125
52.18505859375
34.7900390625
12.8173828125
13.73291015625
27.4658203125
24.71923828125
24.71923828125
19.22607421875
16.4794921875
9.1552734375
-3.662109375
-7.32421875
-14.6484375
-12.8173828125
-16.4794921875
-6.40869140625
-4.57763671875
-4.57763671875
1.8310546875
-4.57763671875
-8.23974609375
-13.73291015625
-12.8173828125
-17.39501953125
-16.4794921875
-18.310546875
-19.22607421875
-18.310546875
-21.05712890625
-23.8037109375
-12.8173828125
-11.90185546875
-13.73291015625
-8.23974609375
-4.57763671875
-14.6484375
-21.05712890625
-19.22607421875
-10.986328125
-0.91552734375
-0.91552734375
-4.57763671875
-19.22607421875
-14.6484375
-6.40869140625
5.4931640625
5.4931640625
-2.74658203125
-9.1552734375
-9.1552734375
-12.8173828125
-9.1552734375
-15.56396484375
-20.1416015625
-15.56396484375
-4.57763671875
8.23974609375
14.6484375
17.39501953125
14.6484375
5.4931640625
3.662109375
4.57763671875
6.40869140625
7.32421875
10.07080078125
11.90185546875
3.662109375
5.4931640625
9.1552734375
3.662109375
2.74658203125
5.4931640625
12.8173828125
21.97265625
14.6484375
0.91552734375
-10.07080078125
-3.662109375
-4.57763671875
-14.6484375
-9.1552734375
-2.74658203125
-11.90185546875
-10.07080078125
-6.40869140625
-6.40869140625
2.74658203125
12.8173828125
15.56396484375
-3.662109375
-19.22607421875
-19.22607421875
-11.90185546875
-4.57763671875
-7.32421875
-1.8310546875
-3.662109375
-7.32421875
-9.1552734375
-9.1552734375
-7.32421875
-3.662109375
-5.4931640625
-19.22607421875
-32.958984375
-32.04345703125
-18.310546875
-10.07080078125
-6.40869140625
-10.07080078125
-16.4794921875
-27.4658203125
-34.7900390625
-24.71923828125
-10.986328125
-10.986328125
-11.90185546875
-10.07080078125
-20.1416015625
-32.958984375
-34.7900390625
-22.88818359375
-21.05712890625
-31.1279296875
-37.53662109375
-34.7900390625
-25.634765625
-29.296875
-22.88818359375
-20.1416015625
-21.05712890625
-13.73291015625
-21.97265625
-39.36767578125
-49.4384765625
-41.19873046875
-36.62109375
-29.296875
-28.38134765625
-18.310546875
-16.4794921875
-24.71923828125
-43.9453125
-51.26953125
-43.02978515625
-24.71923828125
-22.88818359375
-20.1416015625
-18.310546875
-11.90185546875
-15.56396484375
-33.87451171875
-44.86083984375
-42.1142578125
-39.36767578125
-37.53662109375
-32.04345703125
-27.4658203125
-32.04345703125
-31.1279296875
-25.634765625
-32.04345703125
-37.53662109375
-32.04345703125
-32.958984375
-30.21240234375
-30.21240234375
-34.7900390625
-34.7900390625
-41.19873046875
-52.18505859375
-52.18505859375
-42.1142578125
-39.36767578125
-41.19873046875
-36.62109375
-26.55029296875
-25.634765625
-31.1279296875
-32.958984375
-36.62109375
-43.9453125
-48.52294921875
-44.86083984375
-32.958984375
-22.88818359375
-19.22607421875
-23.8037109375
-23.8037109375
-19.22607421875
-8.23974609375
-9.1552734375
-7.32421875
10.986328125
15.56396484375
18.310546875
21.97265625
15.56396484375
7.32421875
9.1552734375
13.73291015625
12.8173828125
21.97265625
34.7900390625
45.7763671875
52.18505859375
61.34033203125
41.19873046875
31.1279296875
25.634765625
32.958984375
35.70556640625
27.4658203125
10.986328125
-4.57763671875
-1.8310546875
4.57763671875
2.74658203125
-8.23974609375
-12.8173828125
-5.4931640625
-1.8310546875
0.91552734375
5.4931640625
-2.74658203125
-14.6484375
-22.88818359375
-31.1279296875
-36.62109375
-43.9453125
-53.1005859375
-46.69189453125
-38.4521484375
-32.04345703125
-32.958984375
-40.283203125
-50.35400390625
-54.01611328125
-43.9453125
-42.1142578125
-35.70556640625
-32.958984375
-43.02978515625
-43.9453125
-48.52294921875
-61.34033203125
-61.34033203125
-55.84716796875
-47.607421875
-45.7763671875
-54.01611328125
-57.67822265625
-52.18505859375
-33.87451171875
-14.6484375
-1.8310546875
32.958984375
62.255859375
97.96142578125
163.87939453125
250.8544921875
373.53515625
494.384765625
631.7138671875
812.98828125
998.84033203125
1157.2265625
1299.13330078125
1489.56298828125
1618.65234375
1647.03369140625
1642.4560546875
1627.8076171875
1517.02880859375
1276.2451171875
1059.26513671875
873.4130859375
664.6728515625
406.494140625
207.82470703125
131.8359375
83.31298828125
23.8037109375
-26.55029296875
-53.1005859375
-52.18505859375
-24.71923828125
2.74658203125
27.4658203125
48.52294921875
51.26953125
46.69189453125
45.7763671875
39.36767578125
32.04345703125
24.71923828125
23.8037109375
14.6484375
7.32421875
2.74658203125
-1.8310546875
4.57763671875
9.1552734375
-0.91552734375
-14.6484375
-16.4794921875
-15.56396484375
-11.90185546875
-10.986328125
-10.07080078125
-0.91552734375
4.57763671875
5.4931640625
3.662109375
4.57763671875
-4.57763671875
-10.07080078125
-1.8310546875
-2.74658203125
-7.32421875
1.8310546875
12.8173828125
8.23974609375
-1.8310546875
12.8173828125
21.97265625
19.22607421875
15.56396484375
21.97265625
24.71923828125
14.6484375
14.6484375
20.1416015625
25.634765625
25.634765625
21.97265625
21.97265625
21.05712890625
27.4658203125
27.4658203125
30.21240234375
32.04345703125
36.62109375
43.02978515625
55.84716796875
64.0869140625
40.283203125
29.296875
41.19873046875
39.36767578125
40.283203125
43.02978515625
58.59375
69.580078125
71.4111328125
62.255859375
50.35400390625
43.02978515625
49.4384765625
58.59375
69.580078125
72.32666015625
75.0732421875
79.65087890625
82.3974609375
79.65087890625
75.98876953125
82.3974609375
90.63720703125
83.31298828125
91.552734375
97.96142578125
100.7080078125
90.63720703125
85.14404296875
75.98876953125
85.14404296875
96.13037109375
101.62353515625
114.44091796875
109.86328125
97.0458984375
108.0322265625
106.201171875
102.5390625
100.7080078125
107.11669921875
106.201171875
110.77880859375
119.0185546875
120.849609375
106.201171875
103.45458984375
102.5390625
103.45458984375
113.525390625
107.11669921875
100.7080078125
92.46826171875
86.97509765625
92.46826171875
93.3837890625
101.62353515625
108.94775390625
112.60986328125
97.0458984375
89.7216796875
80.56640625
64.0869140625
60.4248046875
48.52294921875
50.35400390625
43.02978515625
39.36767578125
36.62109375
32.04345703125
24.71923828125
12.8173828125
-4.57763671875
-10.07080078125
-19.22607421875
-29.296875
-34.7900390625
-39.36767578125
-43.9453125
-43.02978515625
-43.02978515625
-49.4384765625
-48.52294921875
-45.7763671875
-44.86083984375
-47.607421875
-52.18505859375
-62.255859375
-66.83349609375
-74.15771484375
-75.0732421875
-70.49560546875
-68.66455078125
-72.32666015625
-65.00244140625
-76.904296875
-77.81982421875
-72.32666015625
-70.49560546875
-86.0595703125
-93.3837890625
-88.80615234375
-86.0595703125
-71.4111328125
-76.904296875
-81.48193359375
-66.83349609375
-66.83349609375
-84.228515625
-88.80615234375
-84.228515625
-87.890625
-89.7216796875
-82.3974609375
-81.48193359375
-75.0732421875
-73.2421875
-70.49560546875
-61.34033203125
-65.00244140625
-67.7490234375
-65.91796875
-67.7490234375
-73.2421875
-75.98876953125
-75.98876953125
-77.81982421875
-71.4111328125
-63.17138671875
-61.34033203125
-72.32666015625
-86.0595703125
-89.7216796875
-85.14404296875
-74.15771484375
-65.91796875
-64.0869140625
-58.59375
-56.7626953125
-68.66455078125
-68.66455078125
-71.4111328125
-76.904296875
-75.0732421875
-69.580078125
-61.34033203125
-75.98876953125
-96.13037109375
-105.28564453125
-101.62353515625
-80.56640625
-69.580078125
-71.4111328125
-64.0869140625
-70.49560546875
-79.65087890625
-68.66455078125
-73.2421875
-73.2421875
-73.2421875
-76.904296875
-74.15771484375
-69.580078125
-70.49560546875
-74.15771484375
-79.65087890625
-76.904296875
-75.98876953125
-86.97509765625
-95.21484375
-104.3701171875
-102.5390625
-91.552734375
-88.80615234375
-95.21484375
-100.7080078125
-96.13037109375
-88.80615234375
-88.80615234375
-85.14404296875
-87.890625
-110.77880859375
-132.75146484375
-124.51171875
-98.876953125
-90.63720703125
-87.890625
-80.56640625
-86.0595703125
-99.79248046875
-109.86328125
-107.11669921875
-101.62353515625
-100.7080078125
-106.201171875
-108.0322265625
-112.60986328125
-108.94775390625
-100.7080078125
-90.63720703125
-96.13037109375
-100.7080078125
-107.11669921875
-103.45458984375
-105.28564453125
-97.96142578125
-103.45458984375
-107.11669921875
-104.3701171875
-112.60986328125
-114.44091796875
-108.0322265625
-102.5390625
-102.5390625
-107.11669921875
-106.201171875
-108.0322265625
-107.11669921875
-103.45458984375
-106.201171875
-114.44091796875
-108.0322265625
-117.1875
-115.3564453125
-109.86328125
-119.0185546875
-132.75146484375
-138.24462890625
-113.525390625
-90.63720703125
-99.79248046875
-117.1875
-132.75146484375
-119.93408203125
-102.5390625
-98.876953125
-100.7080078125
-104.3701171875
-116.27197265625
-119.93408203125
-108.0322265625
-108.0322265625
-115.3564453125
-113.525390625
-115.3564453125
-112.60986328125
-111.6943359375
-109.86328125
-110.77880859375
-110.77880859375
-111.6943359375
-109.86328125
-114.44091796875
-113.525390625
-112.60986328125
-108.94775390625
-110.77880859375
-110.77880859375
-111.6943359375
-117.1875
-119.0185546875
-118.10302734375
-121.76513671875
-122.6806640625
-121.76513671875
-122.6806640625
-120.849609375
-120.849609375
-119.93408203125
-115.3564453125
-109.86328125
-108.0322265625
-107.11669921875
-118.10302734375
-132.75146484375
-135.498046875
-133.6669921875
-121.76513671875
-110.77880859375
-115.3564453125
-111.6943359375
-117.1875
-129.08935546875
-141.90673828125
-138.24462890625
-113.525390625
-105.28564453125
-105.28564453125
-107.11669921875
-115.3564453125
-116.27197265625
-112.60986328125
-117.1875
-119.0185546875
-115.3564453125
-114.44091796875
-119.93408203125
-116.27197265625
-108.0322265625
-116.27197265625
-114.44091796875
-107.11669921875
-97.96142578125
-101.62353515625
-102.5390625
-107.11669921875
-105.28564453125
-89.7216796875
-85.14404296875
-76.904296875
-71.4111328125
-65.91796875
-72.32666015625
-66.83349609375
-64.0869140625
-66.83349609375
-56.7626953125
-48.52294921875
-38.4521484375
-28.38134765625
-12.8173828125
-7.32421875
-8.23974609375
0.91552734375
9.1552734375
-7.32421875
-23.8037109375
-31.1279296875
-33.87451171875
-33.87451171875
-43.02978515625
-55.84716796875
-63.17138671875
-54.01611328125
-43.02978515625
-43.02978515625
-59.50927734375
-68.66455078125
-78.7353515625
-71.4111328125
-81.48193359375
-86.97509765625
-90.63720703125
-100.7080078125
-98.876953125
-89.7216796875
-86.97509765625
-90.63720703125
-104.3701171875
-105.28564453125
-106.201171875
-104.3701171875
-104.3701171875
-108.94775390625
-105.28564453125
-92.46826171875
-106.201171875
-106.201171875
-107.11669921875
-100.7080078125
-101.62353515625
-101.62353515625
-112.60986328125
-113.525390625
-107.11669921875
-96.13037109375
-95.21484375
-104.3701171875
-119.0185546875
-109.86328125
-101.62353515625
-94.29931640625
-75.0732421875
-35.70556640625
0
48.52294921875
95.21484375
153.80859375
272.8271484375
382.6904296875
507.2021484375
687.56103515625
888.97705078125
1064.75830078125
1210.3271484375
1379.69970703125
1518.85986328125
1587.5244140625
1604.00390625
1595.76416015625
1524.35302734375
1289.97802734375
1059.26513671875
885.31494140625
677.490234375
419.3115234375
164.794921875
52.18505859375
24.71923828125
-0.91552734375
-41.19873046875
-64.0869140625
-57.67822265625
-29.296875
-11.90185546875
3.662109375
24.71923828125
35.70556640625
31.1279296875
8.23974609375
-8.23974609375
-17.39501953125
-12.8173828125
-13.73291015625
-19.22607421875
-32.958984375
-30.21240234375
-33.87451171875
-27.4658203125
-26.55029296875
-28.38134765625
-32.04345703125
-36.62109375
-29.296875
-26.55029296875
-30.21240234375
-30.21240234375
-28.38134765625
-32.958984375
-35.70556640625
-32.04345703125
-30.21240234375
-29.296875
-25.634765625
-22.88818359375
-23.8037109375
-20.1416015625
-26.55029296875
-23.8037109375
-17.39501953125
-12.8173828125
-20.1416015625
-22.88818359375
-13.73291015625
-1.8310546875
-3.662109375
-6.40869140625
-8.23974609375
2.74658203125
16.4794921875
18.310546875
1.8310546875
-24.71923828125
-20.1416015625
-9.1552734375
4.57763671875
15.56396484375
24.71923828125
28.38134765625
27.4658203125
21.05712890625
14.6484375
11.90185546875
14.6484375
29.296875
41.19873046875
44.86083984375
46.69189453125
51.26953125
51.26953125
43.9453125
42.1142578125
47.607421875
54.01611328125
59.50927734375
64.0869140625
62.255859375
62.255859375
66.83349609375
70.49560546875
71.4111328125
68.66455078125
65.00244140625
65.91796875
78.7353515625
78.7353515625
78.7353515625
86.0595703125
98.876953125
96.13037109375
97.0458984375
92.46826171875
97.96142578125
97.96142578125
103.45458984375
106.201171875
108.94775390625
118.10302734375
114.44091796875
108.94775390625
104.3701171875
97.0458984375
103.45458984375
115.3564453125
119.93408203125
137.3291015625
135.498046875
122.6806640625
129.08935546875
138.24462890625
134.58251953125
132.75146484375
119.0185546875
113.525390625
117.1875
127.25830078125
130.0048828125
124.51171875
130.0048828125
133.6669921875
122.6806640625
118.10302734375
119.0185546875
115.3564453125
116.27197265625
116.27197265625
97.0458984375
75.98876953125
66.83349609375
75.0732421875
82.3974609375
79.65087890625
69.580078125
54.01611328125
34.7900390625
34.7900390625
34.7900390625
24.71923828125
23.8037109375
20.1416015625
16.4794921875
10.986328125
0
-5.4931640625
-10.986328125
-12.8173828125
-7.32421875
-16.4794921875
-30.21240234375
-16.4794921875
-17.39501953125
-32.958984375
-32.04345703125
-43.02978515625
-34.7900390625
-40.283203125
-37.53662109375
-30.21240234375
-29.296875
-23.8037109375
-32.04345703125
-62.255859375
-73.2421875
-75.0732421875
-52.18505859375
-28.38134765625
-28.38134765625
-31.1279296875
-29.296875
-21.97265625
-27.4658203125
-29.296875
-31.1279296875
-21.97265625
-27.4658203125
-32.958984375
-29.296875
-32.04345703125
-27.4658203125
-30.21240234375
-40.283203125
-60.4248046875
-54.01611328125
-48.52294921875
-31.1279296875
-27.4658203125
-23.8037109375
-32.958984375
-24.71923828125
-23.8037109375
-30.21240234375
-23.8037109375
-18.310546875
-21.97265625
-25.634765625
-20.1416015625
-11.90185546875
-13.73291015625
-17.39501953125
-17.39501953125
-23.8037109375
-24.71923828125
-22.88818359375
-22.88818359375
-21.97265625
-22.88818359375
-17.39501953125
-13.73291015625
-13.73291015625
-10.986328125
-18.310546875
-26.55029296875
-23.8037109375
-21.05712890625
-28.38134765625
-22.88818359375
-32.958984375
-29.296875
-22.88818359375
-24.71923828125
-32.958984375
-30.21240234375
-19.22607421875
-17.39501953125
-23.8037109375
-27.4658203125
-27.4658203125
-21.97265625
-22.88818359375
-26.55029296875
-27.4658203125
-31.1279296875
-36.62109375
-39.36767578125
-39.36767578125
-38.4521484375
-25.634765625
-23.8037109375
-37.53662109375
-48.52294921875
-41.19873046875
-31.1279296875
-32.04345703125
-34.7900390625
-36.62109375
-30.21240234375
-32.04345703125
-43.02978515625
-42.1142578125
-35.70556640625
-38.4521484375
-46.69189453125
-43.02978515625
-37.53662109375
-35.70556640625
-37.53662109375
-34.7900390625
-32.04345703125
-37.53662109375
-50.35400390625
-54.931640625
-59.50927734375
-54.01611328125
-48.52294921875
-43.02978515625
-39.36767578125
-40.283203125
-44.86083984375
-50.35400390625
-46.69189453125
-47.607421875
-54.01611328125
-70.49560546875
-57.67822265625
-55.84716796875
-50.35400390625
-48.52294921875
-43.02978515625
-36.62109375
-40.283203125
-53.1005859375
-54.931640625
-59.50927734375
-50.35400390625
-47.607421875
-52.18505859375
-56.7626953125
-63.17138671875
-54.931640625
-49.4384765625
-39.36767578125
-45.7763671875
-44.86083984375
-50.35400390625
-48.52294921875
-54.01611328125
-62.255859375
-61.34033203125
-57.67822265625
-58.59375
-64.0869140625
-53.1005859375
-49.4384765625
-48.52294921875
-49.4384765625
-41.19873046875
-37.53662109375
-51.26953125
-54.931640625
-49.4384765625
-36.62109375
-52.18505859375
-76.904296875
-75.0732421875
-65.00244140625
-58.59375
-63.17138671875
-71.4111328125
-71.4111328125
-65.00244140625
-64.0869140625
-60.4248046875
-56.7626953125
-49.4384765625
-42.1142578125
-53.1005859375
-64.0869140625
-64.0869140625
-56.7626953125
-57.67822265625
-53.1005859375
-43.02978515625
-54.931640625
-67.7490234375
-79.65087890625
-81.48193359375
-67.7490234375
-61.34033203125
-61.34033203125
-62.255859375
-68.66455078125
-62.255859375
-57.67822265625
-65.00244140625
-75.0732421875
-76.904296875
-76.904296875
-63.17138671875
-52.18505859375
-47.607421875
-43.02978515625
-46.69189453125
-54.01611328125
-54.931640625
-51.26953125
-46.69189453125
-38.4521484375
-21.97265625
-11.90185546875
-9.1552734375
-5.4931640625
4.57763671875
0.91552734375
-32.04345703125
-45.7763671875
-27.4658203125
-0.91552734375
15.56396484375
25.634765625
42.1142578125
51.26953125
58.59375
65.91796875
48.52294921875
32.958984375
19.22607421875
10.986328125
8.23974609375
-0.91552734375
-2.74658203125
-1.8310546875
1.8310546875
3.662109375
-5.4931640625
-15.56396484375
-14.6484375
-19.22607421875
-32.958984375
-50.35400390625
-58.59375
-60.4248046875
-62.255859375
-61.34033203125
-55.84716796875
-53.1005859375
-57.67822265625
-62.255859375
-65.91796875
-62.255859375
-55.84716796875
-59.50927734375
-60.4248046875
-63.17138671875
-54.01611328125
-42.1142578125
-65.00244140625
-99.79248046875
-101.62353515625
-77.81982421875
-60.4248046875
-56.7626953125
-55.84716796875
-72.32666015625
-81.48193359375
-82.3974609375
-82.3974609375
-86.97509765625
-76.904296875
-65.00244140625
-49.4384765625
-32.958984375
1.8310546875
48.52294921875
88.80615234375
121.76513671875
173.9501953125
274.658203125
400.08544921875
533.75244140625
710.44921875
910.0341796875
1088.56201171875
1223.14453125
1383.36181640625
1536.2548828125
1600.341796875
1615.90576171875
1616.8212890625
1572.8759765625
1378.7841796875
1137.0849609375
932.0068359375
731.50634765625
495.30029296875
249.93896484375
121.76513671875
73.2421875
32.958984375
-28.38134765625
-44.86083984375
-56.7626953125
-37.53662109375
-15.56396484375
9.1552734375
28.38134765625
39.36767578125
45.7763671875
36.62109375
21.05712890625
11.90185546875
10.986328125
-0.91552734375
-12.8173828125
-13.73291015625
-10.07080078125
-9.1552734375
-17.39501953125
-34.7900390625
-37.53662109375
-21.97265625
-16.4794921875
-17.39501953125
-28.38134765625
-32.04345703125
-23.8037109375
-16.4794921875
-13.73291015625
-21.97265625
-17.39501953125
-14.6484375
-10.07080078125
-15.56396484375
-25.634765625
-30.21240234375
-11.90185546875
0
-7.32421875
-21.05712890625
-12.8173828125
0
-5.4931640625
-24.71923828125
-27.4658203125
-14.6484375
3.662109375
5.4931640625
2.74658203125
1.8310546875
7.32421875
17.39501953125
12.8173828125
10.07080078125
7.32421875
11.90185546875
23.8037109375
23.8037109375
11.90185546875
0.91552734375
5.4931640625
16.4794921875
17.39501953125
12.8173828125
25.634765625
36.62109375
36.62109375
34.7900390625
39.36767578125
48.52294921875
43.02978515625
37.53662109375
43.02978515625
53.1005859375
50.35400390625
32.04345703125
27.4658203125
42.1142578125
54.931640625
63.17138671875
71.4111328125
80.56640625
74.15771484375
49.4384765625
46.69189453125
55.84716796875
65.91796875
66.83349609375
70.49560546875
83.31298828125
80.56640625
64.0869140625
59.50927734375
77.81982421875
91.552734375
95.21484375
94.29931640625
96.13037109375
86.0595703125
85.14404296875
89.7216796875
87.890625
86.97509765625
93.3837890625
96.13037109375
97.0458984375
97.0458984375
100.7080078125
107.11669921875
98.876953125
91.552734375
81.48193359375
78.7353515625
74.15771484375
83.31298828125
97.96142578125
99.79248046875
97.96142578125
95.21484375
88.80615234375
97.0458984375
108.0322265625
85.14404296875
59.50927734375
59.50927734375
61.34033203125
64.0869140625
61.34033203125
55.84716796875
51.26953125
38.4521484375
30.21240234375
19.22607421875
22.88818359375
19.22607421875
8.23974609375
-4.57763671875
-22.88818359375
-29.296875
-32.04345703125
-28.38134765625
-32.04345703125
-34.7900390625
-37.53662109375
-49.4384765625
-54.01611328125
-55.84716796875
-72.32666015625
-77.81982421875
-67.7490234375
-62.255859375
-65.91796875
-78.7353515625
-87.890625
-77.81982421875
-75.0732421875
-75.0732421875
-85.14404296875
-87.890625
-91.552734375
-75.0732421875
-68.66455078125
-68.66455078125
-81.48193359375
-87.890625
-77.81982421875
-79.65087890625
-88.80615234375
-79.65087890625
-76.904296875
-83.31298828125
-86.97509765625
-80.56640625
-73.2421875
-69.580078125
-75.98876953125
-78.7353515625
-72.32666015625
-77.81982421875
-85.14404296875
-76.904296875
-72.32666015625
-68.66455078125
-75.0732421875
-83.31298828125
-88.80615234375
-83.31298828125
-76.904296875
-74.15771484375
-70.49560546875
-75.98876953125
-78.7353515625
-79.65087890625
-85.14404296875
-74.15771484375
-84.228515625
-87.890625
-89.7216796875
-75.0732421875
-65.00244140625
-63.17138671875
-68.66455078125
-78.7353515625
-83.31298828125
-75.98876953125
-79.65087890625
-81.48193359375
-75.0732421875
-75.0732421875
-82.3974609375
-74.15771484375
-72.32666015625
-75.0732421875
-77.81982421875
-69.580078125
-65.91796875
-63.17138671875
-69.580078125
-74.15771484375
-80.56640625
-91.552734375
-94.29931640625
-86.0595703125
-76.904296875
-78.7353515625
-73.2421875
-78.7353515625
-76.904296875
-75.98876953125
-86.97509765625
-108.94775390625
-116.27197265625
-104.3701171875
-94.29931640625
-97.0458984375
-92.46826171875
-96.13037109375
-100.7080078125
-94.29931640625
-94.29931640625
-90.63720703125
-85.14404296875
-86.0595703125
-86.0595703125
-95.21484375
-105.28564453125
-107.11669921875
-110.77880859375
-108.0322265625
-108.0322265625
-104.3701171875
-96.13037109375
-98.876953125
-105.28564453125
-105.28564453125
-102.5390625
-104.3701171875
-105.28564453125
-114.44091796875
-118.10302734375
-115.3564453125
-111.6943359375
-105.28564453125
-94.29931640625
-101.62353515625
-115.3564453125
-127.25830078125
-123.59619140625
-124.51171875
-113.525390625
-105.28564453125
-94.29931640625
-97.96142578125
-111.6943359375
-121.76513671875
-122.6806640625
-114.44091796875
-113.525390625
-112.60986328125
-119.93408203125
-130.0048828125
-126.3427734375
-114.44091796875
-112.60986328125
-110.77880859375
-103.45458984375
-106.201171875
-107.11669921875
-108.94775390625
-104.3701171875
-108.94775390625
-127.25830078125
-132.75146484375
-125.42724609375
-117.1875
-111.6943359375
-110.77880859375
-104.3701171875
-118.10302734375
-121.76513671875
-116.27197265625
-105.28564453125
-105.28564453125
-118.10302734375
-130.0048828125
-133.6669921875
-126.3427734375
-114.44091796875
-112.60986328125
-118.10302734375
-124.51171875
-128.173828125
-125.42724609375
-119.0185546875
-109.86328125
-98.876953125
-118.10302734375
-138.24462890625
-138.24462890625
-126.3427734375
-118.10302734375
-108.94775390625
-107.11669921875
-114.44091796875
-118.10302734375
-125.42724609375
-114.44091796875
-109.86328125
-124.51171875
-129.08935546875
-122.6806640625
-119.0185546875
-119.93408203125
-116.27197265625
-126.3427734375
-132.75146484375
-122.6806640625
-123.59619140625
-128.173828125
-132.75146484375
-128.173828125
-130.0048828125
-126.3427734375
-129.08935546875
-128.173828125
-129.08935546875
-122.6806640625
-103.45458984375
-117.1875
-128.173828125
-137.3291015625
-130.0048828125
-115.3564453125
-114.44091796875
-108.0322265625
-115.3564453125
-132.75146484375
-143.73779296875
-148.3154296875
-139.16015625
-121.76513671875
-108.94775390625
-92.46826171875
-101.62353515625
-112.60986328125
-111.6943359375
-103.45458984375
-103.45458984375
-88.80615234375
-71.4111328125
-61.34033203125
-56.7626953125
-54.931640625
-60.4248046875
-47.607421875
-30.21240234375
-4.57763671875
21.97265625
32.958984375
38.4521484375
20.1416015625
0
-10.07080078125
-9.1552734375
5.4931640625
21.05712890625
17.39501953125
-3.662109375
-10.986328125
-4.57763671875
-7.32421875
-15.56396484375
-31.1279296875
-48.52294921875
-60.4248046875
-77.81982421875
-74.15771484375
-83.31298828125
-95.21484375
-107.11669921875
-97.96142578125
-97.0458984375
-103.45458984375
-109.86328125
-109.86328125
-108.94775390625
-99.79248046875
-103.45458984375
-115.3564453125
-129.08935546875
-133.6669921875
-122.6806640625
-115.3564453125
-114.44091796875
-111.6943359375
-116.27197265625
-121.76513671875
-120.849609375
-129.08935546875
-126.3427734375
-119.0185546875
-121.76513671875
-121.76513671875
-140.07568359375
-141.90673828125
-126.3427734375
-114.44091796875
-88.80615234375
-48.52294921875
-9.1552734375
31.1279296875
55.84716796875
117.1875
234.375
369.873046875
507.2021484375
683.89892578125
883.48388671875
1044.61669921875
1184.6923828125
1345.8251953125
1508.7890625
1585.693359375
1583.8623046875
1563.720703125
1473.9990234375
1223.14453125
1009.82666015625
831.298828125
618.896484375
368.95751953125
114.44091796875
3.662109375
-30.21240234375
-57.67822265625
-85.14404296875
-97.96142578125
-71.4111328125
-50.35400390625
-37.53662109375
-14.6484375
-9.1552734375
-13.73291015625
-29.296875
-40.283203125
-51.26953125
-47.607421875
-53.1005859375
-62.255859375
-73.2421875
-63.17138671875
-64.0869140625
-75.0732421875
-82.3974609375
-79.65087890625
-78.7353515625
-90.63720703125
-91.552734375
-81.48193359375
-75.98876953125
-73.2421875
-65.00244140625
-62.255859375
-73.2421875
-95.21484375
-96.13037109375
-78.7353515625
-69.580078125
-65.91796875
-61.34033203125
-60.4248046875
-67.7490234375
-67.7490234375
-65.91796875
-64.0869140625
-69.580078125
-72.32666015625
-63.17138671875
-51.26953125
-49.4384765625
-47.607421875
-46.69189453125
-49.4384765625
-51.26953125
-50.35400390625
-53.1005859375
-44.86083984375
-38.4521484375
-34.7900390625
-35.70556640625
-37.53662109375
-40.283203125
-39.36767578125
-28.38134765625
-26.55029296875
-22.88818359375
-25.634765625
-21.05712890625
-11.90185546875
-16.4794921875
-14.6484375
-15.56396484375
-11.90185546875
-1.8310546875
-4.57763671875
-6.40869140625
-8.23974609375
-8.23974609375
5.4931640625
7.32421875
6.40869140625
2.74658203125
-0.91552734375
4.57763671875
12.8173828125
14.6484375
8.23974609375
2.74658203125
19.22607421875
39.36767578125
34.7900390625
41.19873046875
43.02978515625
40.283203125
39.36767578125
34.7900390625
37.53662109375
39.36767578125
48.52294921875
58.59375
62.255859375
59.50927734375
57.67822265625
63.17138671875
65.00244140625
77.81982421875
75.98876953125
81.48193359375
78.7353515625
79.65087890625
78.7353515625
70.49560546875
63.17138671875
63.17138671875
67.7490234375
75.0732421875
76.904296875
79.65087890625
73.2421875
66.83349609375
63.17138671875
63.17138671875
74.15771484375
79.65087890625
70.49560546875
75.0732421875
72.32666015625
67.7490234375
63.17138671875
62.255859375
60.4248046875
48.52294921875
47.607421875
44.86083984375
24.71923828125
6.40869140625
-5.4931640625
-5.4931640625
1.8310546875
-8.23974609375
-10.986328125
-18.310546875
-43.9453125
-54.01611328125
-65.00244140625
-57.67822265625
-46.69189453125
-55.84716796875
-65.91796875
-62.255859375
-62.255859375
-69.580078125
-69.580078125
-86.0595703125
-93.3837890625
-93.3837890625
-99.79248046875
-99.79248046875
-86.97509765625
-80.56640625
-81.48193359375
-81.48193359375
-86.0595703125
-93.3837890625
-94.29931640625
-97.96142578125
-101.62353515625
-92.46826171875
-87.890625
-97.0458984375
-108.94775390625
-105.28564453125
-103.45458984375
-100.7080078125
-96.13037109375
-94.29931640625
-89.7216796875
-84.228515625
-86.97509765625
-83.31298828125
-92.46826171875
-91.552734375
-81.48193359375
-73.2421875
-81.48193359375
-106.201171875
-123.59619140625
-108.0322265625
-92.46826171875
-77.81982421875
-74.15771484375
-75.0732421875
-68.66455078125
-70.49560546875
-67.7490234375
-71.4111328125
-84.228515625
-97.0458984375
-97.96142578125
-85.14404296875
-79.65087890625
-79.65087890625
-72.32666015625
-67.7490234375
-70.49560546875
-69.580078125
-69.580078125
-73.2421875
-87.890625
-79.65087890625
-79.65087890625
-78.7353515625
-71.4111328125
-63.17138671875
-78.7353515625
-83.31298828125
-83.31298828125
-75.98876953125
-70.49560546875
-70.49560546875
-73.2421875
-72.32666015625
-74.15771484375
-77.81982421875
-83.31298828125
-81.48193359375
-85.14404296875
-78.7353515625
-73.2421875
-75.0732421875
-69.580078125
-69.580078125
-66.83349609375
-72.32666015625
-85.14404296875
-93.3837890625
-88.80615234375
-88.80615234375
-86.0595703125
-84.228515625
-82.3974609375
-77.81982421875
-75.98876953125
-70.49560546875
-75.98876953125
-81.48193359375
-83.31298828125
-80.56640625
-74.15771484375
-86.97509765625
-81.48193359375
-91.552734375
-99.79248046875
-98.876953125
-87.890625
-86.0595703125
-85.14404296875
-84.228515625
-76.904296875
-75.98876953125
-80.56640625
-83.31298828125
-84.228515625
-78.7353515625
-78.7353515625
-88.80615234375
-92.46826171875
-96.13037109375
-92.46826171875
-82.3974609375
-93.3837890625
-99.79248046875
-93.3837890625
-81.48193359375
-70.49560546875
-72.32666015625
-77.81982421875
-89.7216796875
-93.3837890625
-86.97509765625
-88.80615234375
-97.0458984375
-90.63720703125
-73.2421875
-58.59375
-78.7353515625
-114.44091796875
-116.27197265625
-101.62353515625
-90.63720703125
-82.3974609375
-77.81982421875
-73.2421875
-82.3974609375
-76.904296875
-83.31298828125
-84.228515625
-81.48193359375
-83.31298828125
-88.80615234375
-82.3974609375
-80.56640625
-93.3837890625
-104.3701171875
-97.96142578125
-84.228515625
-78.7353515625
-79.65087890625
-79.65087890625
-85.14404296875
-78.7353515625
-78.7353515625
-86.0595703125
-87.890625
-80.56640625
-78.7353515625
-78.7353515625
-75.0732421875
-76.904296875
-78.7353515625
-80.56640625
-77.81982421875
-75.98876953125
-77.81982421875
-78.7353515625
-75.98876953125
-72.32666015625
-83.31298828125
-85.14404296875
-87.890625
-81.48193359375
-75.0732421875
-65.91796875
-57.67822265625
-65.91796875
-82.3974609375
-97.0458984375
-96.13037109375
-89.7216796875
-82.3974609375
-78.7353515625
-69.580078125
-70.49560546875
-69.580078125
-74.15771484375
-75.0732421875
-72.32666015625
-82.3974609375
-82.3974609375
-89.7216796875
-87.890625
-88.80615234375
-80.56640625
-73.2421875
-62.255859375
-66.83349609375
-72.32666015625
-57.67822265625
-54.01611328125
-71.4111328125
-81.48193359375
-67.7490234375
-37.53662109375
-21.05712890625
-32.04345703125
-43.9453125
-37.53662109375
-17.39501953125
8.23974609375
27.4658203125
42.1142578125
56.7626953125
70.49560546875
86.0595703125
91.552734375
71.4111328125
59.50927734375
55.84716796875
54.931640625
52.18505859375
55.84716796875
52.18505859375
48.52294921875
54.01611328125
49.4384765625
46.69189453125
33.87451171875
24.71923828125
29.296875
17.39501953125
-6.40869140625
-17.39501953125
-25.634765625
-24.71923828125
-20.1416015625
-20.1416015625
-24.71923828125
-36.62109375
-41.19873046875
-55.84716796875
-57.67822265625
-51.26953125
-49.4384765625
-50.35400390625
-48.52294921875
-55.84716796875
-56.7626953125
-49.4384765625
-54.01611328125
-53.1005859375
-46.69189453125
-54.01611328125
-53.1005859375
-65.00244140625
-64.0869140625
-63.17138671875
-60.4248046875
-59.50927734375
-73.2421875
-93.3837890625
-89.7216796875
-52.18505859375
-10.986328125
33.87451171875
66.83349609375
112.60986328125
158.38623046875
232.5439453125
349.7314453125
475.15869140625
606.99462890625
783.69140625
965.88134765625
1127.9296875
1267.08984375
1441.0400390625
1563.720703125
1616.8212890625
1622.314453125
1608.58154296875
1495.05615234375
1264.34326171875
1052.8564453125
856.93359375
669.25048828125
424.8046875
234.375
142.822265625
85.14404296875
38.4521484375
-6.40869140625
-41.19873046875
-58.59375
-33.87451171875
-15.56396484375
1.8310546875
29.296875
44.86083984375
41.19873046875
21.05712890625
9.1552734375
12.8173828125
10.07080078125
5.4931640625
-1.8310546875
-6.40869140625
-12.8173828125
-9.1552734375
-7.32421875
-13.73291015625
-8.23974609375
-10.07080078125
-10.07080078125
-11.90185546875
-21.05712890625
-19.22607421875
-10.986328125
-3.662109375
-10.07080078125
-14.6484375
-18.310546875
-16.4794921875
-10.07080078125
-10.986328125
-10.986328125
2.74658203125
-2.74658203125
-6.40869140625
-14.6484375
-10.986328125
-4.57763671875
-1.8310546875
1.8310546875
8.23974609375
19.22607421875
15.56396484375
16.4794921875
19.22607421875
19.22607421875
10.986328125
16.4794921875
12.8173828125
21.97265625
26.55029296875
27.4658203125
21.97265625
25.634765625
24.71923828125
29.296875
23.8037109375
31.1279296875
40.283203125
43.02978515625
48.52294921875
42.1142578125
42.1142578125
45.7763671875
50.35400390625
56.7626953125
64.0869140625
52.18505859375
50.35400390625
59.50927734375
58.59375
65.00244140625
69.580078125
72.32666015625
69.580078125
69.580078125
83.31298828125
86.0595703125
82.3974609375
74.15771484375
72.32666015625
75.0732421875
79.65087890625
87.890625
100.7080078125
106.201171875
99.79248046875
86.97509765625
95.21484375
107.11669921875
110.77880859375
118.10302734375
120.849609375
116.27197265625
117.1875
106.201171875
109.86328125
124.51171875
132.75146484375
125.42724609375
126.3427734375
134.58251953125
139.16015625
127.25830078125
121.76513671875
124.51171875
122.6806640625
128.173828125
130.92041015625
129.08935546875
125.42724609375
117.1875
111.6943359375
121.76513671875
130.92041015625
128.173828125
123.59619140625
106.201171875
109.86328125
119.93408203125
118.10302734375
114.44091796875
108.94775390625
97.96142578125
98.876953125
97.96142578125
97.0458984375
79.65087890625
53.1005859375
50.35400390625
50.35400390625
46.69189453125
42.1142578125
43.9453125
36.62109375
32.04345703125
22.88818359375
21.97265625
10.07080078125
-3.662109375
-14.6484375
-19.22607421875
-17.39501953125
-6.40869140625
-5.4931640625
-10.986328125
-10.986328125
-19.22607421875
-20.1416015625
-16.4794921875
-21.05712890625
-25.634765625
-30.21240234375
-39.36767578125
-36.62109375
-38.4521484375
-36.62109375
-32.958984375
-26.55029296875
-25.634765625
-21.97265625
-19.22607421875
-21.05712890625
-27.4658203125
-34.7900390625
-30.21240234375
-35.70556640625
-46.69189453125
-49.4384765625
-45.7763671875
-33.87451171875
-31.1279296875
-23.8037109375
-18.310546875
-26.55029296875
-34.7900390625
-39.36767578125
-34.7900390625
-22.88818359375
-15.56396484375
-6.40869140625
-28.38134765625
-43.02978515625
-31.1279296875
-30.21240234375
-32.04345703125
-21.97265625
-12.8173828125
-19.22607421875
-26.55029296875
-29.296875
-30.21240234375
-27.4658203125
-18.310546875
-18.310546875
-12.8173828125
-17.39501953125
-24.71923828125
-22.88818359375
-13.73291015625
-18.310546875
-36.62109375
-50.35400390625
-41.19873046875
-31.1279296875
-24.71923828125
-14.6484375
-7.32421875
-10.07080078125
-14.6484375
-22.88818359375
-32.04345703125
-44.86083984375
-39.36767578125
-37.53662109375
-34.7900390625
-29.296875
-17.39501953125
-20.1416015625
-30.21240234375
-34.7900390625
-43.02978515625
-56.7626953125
-62.255859375
-44.86083984375
-26.55029296875
-22.88818359375
-27.4658203125
-21.05712890625
-32.958984375
-41.19873046875
-50.35400390625
-63.17138671875
-65.00244140625
-54.01611328125
-45.7763671875
-38.4521484375
-43.02978515625
-42.1142578125
-33.87451171875
-43.9453125
-53.1005859375
-65.00244140625
-65.91796875
-64.0869140625
-54.01611328125
-49.4384765625
-48.52294921875
-50.35400390625
-51.26953125
-55.84716796875
-53.1005859375
-54.01611328125
-58.59375
-65.00244140625
-64.0869140625
-69.580078125
-67.7490234375
-61.34033203125
-58.59375
-60.4248046875
-76.904296875
-83.31298828125
-67.7490234375
-56.7626953125
-62.255859375
-64.0869140625
-65.91796875
-64.0869140625
-57.67822265625
-54.931640625
-64.0869140625
-72.32666015625
-70.49560546875
-64.0869140625
-55.84716796875
-55.84716796875
-63.17138671875
-90.63720703125
-108.94775390625
-95.21484375
-77.81982421875
-71.4111328125
-66.83349609375
-55.84716796875
-55.84716796875
-65.91796875
-72.32666015625
-65.91796875
-63.17138671875
-65.91796875
-76.904296875
-78.7353515625
-66.83349609375
-56.7626953125
-68.66455078125
-89.7216796875
-92.46826171875
-73.2421875
-63.17138671875
-69.580078125
-80.56640625
-90.63720703125
-91.552734375
-86.97509765625
-74.15771484375
-62.255859375
-77.81982421875
-86.0595703125
-75.98876953125
-77.81982421875
-89.7216796875
-86.0595703125
-87.890625
-86.97509765625
-84.228515625
-72.32666015625
-65.91796875
-65.00244140625
-75.98876953125
-83.31298828125
-80.56640625
-87.890625
-101.62353515625
-101.62353515625
-85.14404296875
-72.32666015625
-73.2421875
-82.3974609375
-82.3974609375
-81.48193359375
-78.7353515625
-73.2421875
-72.32666015625
-79.65087890625
-88.80615234375
-83.31298828125
-77.81982421875
-94.29931640625
-96.13037109375
-91.552734375
-95.21484375
-94.29931640625
-77.81982421875
-76.904296875
-77.81982421875
-86.0595703125
-95.21484375
-93.3837890625
-87.890625
-76.904296875
-73.2421875
-79.65087890625
-81.48193359375
-77.81982421875
-69.580078125
-72.32666015625
-83.31298828125
-95.21484375
-100.7080078125
-101.62353515625
-100.7080078125
-90.63720703125
-78.7353515625
-74.15771484375
-65.91796875
-65.91796875
-74.15771484375
-76.904296875
-54.931640625
-39.36767578125
-28.38134765625
-28.38134765625
-27.4658203125
-17.39501953125
0.91552734375
24.71923828125
40.283203125
43.02978515625
42.1142578125
39.36767578125
47.607421875
41.19873046875
36.62109375
29.296875
40.283203125
44.86083984375
49.4384765625
47.607421875
40.283203125
40.283203125
36.62109375
30.21240234375
13.73291015625
1.8310546875
-3.662109375
-9.1552734375
-26.55029296875
-34.7900390625
-39.36767578125
-44.86083984375
-65.00244140625
-64.0869140625
-64.0869140625
-76.904296875
-81.48193359375
-88.80615234375
-83.31298828125
-87.890625
-77.81982421875
-80.56640625
-85.14404296875
-87.890625
-87.890625
-92.46826171875
-103.45458984375
-110.77880859375
-101.62353515625
-97.0458984375
-87.890625
-84.228515625
-92.46826171875
-97.96142578125
-101.62353515625
-107.11669921875
-113.525390625
-109.86328125
-101.62353515625
-91.552734375
-53.1005859375
-4.57763671875
31.1279296875
71.4111328125
120.849609375
209.65576171875
327.7587890625
457.763671875
617.98095703125
814.8193359375
1016.2353515625
1178.28369140625
1322.021484375
1468.505859375
1574.70703125
1606.75048828125
1606.75048828125
1587.5244140625
1427.30712890625
1161.80419921875
953.06396484375
761.71875
526.42822265625
241.69921875
41.19873046875
-13.73291015625
-44.86083984375
-85.14404296875
-89.7216796875
-70.49560546875
-48.52294921875
-28.38134765625
-12.8173828125
4.57763671875
7.32421875
-1.8310546875
-5.4931640625
-19.22607421875
-30.21240234375
-33.87451171875
-40.283203125
-47.607421875
-44.86083984375
-49.4384765625
-50.35400390625
-49.4384765625
-43.02978515625
-49.4384765625
-59.50927734375
-74.15771484375
-77.81982421875
-65.91796875
-54.01611328125
-49.4384765625
-49.4384765625
-62.255859375
-77.81982421875
-82.3974609375
-72.32666015625
-63.17138671875
-61.34033203125
-52.18505859375
-43.02978515625
-35.70556640625
-49.4384765625
-68.66455078125
-63.17138671875
-56.7626953125
-55.84716796875
-57.67822265625
-63.17138671875
-55.84716796875
-50.35400390625
-41.19873046875
-32.04345703125
-44.86083984375
-46.69189453125
-36.62109375
-32.958984375
-33.87451171875
-32.04345703125
-38.4521484375
-39.36767578125
-29.296875
-22.88818359375
-21.97265625
-29.296875
-28.38134765625
-26.55029296875
-17.39501953125
-11.90185546875
-10.986328125
-10.07080078125
-2.74658203125
-7.32421875
-19.22607421875
-11.90185546875
-3.662109375
0
2.74658203125
11.90185546875
7.32421875
4.57763671875
13.73291015625
23.8037109375
25.634765625
27.4658203125
17.39501953125
12.8173828125
12.8173828125
22.88818359375
31.1279296875
29.296875
40.283203125
43.02978515625
41.19873046875
40.283203125
52.18505859375
62.255859375
61.34033203125
54.01611328125
57.67822265625
64.0869140625
60.4248046875
67.7490234375
74.15771484375
75.0732421875
71.4111328125
75.98876953125
85.14404296875
74.15771484375
65.91796875
62.255859375
71.4111328125
69.580078125
74.15771484375
85.14404296875
85.14404296875
73.2421875
75.0732421875
83.31298828125
77.81982421875
72.32666015625
75.0732421875
78.7353515625
79.65087890625
75.0732421875
74.15771484375
78.7353515625
80.56640625
76.904296875
61.34033203125
40.283203125
33.87451171875
40.283203125
38.4521484375
34.7900390625
32.958984375
29.296875
23.8037109375
13.73291015625
4.57763671875
-10.986328125
-21.05712890625
-32.958984375
-37.53662109375
-33.87451171875
-43.9453125
-64.0869140625
-69.580078125
-62.255859375
-56.7626953125
-55.84716796875
-65.00244140625
-80.56640625
-95.21484375
-97.96142578125
-86.97509765625
-79.65087890625
-84.228515625
-94.29931640625
-104.3701171875
-99.79248046875
-92.46826171875
-98.876953125
-108.0322265625
-108.94775390625
-114.44091796875
-123.59619140625
-115.3564453125
-108.94775390625
-116.27197265625
-105.28564453125
-99.79248046875
-97.96142578125
-94.29931640625
-100.7080078125
-109.86328125
-107.11669921875
-101.62353515625
-91.552734375
-89.7216796875
-85.14404296875
-90.63720703125
-100.7080078125
-119.0185546875
-118.10302734375
-113.525390625
-105.28564453125
-89.7216796875
-87.890625
-96.13037109375
-100.7080078125
-105.28564453125
-99.79248046875
-101.62353515625
-97.0458984375
-107.11669921875
-105.28564453125
-94.29931640625
-90.63720703125
-91.552734375
-98.876953125
-98.876953125
-86.0595703125
-86.97509765625
-95.21484375
-113.525390625
-114.44091796875
-106.201171875
-91.552734375
-96.13037109375
-93.3837890625
-93.3837890625
-97.96142578125
-98.876953125
-98.876953125
-99.79248046875
-97.96142578125
-114.44091796875
-107.11669921875
-94.29931640625
-93.3837890625
-111.6943359375
-117.1875
-112.60986328125
-105.28564453125
-98.876953125
-95.21484375
-100.7080078125
-96.13037109375
-93.3837890625
-101.62353515625
-119.0185546875
-131.8359375
-125.42724609375
-116.27197265625
-108.0322265625
-98.876953125
-108.0322265625
-120.849609375
-125.42724609375
-120.849609375
-118.10302734375
-115.3564453125
-113.525390625
-116.27197265625
-106.201171875
-98.876953125
-115.3564453125
-129.08935546875
-130.92041015625
-134.58251953125
-127.25830078125
-127.25830078125
-127.25830078125
-118.10302734375
-118.10302734375
-122.6806640625
-127.25830078125
-137.3291015625
-140.07568359375
-140.07568359375
-137.3291015625
-125.42724609375
-114.44091796875
-114.44091796875
-119.93408203125
-123.59619140625
-127.25830078125
-135.498046875
-141.90673828125
-140.07568359375
-129.08935546875
-131.8359375
-131.8359375
-131.8359375
-140.9912109375
-152.89306640625
-140.9912109375
-129.08935546875
-127.25830078125
-119.93408203125
-116.27197265625
-124.51171875
-133.6669921875
-136.41357421875
-129.08935546875
-133.6669921875
-137.3291015625
-138.24462890625
-144.6533203125
-139.16015625
-127.25830078125
-130.92041015625
-142.822265625
-148.3154296875
-140.07568359375
-134.58251953125
-139.16015625
-140.9912109375
-135.498046875
-133.6669921875
-144.6533203125
-151.9775390625
-146.484375
-136.41357421875
-140.07568359375
-139.16015625
-127.25830078125
-136.41357421875
-143.73779296875
-138.24462890625
-140.9912109375
-141.90673828125
-140.07568359375
-139.16015625
-132.75146484375
-145.56884765625
-154.72412109375
-153.80859375
-151.9775390625
-150.146484375
-140.07568359375
-137.3291015625
-131.8359375
-127.25830078125
-133.6669921875
-145.56884765625
-147.39990234375
-144.6533203125
-138.24462890625
-140.9912109375
-147.39990234375
-150.146484375
-155.6396484375
-149.23095703125
-145.56884765625
-138.24462890625
-128.173828125
-137.3291015625
-140.07568359375
-136.41357421875
-133.6669921875
-143.73779296875
-151.9775390625
-151.06201171875
-151.06201171875
-145.56884765625
-139.16015625
-136.41357421875
-140.07568359375
-138.24462890625
-140.07568359375
-151.9775390625
-156.55517578125
-149.23095703125
-144.6533203125
-146.484375
-140.9912109375
-142.822265625
-147.39990234375
-147.39990234375
-139.16015625
-143.73779296875
-140.07568359375
-138.24462890625
-145.56884765625
-150.146484375
-146.484375
-154.72412109375
-151.9775390625
-128.173828125
-108.94775390625
-100.7080078125
-109.86328125
-98.876953125
-87.890625
-79.65087890625
-67.7490234375
-55.84716796875
-52.18505859375
-33.87451171875
-12.8173828125
0.91552734375
0
2.74658203125
-1.8310546875
-6.40869140625
-12.8173828125
-16.4794921875
-20.1416015625
-17.39501953125
-0.91552734375
1.8310546875
-1.8310546875
-4.57763671875
-16.4794921875
-21.05712890625
-35.70556640625
-57.67822265625
-73.2421875
-77.81982421875
-79.65087890625
-96.13037109375
-110.77880859375
-116.27197265625
-119.0185546875
-112.60986328125
-119.93408203125
-126.3427734375
-120.849609375
-116.27197265625
-117.1875
-121.76513671875
-120.849609375
-130.92041015625
-145.56884765625
-138.24462890625
-129.08935546875
-126.3427734375
-140.07568359375
-134.58251953125
-129.08935546875
-135.498046875
-142.822265625
-137.3291015625
-140.9912109375
-144.6533203125
-145.56884765625
-156.55517578125
-152.89306640625
-142.822265625
-121.76513671875
-98.876953125
-65.91796875
-33.87451171875
-1.8310546875
47.607421875
110.77880859375
208.740234375
325.927734375
459.5947265625
640.869140625
848.69384765625
1029.052734375
1169.12841796875
1317.44384765625
1461.181640625
1541.748046875
1547.2412109375
1538.0859375
1477.6611328125
1248.779296875
1009.82666015625
818.4814453125
610.65673828125
366.2109375
115.3564453125
-4.57763671875
-36.62109375
-60.4248046875
-106.201171875
-116.27197265625
-98.876953125
-72.32666015625
-50.35400390625
-32.04345703125
-21.97265625
-22.88818359375
-36.62109375
-42.1142578125
-43.9453125
-56.7626953125
-65.00244140625
-73.2421875
-78.7353515625
-76.904296875
-76.904296875
-91.552734375
-82.3974609375
-84.228515625
-86.97509765625
-85.14404296875
-91.552734375
-100.7080078125
-101.62353515625
-106.201171875
-106.201171875
-98.876953125
-90.63720703125
-80.56640625
-76.904296875
-70.49560546875
-75.98876953125
-92.46826171875
-101.62353515625
-101.62353515625
-86.0595703125
-67.7490234375
-59.50927734375
-62.255859375
-81.48193359375
-92.46826171875
-90.63720703125
-84.228515625
-75.0732421875
-68.66455078125
-56.7626953125
-65.00244140625
-63.17138671875
-57.67822265625
-56.7626953125
-49.4384765625
-51.26953125
-52.18505859375
-54.01611328125
-47.607421875
-47.607421875
-49.4384765625
-48.52294921875
-45.7763671875
-48.52294921875
-44.86083984375
-42.1142578125
-40.283203125
-35.70556640625
-21.97265625
-12.8173828125
-14.6484375
-16.4794921875
-19.22607421875
-3.662109375
-10.07080078125
-26.55029296875
-26.55029296875
-17.39501953125
-17.39501953125
-18.310546875
-11.90185546875
6.40869140625
16.4794921875
12.8173828125
-1.8310546875
2.74658203125
13.73291015625
15.56396484375
21.05712890625
25.634765625
25.634765625
27.4658203125
26.55029296875
26.55029296875
33.87451171875
34.7900390625
43.02978515625
44.86083984375
41.19873046875
34.7900390625
32.958984375
28.38134765625
34.7900390625
44.86083984375
53.1005859375
54.931640625
44.86083984375
54.931640625
56.7626953125
53.1005859375
51.26953125
57.67822265625
59.50927734375
58.59375
67.7490234375
73.2421875
63.17138671875
48.52294921875
47.607421875
64.0869140625
73.2421875
60.4248046875
46.69189453125
42.1142578125
33.87451171875
43.02978515625
49.4384765625
54.01611328125
61.34033203125
46.69189453125
37.53662109375
24.71923828125
11.90185546875
2.74658203125
-2.74658203125
-6.40869140625
-0.91552734375
-18.310546875
-31.1279296875
-31.1279296875
-21.97265625
-21.97265625
-39.36767578125
-55.84716796875
-78.7353515625
-84.228515625
-78.7353515625
-73.2421875
-66.83349609375
-65.91796875
-68.66455078125
-82.3974609375
-99.79248046875
-107.11669921875
-95.21484375
-90.63720703125
-88.80615234375
-82.3974609375
-87.890625
-103.45458984375
-112.60986328125
-113.525390625
-105.28564453125
-108.0322265625
-110.77880859375
-94.29931640625
-80.56640625
-87.890625
-90.63720703125
-92.46826171875
-91.552734375
-90.63720703125
-95.21484375
-96.13037109375
-87.890625
-89.7216796875
-97.0458984375
-99.79248046875
-95.21484375
-95.21484375
-98.876953125
-105.28564453125
-93.3837890625
-91.552734375
-91.552734375
-90.63720703125
-91.552734375
-86.97509765625
-82.3974609375
-75.98876953125
-80.56640625
-77.81982421875
-76.904296875
-81.48193359375
-85.14404296875
-91.552734375
-102.5390625
-109.86328125
-91.552734375
-80.56640625
-68.66455078125
-66.83349609375
-74.15771484375
-75.98876953125
-70.49560546875
-75.98876953125
-92.46826171875
-100.7080078125
-89.7216796875
-80.56640625
-74.15771484375
-82.3974609375
-80.56640625
-74.15771484375
-70.49560546875
-73.2421875
-73.2421875
-74.15771484375
-78.7353515625
-78.7353515625
-82.3974609375
-82.3974609375
-84.228515625
-88.80615234375
-84.228515625
-79.65087890625
-77.81982421875
-75.0732421875
-79.65087890625
-80.56640625
-82.3974609375
-86.97509765625
-95.21484375
-91.552734375
-86.0595703125
-78.7353515625
-78.7353515625
-85.14404296875
-92.46826171875
-96.13037109375
-97.0458984375
-88.80615234375
-85.14404296875
-93.3837890625
-96.13037109375
-99.79248046875
-94.29931640625
-85.14404296875
-76.904296875
-72.32666015625
-81.48193359375
-101.62353515625
-97.96142578125
-98.876953125
-98.876953125
-96.13037109375
-96.13037109375
-96.13037109375
-91.552734375
-88.80615234375
-92.46826171875
-90.63720703125
-87.890625
-85.14404296875
-90.63720703125
-97.0458984375
-90.63720703125
-104.3701171875
-118.10302734375
-110.77880859375
-103.45458984375
-93.3837890625
-89.7216796875
-84.228515625
-92.46826171875
-97.0458984375
-100.7080078125
-108.0322265625
-101.62353515625
-96.13037109375
-97.96142578125
-97.96142578125
-100.7080078125
-91.552734375
-92.46826171875
-102.5390625
-101.62353515625
-96.13037109375
-99.79248046875
-97.0458984375
-97.96142578125
-97.96142578125
-98.876953125
-95.21484375
-103.45458984375
-103.45458984375
-102.5390625
-101.62353515625
-97.0458984375
-97.96142578125
-92.46826171875
-92.46826171875
-92.46826171875
-94.29931640625
-86.97509765625
-81.48193359375
-91.552734375
-104.3701171875
-108.94775390625
-86.97509765625
-75.98876953125
-97.0458984375
-108.94775390625
-102.5390625
-87.890625
-93.3837890625
-101.62353515625
-106.201171875
-95.21484375
-92.46826171875
-86.97509765625
-78.7353515625
-79.65087890625
-79.65087890625
-83.31298828125
-89.7216796875
-93.3837890625
-89.7216796875
-90.63720703125
-90.63720703125
-99.79248046875
-99.79248046875
-94.29931640625
-95.21484375
-88.80615234375
-85.14404296875
-83.31298828125
-90.63720703125
-85.14404296875
-86.97509765625
-78.7353515625
-81.48193359375
-90.63720703125
-92.46826171875
-83.31298828125
-88.80615234375
-91.552734375
-92.46826171875
-90.63720703125
-97.96142578125
-97.0458984375
-91.552734375
-103.45458984375
-114.44091796875
-118.10302734375
-107.11669921875
-82.3974609375
-73.2421875
-66.83349609375
-70.49560546875
-81.48193359375
-85.14404296875
-71.4111328125
-75.98876953125
-67.7490234375
-54.01611328125
-37.53662109375
-17.39501953125
-2.74658203125
11.90185546875
26.55029296875
39.36767578125
55.84716796875
71.4111328125
61.34033203125
44.86083984375
35.70556640625
27.4658203125
30.21240234375
26.55029296875
30.21240234375
28.38134765625
32.958984375
38.4521484375
35.70556640625
34.7900390625
32.958984375
15.56396484375
7.32421875
-6.40869140625
-18.310546875
-35.70556640625
-58.59375
-55.84716796875
-55.84716796875
-56.7626953125
-64.0869140625
-72.32666015625
-85.14404296875
-79.65087890625
-74.15771484375
-69.580078125
-74.15771484375
-80.56640625
-84.228515625
-82.3974609375
-79.65087890625
-83.31298828125
-86.97509765625
-87.890625
-86.0595703125
-79.65087890625
-72.32666015625
-78.7353515625
-96.13037109375
-108.0322265625
-112.60986328125
-116.27197265625
-110.77880859375
-95.21484375
-80.56640625
-61.34033203125
-31.1279296875
10.07080078125
52.18505859375
89.7216796875
147.39990234375
237.12158203125
355.224609375
475.15869140625
621.64306640625
795.59326171875
965.88134765625
1123.35205078125
1260.68115234375
1420.8984375
1524.35302734375
1560.05859375
1594.8486328125
1584.77783203125
1436.46240234375
1196.59423828125
971.37451171875
786.43798828125
599.67041015625
357.97119140625
216.064453125
144.6533203125
89.7216796875
24.71923828125
-39.36767578125
-66.83349609375
-83.31298828125
-65.91796875
-32.958984375
-8.23974609375
12.8173828125
25.634765625
21.05712890625
-8.23974609375
-21.05712890625
-18.310546875
-14.6484375
-3.662109375
-13.73291015625
-32.04345703125
-44.86083984375
-37.53662109375
-27.4658203125
-27.4658203125
-37.53662109375
-40.283203125
-36.62109375
-34.7900390625
-24.71923828125
-27.4658203125
-41.19873046875
-51.26953125
-39.36767578125
-38.4521484375
-33.87451171875
-31.1279296875
-27.4658203125
-30.21240234375
-28.38134765625
-22.88818359375
-25.634765625
-21.05712890625
-23.8037109375
-32.04345703125
-26.55029296875
-21.05712890625
-16.4794921875
-22.88818359375
-32.958984375
-25.634765625
-30.21240234375
-20.1416015625
-10.07080078125
-10.07080078125
-15.56396484375
-18.310546875
-1.8310546875
-4.57763671875
-10.07080078125
-3.662109375
0.91552734375
-1.8310546875
-11.90185546875
-9.1552734375
-3.662109375
-4.57763671875
0.91552734375
18.310546875
27.4658203125
14.6484375
4.57763671875
12.8173828125
21.05712890625
22.88818359375
30.21240234375
32.958984375
33.87451171875
35.70556640625
35.70556640625
34.7900390625
40.283203125
34.7900390625
32.958984375
39.36767578125
54.01611328125
54.01611328125
47.607421875
54.01611328125
58.59375
54.931640625
61.34033203125
65.00244140625
52.18505859375
44.86083984375
47.607421875
66.83349609375
73.2421875
65.91796875
56.7626953125
65.91796875
82.3974609375
79.65087890625
64.0869140625
57.67822265625
70.49560546875
84.228515625
97.0458984375
98.876953125
86.97509765625
65.91796875
57.67822265625
62.255859375
75.98876953125
83.31298828125
81.48193359375
78.7353515625
86.97509765625
84.228515625
75.98876953125
79.65087890625
80.56640625
67.7490234375
61.34033203125
61.34033203125
69.580078125
72.32666015625
66.83349609375
57.67822265625
48.52294921875
47.607421875
43.9453125
41.19873046875
42.1142578125
30.21240234375
17.39501953125
12.8173828125
0
-19.22607421875
-21.97265625
-20.1416015625
-12.8173828125
-12.8173828125
-17.39501953125
-28.38134765625
-39.36767578125
-52.18505859375
-54.931640625
-55.84716796875
-65.00244140625
-60.4248046875
-50.35400390625
-49.4384765625
-65.91796875
-73.2421875
-68.66455078125
-71.4111328125
-77.81982421875
-70.49560546875
-75.0732421875
-76.904296875
-75.98876953125
-80.56640625
-83.31298828125
-84.228515625
-88.80615234375
-86.97509765625
-67.7490234375
-72.32666015625
-89.7216796875
-98.876953125
-86.97509765625
-75.98876953125
-78.7353515625
-86.97509765625
-76.904296875
-65.91796875
-75.98876953125
-87.890625
-83.31298828125
-84.228515625
-69.580078125
-64.0869140625
-64.0869140625
-78.7353515625
-80.56640625
-73.2421875
-72.32666015625
-72.32666015625
-73.2421875
-75.98876953125
-80.56640625
-85.14404296875
-77.81982421875
-72.32666015625
-65.00244140625
-64.0869140625
-62.255859375
-67.7490234375
-75.0732421875
-77.81982421875
-74.15771484375
-65.91796875
-72.32666015625
-83.31298828125
-84.228515625
-77.81982421875
-73.2421875
-75.98876953125
-69.580078125
-65.91796875
-76.904296875
-93.3837890625
-89.7216796875
-84.228515625
-76.904296875
-75.98876953125
-75.98876953125
-69.580078125
-70.49560546875
-81.48193359375
-89.7216796875
-86.0595703125
-75.98876953125
-81.48193359375
-84.228515625
-75.98876953125
-60.4248046875
-76.904296875
-97.0458984375
-103.45458984375
-100.7080078125
-98.876953125
-90.63720703125
-80.56640625
-77.81982421875
-80.56640625
-88.80615234375
-91.552734375
-93.3837890625
-87.890625
-88.80615234375
-86.0595703125
-92.46826171875
-105.28564453125
-98.876953125
-94.29931640625
-96.13037109375
-94.29931640625
-97.0458984375
-89.7216796875
-96.13037109375
-106.201171875
-110.77880859375
-114.44091796875
-121.76513671875
-103.45458984375
-99.79248046875
-97.0458984375
-98.876953125
-106.201171875
-103.45458984375
-99.79248046875
-114.44091796875
-129.08935546875
-125.42724609375
-127.25830078125
-108.0322265625
-95.21484375
-83.31298828125
-103.45458984375
-116.27197265625
-124.51171875
-118.10302734375
-101.62353515625
-97.0458984375
-104.3701171875
-103.45458984375
-104.3701171875
-103.45458984375
-110.77880859375
-121.76513671875
-119.0185546875
-118.10302734375
-115.3564453125
-109.86328125
-111.6943359375
-107.11669921875
-115.3564453125
-130.92041015625
-140.07568359375
-142.822265625
-124.51171875
-119.93408203125
-113.525390625
-108.94775390625
-113.525390625
-118.10302734375
-120.849609375
-114.44091796875
-108.94775390625
-114.44091796875
-128.173828125
-139.16015625
-145.56884765625
-137.3291015625
-119.0185546875
-103.45458984375
-99.79248046875
-108.94775390625
-118.10302734375
-126.3427734375
-143.73779296875
-148.3154296875
-133.6669921875
-124.51171875
-120.849609375
-118.10302734375
-115.3564453125
-119.93408203125
-118.10302734375
-111.6943359375
-113.525390625
-132.75146484375
-136.41357421875
-124.51171875
-115.3564453125
-116.27197265625
-128.173828125
-140.07568359375
-137.3291015625
-130.0048828125
-121.76513671875
-125.42724609375
-135.498046875
-140.07568359375
-134.58251953125
-127.25830078125
-127.25830078125
-128.173828125
-132.75146484375
-140.9912109375
-150.146484375
-149.23095703125
-136.41357421875
-125.42724609375
-115.3564453125
-119.0185546875
-136.41357421875
-152.89306640625
-143.73779296875
-135.498046875
-134.58251953125
-141.90673828125
-141.90673828125
-138.24462890625
-120.849609375
-117.1875
-116.27197265625
-119.0185546875
-131.8359375
-134.58251953125
-142.822265625
-140.9912109375
-131.8359375
-129.08935546875
-129.08935546875
-131.8359375
-125.42724609375
-121.76513671875
-129.08935546875
-133.6669921875
-123.59619140625
-129.08935546875
-138.24462890625
-127.25830078125
-111.6943359375
-106.201171875
-98.876953125
-101.62353515625
-88.80615234375
-66.83349609375
-55.84716796875
-53.1005859375
-39.36767578125
-13.73291015625
12.8173828125
15.56396484375
22.88818359375
9.1552734375
-8.23974609375
-26.55029296875
-29.296875
-29.296875
-16.4794921875
-8.23974609375
-8.23974609375
-9.1552734375
-3.662109375
-19.22607421875
-34.7900390625
-40.283203125
-40.283203125
-53.1005859375
-75.0732421875
-96.13037109375
-106.201171875
-113.525390625
-109.86328125
-108.0322265625
-105.28564453125
-106.201171875
-104.3701171875
-116.27197265625
-143.73779296875
-173.9501953125
-169.37255859375
-145.56884765625
-127.25830078125
-131.8359375
-127.25830078125
-123.59619140625
-131.8359375
-128.173828125
-133.6669921875
-139.16015625
-146.484375
-139.16015625
-140.9912109375
-135.498046875
-133.6669921875
-151.9775390625
-170.2880859375
-166.6259765625
-153.80859375
-129.08935546875
-97.0458984375
-70.49560546875
-55.84716796875
-18.310546875
47.607421875
140.07568359375
257.26318359375
395.5078125
548.40087890625
736.083984375
915.52734375
1072.998046875
1229.55322265625
1394.34814453125
1513.36669921875
1551.81884765625
1560.97412109375
1551.81884765625
1425.47607421875
1152.64892578125
931.09130859375
740.66162109375
526.42822265625
265.5029296875
55.84716796875
-14.6484375
-42.1142578125
-89.7216796875
-124.51171875
-127.25830078125
-102.5390625
-87.890625
-78.7353515625
-66.83349609375
-51.26953125
-51.26953125
-59.50927734375
-59.50927734375
-62.255859375
-69.580078125
-93.3837890625
-116.27197265625
-120.849609375
-120.849609375
-114.44091796875
-112.60986328125
-108.94775390625
-108.0322265625
-107.11669921875
-104.3701171875
-104.3701171875
-105.28564453125
-110.77880859375
-113.525390625
-121.76513671875
-122.6806640625
-122.6806640625
-109.86328125
-110.77880859375
-105.28564453125
-97.96142578125
-99.79248046875
-119.0185546875
-134.58251953125
-133.6669921875
-115.3564453125
-109.86328125
-102.5390625
-87.890625
-86.0595703125
-95.21484375
-107.11669921875
-112.60986328125
-108.0322265625
-97.96142578125
-94.29931640625
-77.81982421875
-71.4111328125
-80.56640625
-97.96142578125
-103.45458984375
-86.0595703125
-80.56640625
-74.15771484375
-76.904296875
-79.65087890625
-66.83349609375
-72.32666015625
-75.98876953125
-77.81982421875
-62.255859375
-58.59375
-56.7626953125
-53.1005859375
-58.59375
-64.0869140625
-51.26953125
-43.9453125
-32.958984375
-36.62109375
-52.18505859375
-63.17138671875
-61.34033203125
-58.59375
-58.59375
-37.53662109375
-32.958984375
-43.02978515625
-46.69189453125
-33.87451171875
-10.986328125
-10.986328125
-25.634765625
-25.634765625
-19.22607421875
-10.986328125
-0.91552734375
2.74658203125
-5.4931640625
-4.57763671875
0.91552734375
-6.40869140625
-8.23974609375
2.74658203125
7.32421875
2.74658203125
-2.74658203125
5.4931640625
10.07080078125
16.4794921875
17.39501953125
14.6484375
8.23974609375
11.90185546875
17.39501953125
13.73291015625
4.57763671875
5.4931640625
15.56396484375
21.97265625
24.71923828125
18.310546875
12.8173828125
10.07080078125
7.32421875
17.39501953125
21.05712890625
17.39501953125
8.23974609375
-3.662109375
-11.90185546875
-7.32421875
6.40869140625
7.32421875
-5.4931640625
-18.310546875
-24.71923828125
-26.55029296875
-32.958984375
-43.9453125
-51.26953125
-62.255859375
-65.00244140625
-73.2421875
-75.0732421875
-81.48193359375
-91.552734375
-99.79248046875
-103.45458984375
-113.525390625
-123.59619140625
-128.173828125
-126.3427734375
-123.59619140625
-133.6669921875
-139.16015625
-153.80859375
-162.04833984375
-163.87939453125
-158.38623046875
-151.06201171875
-148.3154296875
-158.38623046875
-150.146484375
-148.3154296875
-160.21728515625
-175.78125
-182.18994140625
-169.37255859375
-173.9501953125
-171.20361328125
-166.6259765625
-171.20361328125
-165.71044921875
-154.72412109375
-157.470703125
-163.87939453125
-163.87939453125
-169.37255859375
-169.37255859375
-162.9638671875
-158.38623046875
-160.21728515625
-162.04833984375
-165.71044921875
-162.9638671875
-166.6259765625
-164.794921875
-159.3017578125
-158.38623046875
-161.1328125
-162.9638671875
-161.1328125
-176.69677734375
-173.9501953125
-162.9638671875
-163.87939453125
-160.21728515625
-156.55517578125
-164.794921875
-178.52783203125
-151.06201171875
-144.6533203125
-157.470703125
-166.6259765625
-157.470703125
-153.80859375
-156.55517578125
-164.794921875
-161.1328125
-164.794921875
-162.04833984375
-162.9638671875
-159.3017578125
-154.72412109375
-155.6396484375
-155.6396484375
-153.80859375
-158.38623046875
-155.6396484375
-156.55517578125
-157.470703125
-159.3017578125
-157.470703125
-157.470703125
-162.9638671875
-163.87939453125
-164.794921875
-167.54150390625
-174.86572265625
-175.78125
-187.68310546875
-192.2607421875
-185.85205078125
-172.119140625
-160.21728515625
-165.71044921875
-184.02099609375
-183.10546875
-173.03466796875
-162.04833984375
-169.37255859375
-176.69677734375
-193.17626953125
-191.34521484375
-179.443359375
-175.78125
-173.9501953125
-167.54150390625
-171.20361328125
-179.443359375
-184.9365234375
-185.85205078125
-184.02099609375
-184.02099609375
-188.5986328125
-186.767578125
-184.02099609375
-183.10546875
-182.18994140625
-176.69677734375
-184.02099609375
-184.02099609375
-178.52783203125
-184.02099609375
-180.35888671875
-182.18994140625
-183.10546875
-194.091796875
-205.99365234375
-199.5849609375
-195.00732421875
-198.66943359375
-197.75390625
-180.35888671875
-172.119140625
-184.9365234375
-195.9228515625
-197.75390625
-196.83837890625
-187.68310546875
-187.68310546875
-184.02099609375
-173.9501953125
-165.71044921875
-164.794921875
-185.85205078125
-198.66943359375
-197.75390625
-186.767578125
-187.68310546875
-188.5986328125
-186.767578125
-184.9365234375
-191.34521484375
-193.17626953125
-190.4296875
-189.51416015625
-195.00732421875
-187.68310546875
-183.10546875
-174.86572265625
-184.02099609375
-195.00732421875
-206.9091796875
-205.078125
-195.00732421875
-190.4296875
-181.2744140625
-183.10546875
-195.00732421875
-194.091796875
-194.091796875
-204.16259765625
-193.17626953125
-191.34521484375
-190.4296875
-184.02099609375
-193.17626953125
-191.34521484375
-200.50048828125
-208.740234375
-207.82470703125
-208.740234375
-194.091796875
-186.767578125
-193.17626953125
-200.50048828125
-194.091796875
-186.767578125
-184.9365234375
-195.9228515625
-206.9091796875
-209.65576171875
-199.5849609375
-199.5849609375
-202.33154296875
-201.416015625
-199.5849609375
-200.50048828125
-199.5849609375
-201.416015625
-190.4296875
-188.5986328125
-198.66943359375
-198.66943359375
-196.83837890625
-198.66943359375
-194.091796875
-200.50048828125
-198.66943359375
-209.65576171875
-206.9091796875
-198.66943359375
-185.85205078125
-183.10546875
-185.85205078125
-190.4296875
-196.83837890625
-190.4296875
-196.83837890625
-197.75390625
-188.5986328125
-194.091796875
-204.16259765625
-199.5849609375
-195.00732421875
-185.85205078125
-187.68310546875
-197.75390625
-202.33154296875
-196.83837890625
-196.83837890625
-184.9365234375
-177.6123046875
-171.20361328125
-177.6123046875
-174.86572265625
-185.85205078125
-167.54150390625
-153.80859375
-129.08935546875
-109.86328125
-97.96142578125
-80.56640625
-75.0732421875
-63.17138671875
-49.4384765625
-40.283203125
-34.7900390625
-48.52294921875
-64.0869140625
-72.32666015625
-65.91796875
-63.17138671875
-61.34033203125
-63.17138671875
-62.255859375
-66.83349609375
-78.7353515625
-80.56640625
-65.91796875
-79.65087890625
-110.77880859375
-132.75146484375
-135.498046875
-134.58251953125
-145.56884765625
-151.9775390625
-150.146484375
-156.55517578125
-159.3017578125
-170.2880859375
-176.69677734375
-176.69677734375
-174.86572265625
-178.52783203125
-188.5986328125
-189.51416015625
-175.78125
-161.1328125
-169.37255859375
-183.10546875
-183.10546875
-179.443359375
-182.18994140625
-184.02099609375
-176.69677734375
-181.2744140625
-184.9365234375
-186.767578125
-181.2744140625
-189.51416015625
-196.83837890625
-195.00732421875
-193.17626953125
-178.52783203125
-131.8359375
-86.97509765625
-43.9453125
6.40869140625
69.580078125
161.1328125
277.40478515625
401.0009765625
565.7958984375
772.705078125
956.72607421875
1094.05517578125
1237.79296875
1381.53076171875
1471.25244140625
1498.71826171875
1498.71826171875
1474.91455078125
1264.34326171875
1022.64404296875
833.1298828125
628.96728515625
393.6767578125
132.75146484375
-14.6484375
-53.1005859375
-86.0595703125
-119.93408203125
-146.484375
-140.07568359375
-115.3564453125
-95.21484375
-84.228515625
-82.3974609375
-83.31298828125
-77.81982421875
-85.14404296875
-95.21484375
-94.29931640625
-90.63720703125
-96.13037109375
-112.60986328125
-119.0185546875
-125.42724609375
-120.849609375
-124.51171875
-124.51171875
-122.6806640625
-119.93408203125
-111.6943359375
-114.44091796875
-131.8359375
-137.3291015625
-140.9912109375
-133.6669921875
-124.51171875
-122.6806640625
-114.44091796875
-113.525390625
-111.6943359375
-112.60986328125
-117.1875
-116.27197265625
-109.86328125
-125.42724609375
-129.08935546875
-129.08935546875
-125.42724609375
-118.10302734375
-102.5390625
-87.890625
-97.96142578125
-108.94775390625
-105.28564453125
-95.21484375
-83.31298828125
-79.65087890625
-83.31298828125
-79.65087890625
-85.14404296875
-83.31298828125
-81.48193359375
-78.7353515625
-75.0732421875
-75.0732421875
-79.65087890625
-77.81982421875
-68.66455078125
-61.34033203125
-52.18505859375
-53.1005859375
-54.931640625
-64.0869140625
-78.7353515625
-82.3974609375
-55.84716796875
-36.62109375
-38.4521484375
-40.283203125
-39.36767578125
-35.70556640625
-23.8037109375
-28.38134765625
-38.4521484375
-33.87451171875
-25.634765625
-22.88818359375
-22.88818359375
-17.39501953125
-10.986328125
-7.32421875
-1.8310546875
6.40869140625
-0.91552734375
-9.1552734375
-7.32421875
-3.662109375
-5.4931640625
-5.4931640625
-2.74658203125
11.90185546875
16.4794921875
20.1416015625
24.71923828125
25.634765625
26.55029296875
25.634765625
32.958984375
38.4521484375
26.55029296875
30.21240234375
30.21240234375
32.04345703125
39.36767578125
42.1142578125
36.62109375
42.1142578125
38.4521484375
26.55029296875
21.05712890625
30.21240234375
32.958984375
35.70556640625
40.283203125
52.18505859375
41.19873046875
37.53662109375
32.958984375
35.70556640625
30.21240234375
32.958984375
30.21240234375
31.1279296875
42.1142578125
36.62109375
15.56396484375
-4.57763671875
-13.73291015625
-11.90185546875
-12.8173828125
-32.04345703125
-41.19873046875
-33.87451171875
-38.4521484375
-54.01611328125
-67.7490234375
-77.81982421875
-77.81982421875
-70.49560546875
-65.91796875
-70.49560546875
-93.3837890625
-93.3837890625
-86.0595703125
-87.890625
-97.0458984375
-105.28564453125
-103.45458984375
-99.79248046875
-101.62353515625
-117.1875
-117.1875
-113.525390625
-115.3564453125
-119.93408203125
-132.75146484375
-121.76513671875
-118.10302734375
-105.28564453125
-108.94775390625
-115.3564453125
-112.60986328125
-115.3564453125
-115.3564453125
-109.86328125
-112.60986328125
-126.3427734375
-127.25830078125
-119.93408203125
-109.86328125
-104.3701171875
-108.94775390625
-113.525390625
-108.0322265625
-107.11669921875
-109.86328125
-102.5390625
-95.21484375
-97.96142578125
-97.0458984375
-92.46826171875
-99.79248046875
-117.1875
-119.0185546875
-108.94775390625
-106.201171875
-108.0322265625
-106.201171875
-97.0458984375
-96.13037109375
-91.552734375
-93.3837890625
-96.13037109375
-97.0458984375
-97.96142578125
-96.13037109375
-104.3701171875
-124.51171875
-108.94775390625
-99.79248046875
-96.13037109375
-86.97509765625
-91.552734375
-95.21484375
-94.29931640625
-95.21484375
-93.3837890625
-89.7216796875
-90.63720703125
-93.3837890625
-100.7080078125
-98.876953125
-95.21484375
-87.890625
-86.0595703125
-95.21484375
-106.201171875
-101.62353515625
-90.63720703125
-86.97509765625
-104.3701171875
-104.3701171875
-103.45458984375
-101.62353515625
-96.13037109375
-92.46826171875
-104.3701171875
-108.0322265625
-107.11669921875
-97.96142578125
-91.552734375
-93.3837890625
-94.29931640625
-93.3837890625
-104.3701171875
-109.86328125
-105.28564453125
-98.876953125
-97.96142578125
-109.86328125
-120.849609375
-128.173828125
-130.92041015625
-116.27197265625
-102.5390625
-93.3837890625
-98.876953125
-96.13037109375
-97.96142578125
-100.7080078125
-115.3564453125
-128.173828125
-131.8359375
-121.76513671875
-108.94775390625
-97.96142578125
-102.5390625
-102.5390625
-108.0322265625
-106.201171875
-107.11669921875
-104.3701171875
-111.6943359375
-119.93408203125
-107.11669921875
-102.5390625
-94.29931640625
-91.552734375
-102.5390625
-115.3564453125
-120.849609375
-107.11669921875
-104.3701171875
-101.62353515625
-108.94775390625
-119.93408203125
-113.525390625
-102.5390625
-99.79248046875
-110.77880859375
-116.27197265625
-119.93408203125
-118.10302734375
-113.525390625
-108.94775390625
-106.201171875
-105.28564453125
-98.876953125
-108.0322265625
-115.3564453125
-122.6806640625
-114.44091796875
-112.60986328125
-109.86328125
-109.86328125
-108.0322265625
-101.62353515625
-101.62353515625
-104.3701171875
-103.45458984375
-99.79248046875
-108.94775390625
-111.6943359375
-108.0322265625
-116.27197265625
-111.6943359375
-112.60986328125
-114.44091796875
-118.10302734375
-108.0322265625
-97.96142578125
-110.77880859375
-120.849609375
-109.86328125
-110.77880859375
-112.60986328125
-113.525390625
-103.45458984375
-99.79248046875
-101.62353515625
-108.0322265625
-107.11669921875
-104.3701171875
-112.60986328125
-114.44091796875
-121.76513671875
-132.75146484375
-134.58251953125
-124.51171875
-100.7080078125
-95.21484375
-102.5390625
-110.77880859375
-109.86328125
-108.0322265625
