ECG
-116.27197265625
-114.44091796875
-111.6943359375
-100.7080078125
-116.27197265625
-122.6806640625
-115.3564453125
-128.173828125
-132.75146484375
-126.3427734375
-114.44091796875
-95.21484375
-63.17138671875
-21.97265625
4.57763671875
42.1142578125
93.3837890625
172.119140625
292.05322265625
421.142578125
573.1201171875
760.80322265625
953.9794921875
1116.943359375
1266.17431640625
1437.3779296875
1541.748046875
1580.2001953125
1594.8486328125
1595.76416015625
1509.70458984375
1274.4140625
1030.8837890625
814.8193359375
602.4169921875
335.99853515625
114.44091796875
34.7900390625
5.4931640625
-32.04345703125
-74.15771484375
-96.13037109375
-78.7353515625
-54.01611328125
-30.21240234375
-6.40869140625
5.4931640625
0
-9.1552734375
-21.05712890625
-31.1279296875
-34.7900390625
-43.02978515625
-48.52294921875
-52.18505859375
-56.7626953125
-59.50927734375
-60.4248046875
-61.34033203125
-65.00244140625
-66.83349609375
-67.7490234375
-68.66455078125
-68.66455078125
-64.0869140625
-59.50927734375
-75.0732421875
-71.4111328125
-68.66455078125
-66.83349609375
-67.7490234375
-68.66455078125
-68.66455078125
-65.00244140625
-59.50927734375
-62.255859375
-62.255859375
-60.4248046875
-59.50927734375
-57.67822265625
-56.7626953125
-54.931640625
-55.84716796875
-55.84716796875
-55.84716796875
-52.18505859375
-47.607421875
-46.69189453125
-44.86083984375
-42.1142578125
-43.9453125
-42.1142578125
-42.1142578125
-39.36767578125
-39.36767578125
-34.7900390625
-32.04345703125
-26.55029296875
-27.4658203125
-28.38134765625
-26.55029296875
-26.55029296875
-25.634765625
-10.986328125
-10.986328125
-19.22607421875
-14.6484375
-8.23974609375
-2.74658203125
0
-1.8310546875
0.91552734375
0.91552734375
3.662109375
7.32421875
10.07080078125
8.23974609375
11.90185546875
13.73291015625
15.56396484375
18.310546875
21.97265625
19.22607421875
22.88818359375
25.634765625
27.4658203125
29.296875
32.958984375
37.53662109375
41.19873046875
44.86083984375
44.86083984375
45.7763671875
50.35400390625
51.26953125
54.931640625
56.7626953125
59.50927734375
63.17138671875
67.7490234375
75.0732421875
75.98876953125
73.2421875
74.15771484375
75.0732421875
77.81982421875
83.31298828125
77.81982421875
70.49560546875
70.49560546875
73.2421875
74.15771484375
75.0732421875
75.98876953125
79.65087890625
72.32666015625
71.4111328125
72.32666015625
75.0732421875
73.2421875
72.32666015625
67.7490234375
66.83349609375
65.00244140625
60.4248046875
58.59375
53.1005859375
50.35400390625
45.7763671875
40.283203125
25.634765625
17.39501953125
8.23974609375
-0.91552734375
-9.1552734375
-18.310546875
-23.8037109375
-31.1279296875
-40.283203125
-45.7763671875
-54.931640625
-58.59375
-66.83349609375
-72.32666015625
-73.2421875
-79.65087890625
-86.0595703125
-90.63720703125
-91.552734375
-95.21484375
-98.876953125
-101.62353515625
-102.5390625
-104.3701171875
-111.6943359375
-112.60986328125
-114.44091796875
-118.10302734375
-110.77880859375
-115.3564453125
-120.849609375
-118.10302734375
-121.76513671875
-120.849609375
-120.849609375
-117.1875
-116.27197265625
-115.3564453125
-117.1875
-115.3564453125
-116.27197265625
-117.1875
-115.3564453125
-112.60986328125
-114.44091796875
-114.44091796875
-117.1875
-119.93408203125
-117.1875
-114.44091796875
-113.525390625
-109.86328125
-112.60986328125
-115.3564453125
-110.77880859375
-115.3564453125
-112.60986328125
-110.77880859375
-112.60986328125
-112.60986328125
-110.77880859375
-107.11669921875
-105.28564453125
-100.7080078125
-103.45458984375
-108.94775390625
-108.94775390625
-105.28564453125
-104.3701171875
-97.0458984375
-110.77880859375
-113.525390625
-112.60986328125
-109.86328125
-108.94775390625
-109.86328125
-108.0322265625
-109.86328125
-108.94775390625
-110.77880859375
-105.28564453125
-109.86328125
-111.6943359375
-108.94775390625
-108.0322265625
-113.525390625
-113.525390625
-117.1875
-115.3564453125
-113.525390625
-112.60986328125
-114.44091796875
-114.44091796875
-117.1875
-119.93408203125
-117.1875
-118.10302734375
-119.93408203125
-123.59619140625
-122.6806640625
-117.1875
-122.6806640625
-129.08935546875
-128.173828125
-126.3427734375
-128.173828125
-124.51171875
-132.75146484375
-140.07568359375
-134.58251953125
-131.8359375
-134.58251953125
-132.75146484375
-133.6669921875
-135.498046875
-135.498046875
-131.8359375
-133.6669921875
-136.41357421875
-138.24462890625
-136.41357421875
-132.75146484375
-136.41357421875
-135.498046875
-136.41357421875
-138.24462890625
-140.07568359375
-138.24462890625
-140.07568359375
-141.90673828125
-138.24462890625
-138.24462890625
-137.3291015625
-135.498046875
-139.16015625
-143.73779296875
-141.90673828125
-140.9912109375
-140.07568359375
-141.90673828125
-140.9912109375
-143.73779296875
-141.90673828125
-143.73779296875
-142.822265625
-141.90673828125
-142.822265625
-143.73779296875
-143.73779296875
-145.56884765625
-144.6533203125
-147.39990234375
-149.23095703125
-149.23095703125
-144.6533203125
-146.484375
-147.39990234375
-148.3154296875
-140.9912109375
-145.56884765625
-151.06201171875
-149.23095703125
-149.23095703125
-149.23095703125
-150.146484375
-149.23095703125
-151.06201171875
-153.80859375
-151.9775390625
-151.06201171875
-150.146484375
-149.23095703125
-152.89306640625
-153.80859375
-151.06201171875
-150.146484375
-150.146484375
-150.146484375
-149.23095703125
-147.39990234375
-151.06201171875
-151.9775390625
-152.89306640625
-151.06201171875
-149.23095703125
-140.07568359375
-150.146484375
-158.38623046875
-154.72412109375
-151.9775390625
-153.80859375
-153.80859375
-150.146484375
-154.72412109375
-151.9775390625
-157.470703125
-157.470703125
-159.3017578125
-156.55517578125
-156.55517578125
-157.470703125
-155.6396484375
-160.21728515625
-159.3017578125
-157.470703125
-153.80859375
-150.146484375
-154.72412109375
-158.38623046875
-156.55517578125
-160.21728515625
-158.38623046875
-151.06201171875
-152.89306640625
-159.3017578125
-160.21728515625
-157.470703125
-157.470703125
-156.55517578125
-156.55517578125
-156.55517578125
-152.89306640625
-152.89306640625
-157.470703125
-159.3017578125
-153.80859375
-153.80859375
-157.470703125
-157.470703125
-157.470703125
-153.80859375
-154.72412109375
-154.72412109375
-152.89306640625
-156.55517578125
-156.55517578125
-154.72412109375
-154.72412109375
-153.80859375
-147.39990234375
-149.23095703125
-147.39990234375
-143.73779296875
-137.3291015625
-133.6669921875
-130.92041015625
-123.59619140625
-111.6943359375
-99.79248046875
-92.46826171875
-82.3974609375
-69.580078125
-58.59375
-47.607421875
-28.38134765625
-10.07080078125
0
-0.91552734375
-15.56396484375
-25.634765625
-32.04345703125
-29.296875
-25.634765625
-22.88818359375
-18.310546875
-21.05712890625
-22.88818359375
-29.296875
-37.53662109375
-46.69189453125
-60.4248046875
-61.34033203125
-74.15771484375
-93.3837890625
-103.45458984375
-119.0185546875
-124.51171875
-125.42724609375
-125.42724609375
-130.0048828125
-130.92041015625
-134.58251953125
-128.173828125
-133.6669921875
-148.3154296875
-147.39990234375
-147.39990234375
-150.146484375
-146.484375
-148.3154296875
-150.146484375
-151.06201171875
-151.9775390625
-151.9775390625
-151.9775390625
-151.06201171875
-150.146484375
-151.06201171875
-154.72412109375
-155.6396484375
-169.37255859375
-166.6259765625
-149.23095703125
-129.08935546875
-97.96142578125
-57.67822265625
-28.38134765625
12.8173828125
63.17138671875
138.24462890625
258.1787109375
387.26806640625
535.58349609375
724.18212890625
916.44287109375
1077.57568359375
1225.89111328125
1390.68603515625
1505.126953125
1543.5791015625
1552.734375
1556.396484375
1455.6884765625
1204.833984375
969.54345703125
764.46533203125
539.24560546875
270.99609375
47.607421875
-30.21240234375
-51.26953125
-85.14404296875
-119.0185546875
-122.6806640625
-98.876953125
-72.32666015625
-43.9453125
-33.87451171875
-33.87451171875
-38.4521484375
-47.607421875
-56.7626953125
-65.00244140625
-73.2421875
-75.98876953125
-83.31298828125
-86.0595703125
-89.7216796875
-89.7216796875
-92.46826171875
-96.13037109375
-97.0458984375
-97.96142578125
-97.0458984375
-95.21484375
-97.96142578125
-102.5390625
-101.62353515625
-98.876953125
-97.0458984375
-97.96142578125
-97.96142578125
-97.96142578125
-94.29931640625
-94.29931640625
-93.3837890625
-93.3837890625
-93.3837890625
-90.63720703125
-88.80615234375
-86.0595703125
-84.228515625
-78.7353515625
-86.97509765625
-87.890625
-82.3974609375
-82.3974609375
-79.65087890625
-75.98876953125
-73.2421875
-70.49560546875
-66.83349609375
-70.49560546875
-65.00244140625
-62.255859375
-58.59375
-56.7626953125
-56.7626953125
-55.84716796875
-50.35400390625
-52.18505859375
-51.26953125
-49.4384765625
-44.86083984375
-43.02978515625
-37.53662109375
-37.53662109375
-36.62109375
-33.87451171875
-32.958984375
-32.04345703125
-28.38134765625
-28.38134765625
-25.634765625
-25.634765625
-21.05712890625
-21.05712890625
-16.4794921875
-9.1552734375
-7.32421875
-10.07080078125
-9.1552734375
-9.1552734375
-4.57763671875
0
4.57763671875
7.32421875
9.1552734375
9.1552734375
13.73291015625
12.8173828125
15.56396484375
18.310546875
21.05712890625
21.97265625
27.4658203125
29.296875
33.87451171875
34.7900390625
35.70556640625
39.36767578125
42.1142578125
41.19873046875
42.1142578125
45.7763671875
46.69189453125
51.26953125
53.1005859375
50.35400390625
53.1005859375
54.01611328125
52.18505859375
50.35400390625
54.01611328125
54.01611328125
54.931640625
52.18505859375
51.26953125
54.01611328125
54.01611328125
51.26953125
53.1005859375
53.1005859375
51.26953125
48.52294921875
46.69189453125
43.9453125
39.36767578125
31.1279296875
27.4658203125
23.8037109375
14.6484375
6.40869140625
0.91552734375
-5.4931640625
-19.22607421875
-24.71923828125
-32.04345703125
-41.19873046875
-50.35400390625
-57.67822265625
-62.255859375
-68.66455078125
-77.81982421875
-82.3974609375
-85.14404296875
-89.7216796875
-94.29931640625
-101.62353515625
-106.201171875
-108.0322265625
-112.60986328125
-118.10302734375
-119.0185546875
-120.849609375
-125.42724609375
-127.25830078125
-127.25830078125
-128.173828125
-129.08935546875
-130.0048828125
-132.75146484375
-134.58251953125
-133.6669921875
-135.498046875
-134.58251953125
-133.6669921875
-136.41357421875
-136.41357421875
-138.24462890625
-138.24462890625
-136.41357421875
-136.41357421875
-137.3291015625
-136.41357421875
-135.498046875
-137.3291015625
-135.498046875
-133.6669921875
-131.8359375
-132.75146484375
-130.0048828125
-130.0048828125
-130.0048828125
-130.92041015625
-125.42724609375
-119.93408203125
-130.0048828125
-126.3427734375
-129.08935546875
-130.0048828125
-126.3427734375
-124.51171875
-125.42724609375
-122.6806640625
-125.42724609375
-123.59619140625
-122.6806640625
-124.51171875
-124.51171875
-122.6806640625
-123.59619140625
-123.59619140625
-121.76513671875
-120.849609375
-118.10302734375
-117.1875
-116.27197265625
-115.3564453125
-120.849609375
-120.849609375
-121.76513671875
-121.76513671875
-122.6806640625
-119.93408203125
-123.59619140625
-123.59619140625
-125.42724609375
-127.25830078125
-126.3427734375
-128.173828125
-126.3427734375
-126.3427734375
-124.51171875
-123.59619140625
-127.25830078125
-128.173828125
-126.3427734375
-126.3427734375
-130.92041015625
-130.0048828125
-133.6669921875
-130.0048828125
-131.8359375
-136.41357421875
-135.498046875
-136.41357421875
-137.3291015625
-139.16015625
-141.90673828125
-135.498046875
-139.16015625
-141.90673828125
-139.16015625
-140.07568359375
-141.90673828125
-140.9912109375
-141.90673828125
-147.39990234375
-145.56884765625
-143.73779296875
-145.56884765625
-143.73779296875
-140.9912109375
-143.73779296875
-151.9775390625
-149.23095703125
-151.06201171875
-153.80859375
-152.89306640625
-147.39990234375
-149.23095703125
-153.80859375
-152.89306640625
-152.89306640625
-150.146484375
-149.23095703125
-152.89306640625
-152.89306640625
-153.80859375
-151.06201171875
-152.89306640625
-152.89306640625
-152.89306640625
-154.72412109375
-153.80859375
-151.9775390625
-154.72412109375
-154.72412109375
-155.6396484375
-152.89306640625
-153.80859375
-153.80859375
-152.89306640625
-153.80859375
-155.6396484375
-154.72412109375
-153.80859375
-154.72412109375
-155.6396484375
-153.80859375
-151.9775390625
-154.72412109375
-157.470703125
-153.80859375
-155.6396484375
-155.6396484375
-157.470703125
-156.55517578125
-159.3017578125
-153.80859375
-152.89306640625
-156.55517578125
-159.3017578125
-157.470703125
-153.80859375
-159.3017578125
-157.470703125
-155.6396484375
-153.80859375
-157.470703125
-155.6396484375
-148.3154296875
-153.80859375
-162.04833984375
-157.470703125
-155.6396484375
-157.470703125
-156.55517578125
-155.6396484375
-155.6396484375
-156.55517578125
-155.6396484375
-156.55517578125
-157.470703125
-154.72412109375
-153.80859375
-153.80859375
-151.9775390625
-153.80859375
-154.72412109375
-155.6396484375
-155.6396484375
-154.72412109375
-151.06201171875
-153.80859375
-155.6396484375
-154.72412109375
-153.80859375
-154.72412109375
-155.6396484375
-156.55517578125
-156.55517578125
-156.55517578125
-155.6396484375
-157.470703125
-157.470703125
-155.6396484375
-159.3017578125
-152.89306640625
-150.146484375
-155.6396484375
-159.3017578125
-160.21728515625
-156.55517578125
-156.55517578125
-158.38623046875
-159.3017578125
-161.1328125
-162.04833984375
-160.21728515625
-162.04833984375
-158.38623046875
-159.3017578125
-158.38623046875
-157.470703125
-160.21728515625
-158.38623046875
-155.6396484375
-149.23095703125
-150.146484375
-155.6396484375
-151.06201171875
-150.146484375
-144.6533203125
-140.07568359375
-140.07568359375
-138.24462890625
-131.8359375
-123.59619140625
-112.60986328125
-105.28564453125
-86.97509765625
-78.7353515625
-66.83349609375
-49.4384765625
-37.53662109375
-23.8037109375
-10.07080078125
0
-7.32421875
-21.97265625
-32.04345703125
-37.53662109375
-27.4658203125
-21.97265625
-19.22607421875
-24.71923828125
-24.71923828125
-29.296875
-34.7900390625
-42.1142578125
-50.35400390625
-63.17138671875
-75.98876953125
-89.7216796875
-102.5390625
-108.94775390625
-119.93408203125
-122.6806640625
-123.59619140625
-125.42724609375
-128.173828125
-130.92041015625
-131.8359375
-134.58251953125
-138.24462890625
-141.90673828125
-141.90673828125
-144.6533203125
-141.90673828125
-143.73779296875
-142.822265625
-144.6533203125
-146.484375
-146.484375
-149.23095703125
-145.56884765625
-150.146484375
-147.39990234375
-145.56884765625
-141.90673828125
-152.89306640625
-171.20361328125
-164.794921875
-149.23095703125
-130.0048828125
-101.62353515625
-64.0869140625
-34.7900390625
-1.8310546875
45.7763671875
118.10302734375
233.45947265625
362.548828125
508.11767578125
694.88525390625
887.14599609375
1058.349609375
1206.6650390625
1375.1220703125
1490.478515625
1536.2548828125
1539.9169921875
1541.748046875
1459.3505859375
1213.07373046875
978.69873046875
774.5361328125
549.31640625
285.64453125
58.59375
-17.39501953125
-43.9453125
-75.0732421875
-106.201171875
-112.60986328125
-95.21484375
-74.15771484375
-45.7763671875
-27.4658203125
-23.8037109375
-32.958984375
-39.36767578125
-50.35400390625
-55.84716796875
-60.4248046875
-63.17138671875
-78.7353515625
-82.3974609375
-82.3974609375
-86.0595703125
-89.7216796875
-93.3837890625
-92.46826171875
-94.29931640625
-92.46826171875
-93.3837890625
-93.3837890625
-98.876953125
-96.13037109375
-95.21484375
-94.29931640625
-95.21484375
-98.876953125
-95.21484375
-93.3837890625
-91.552734375
-95.21484375
-94.29931640625
-91.552734375
-89.7216796875
-89.7216796875
-83.31298828125
-82.3974609375
-84.228515625
-82.3974609375
-79.65087890625
-65.91796875
-71.4111328125
-83.31298828125
-80.56640625
-72.32666015625
-71.4111328125
-71.4111328125
-70.49560546875
-64.0869140625
-64.0869140625
-61.34033203125
-61.34033203125
-58.59375
-58.59375
-56.7626953125
-55.84716796875
-50.35400390625
-45.7763671875
-44.86083984375
-42.1142578125
-39.36767578125
-40.283203125
-37.53662109375
-34.7900390625
-35.70556640625
-32.958984375
-27.4658203125
-23.8037109375
-21.97265625
-22.88818359375
-21.05712890625
-19.22607421875
-17.39501953125
-15.56396484375
-12.8173828125
-11.90185546875
-8.23974609375
-5.4931640625
-6.40869140625
-3.662109375
-0.91552734375
4.57763671875
5.4931640625
9.1552734375
15.56396484375
15.56396484375
15.56396484375
25.634765625
24.71923828125
17.39501953125
22.88818359375
24.71923828125
28.38134765625
31.1279296875
35.70556640625
36.62109375
38.4521484375
40.283203125
43.9453125
43.9453125
43.02978515625
46.69189453125
47.607421875
45.7763671875
45.7763671875
48.52294921875
49.4384765625
49.4384765625
48.52294921875
47.607421875
49.4384765625
49.4384765625
44.86083984375
44.86083984375
47.607421875
45.7763671875
44.86083984375
43.9453125
40.283203125
38.4521484375
37.53662109375
31.1279296875
29.296875
21.97265625
19.22607421875
11.90185546875
10.07080078125
2.74658203125
-5.4931640625
-12.8173828125
-21.97265625
-31.1279296875
-36.62109375
-47.607421875
-51.26953125
-58.59375
-68.66455078125
-69.580078125
-75.98876953125
-80.56640625
-86.0595703125
-93.3837890625
-86.97509765625
-91.552734375
-101.62353515625
-109.86328125
-114.44091796875
-113.525390625
-116.27197265625
-123.59619140625
-126.3427734375
-126.3427734375
-128.173828125
-127.25830078125
-128.173828125
-130.0048828125
-130.0048828125
-129.08935546875
-130.92041015625
-130.0048828125
-130.0048828125
-128.173828125
-129.08935546875
-128.173828125
-128.173828125
-125.42724609375
-124.51171875
-128.173828125
-130.92041015625
-126.3427734375
-125.42724609375
-128.173828125
-124.51171875
-126.3427734375
-123.59619140625
-122.6806640625
-123.59619140625
-119.93408203125
-118.10302734375
-119.0185546875
-118.10302734375
-115.3564453125
-119.0185546875
-116.27197265625
-113.525390625
-115.3564453125
-115.3564453125
-112.60986328125
-114.44091796875
-113.525390625
-111.6943359375
-107.11669921875
-113.525390625
-122.6806640625
-120.849609375
-119.93408203125
-114.44091796875
-117.1875
-118.10302734375
-119.0185546875
-119.93408203125
-119.93408203125
-116.27197265625
-118.10302734375
-119.93408203125
-117.1875
-115.3564453125
-119.0185546875
-121.76513671875
-120.849609375
-121.76513671875
-119.0185546875
-124.51171875
-122.6806640625
-122.6806640625
-122.6806640625
-120.849609375
-122.6806640625
-124.51171875
-122.6806640625
-123.59619140625
-123.59619140625
-125.42724609375
-124.51171875
-123.59619140625
-124.51171875
-127.25830078125
-128.173828125
-131.8359375
-130.0048828125
-130.0048828125
-128.173828125
-132.75146484375
-131.8359375
-134.58251953125
-132.75146484375
-133.6669921875
-136.41357421875
-138.24462890625
-139.16015625
-138.24462890625
-139.16015625
-139.16015625
-140.9912109375
-132.75146484375
-134.58251953125
-141.90673828125
-138.24462890625
-143.73779296875
-143.73779296875
-142.822265625
-142.822265625
-140.9912109375
-143.73779296875
-146.484375
-145.56884765625
-145.56884765625
-151.06201171875
-150.146484375
-151.9775390625
-148.3154296875
-147.39990234375
-148.3154296875
-150.146484375
-150.146484375
-148.3154296875
-149.23095703125
-148.3154296875
-150.146484375
-151.06201171875
-151.9775390625
-151.06201171875
-147.39990234375
-150.146484375
-154.72412109375
-155.6396484375
-153.80859375
-145.56884765625
-143.73779296875
-154.72412109375
-154.72412109375
-151.06201171875
-151.9775390625
-152.89306640625
-151.06201171875
-151.06201171875
-152.89306640625
-153.80859375
-151.9775390625
-151.06201171875
-155.6396484375
-156.55517578125
-155.6396484375
-155.6396484375
-157.470703125
-155.6396484375
-155.6396484375
-152.89306640625
-147.39990234375
-157.470703125
-160.21728515625
-155.6396484375
-153.80859375
-156.55517578125
-156.55517578125
-159.3017578125
-160.21728515625
-154.72412109375
-155.6396484375
-154.72412109375
-158.38623046875
-159.3017578125
-159.3017578125
-158.38623046875
-157.470703125
-159.3017578125
-158.38623046875
-161.1328125
-161.1328125
-163.87939453125
-162.9638671875
-164.794921875
-162.04833984375
-161.1328125
-162.04833984375
-163.87939453125
-163.87939453125
-162.9638671875
-162.9638671875
-162.9638671875
-164.794921875
-165.71044921875
-161.1328125
-161.1328125
-162.04833984375
-164.794921875
-156.55517578125
-160.21728515625
-158.38623046875
-158.38623046875
-157.470703125
-158.38623046875
-156.55517578125
-156.55517578125
-148.3154296875
-151.9775390625
-161.1328125
-157.470703125
-159.3017578125
-160.21728515625
-162.04833984375
-160.21728515625
-162.04833984375
-163.87939453125
-165.71044921875
-161.1328125
-160.21728515625
-162.9638671875
-162.9638671875
-163.87939453125
-163.87939453125
-162.04833984375
-163.87939453125
-162.04833984375
-163.87939453125
-160.21728515625
-156.55517578125
-158.38623046875
-154.72412109375
-149.23095703125
-145.56884765625
-140.9912109375
-138.24462890625
-133.6669921875
-130.0048828125
-122.6806640625
-110.77880859375
-98.876953125
-89.7216796875
-60.4248046875
-51.26953125
-50.35400390625
-31.1279296875
-10.986328125
-4.57763671875
-11.90185546875
-21.97265625
-33.87451171875
-39.36767578125
-32.958984375
-29.296875
-23.8037109375
-26.55029296875
-30.21240234375
-33.87451171875
-43.02978515625
-47.607421875
-58.59375
-70.49560546875
-80.56640625
-91.552734375
-103.45458984375
-117.1875
-122.6806640625
-124.51171875
-130.0048828125
-133.6669921875
-129.08935546875
-132.75146484375
-137.3291015625
-144.6533203125
-142.822265625
-149.23095703125
-152.89306640625
-153.80859375
-155.6396484375
-154.72412109375
-152.89306640625
-158.38623046875
-159.3017578125
-158.38623046875
-159.3017578125
-158.38623046875
-161.1328125
-162.9638671875
-162.04833984375
-154.72412109375
-155.6396484375
-177.6123046875
-180.35888671875
-173.03466796875
-159.3017578125
-139.16015625
-109.86328125
-67.7490234375
-37.53662109375
6.40869140625
52.18505859375
136.41357421875
256.34765625
383.60595703125
535.58349609375
723.2666015625
918.27392578125
1077.57568359375
1230.46875
1388.85498046875
1486.81640625
1516.11328125
1527.099609375
1517.9443359375
1380.615234375
1122.4365234375
908.203125
707.70263671875
476.07421875
203.2470703125
23.8037109375
-32.958984375
-57.67822265625
-93.3837890625
-131.8359375
-135.498046875
-109.86328125
-89.7216796875
-62.255859375
-45.7763671875
-39.36767578125
-48.52294921875
-60.4248046875
-66.83349609375
-71.4111328125
-82.3974609375
-86.0595703125
-93.3837890625
-95.21484375
-99.79248046875
-104.3701171875
-104.3701171875
-109.86328125
-104.3701171875
-105.28564453125
-104.3701171875
-110.77880859375
-108.0322265625
-108.94775390625
-108.0322265625
-110.77880859375
-112.60986328125
-110.77880859375
-111.6943359375
-112.60986328125
-108.94775390625
-108.94775390625
-107.11669921875
-107.11669921875
-106.201171875
-106.201171875
-100.7080078125
-97.96142578125
-99.79248046875
-95.21484375
-90.63720703125
-100.7080078125
-98.876953125
-95.21484375
-93.3837890625
-93.3837890625
-92.46826171875
-84.228515625
-85.14404296875
-87.890625
-81.48193359375
-83.31298828125
-80.56640625
-75.98876953125
-76.904296875
-70.49560546875
-69.580078125
-65.91796875
-65.91796875
-60.4248046875
-59.50927734375
-61.34033203125
-59.50927734375
-56.7626953125
-54.931640625
-50.35400390625
-50.35400390625
-49.4384765625
-45.7763671875
-35.70556640625
-44.86083984375
-45.7763671875
-40.283203125
-37.53662109375
-36.62109375
-32.04345703125
-30.21240234375
-27.4658203125
-23.8037109375
-20.1416015625
-21.05712890625
-18.310546875
-17.39501953125
-12.8173828125
-11.90185546875
-12.8173828125
-8.23974609375
-5.4931640625
-1.8310546875
-3.662109375
-4.57763671875
4.57763671875
5.4931640625
9.1552734375
7.32421875
10.986328125
14.6484375
14.6484375
17.39501953125
20.1416015625
31.1279296875
25.634765625
15.56396484375
19.22607421875
23.8037109375
25.634765625
28.38134765625
30.21240234375
29.296875
25.634765625
26.55029296875
25.634765625
25.634765625
26.55029296875
29.296875
28.38134765625
31.1279296875
27.4658203125
24.71923828125
25.634765625
31.1279296875
26.55029296875
11.90185546875
10.986328125
8.23974609375
7.32421875
2.74658203125
-3.662109375
-10.07080078125
-14.6484375
-25.634765625
-33.87451171875
-43.9453125
-51.26953125
-58.59375
-65.00244140625
-72.32666015625
-79.65087890625
-86.0595703125
-90.63720703125
-97.0458984375
-102.5390625
-106.201171875
-110.77880859375
-119.0185546875
-122.6806640625
-121.76513671875
-127.25830078125
-130.92041015625
-133.6669921875
-139.16015625
-141.90673828125
-141.90673828125
-142.822265625
-144.6533203125
-143.73779296875
-146.484375
-145.56884765625
-148.3154296875
-142.822265625
-143.73779296875
-146.484375
-147.39990234375
-144.6533203125
-146.484375
-141.90673828125
-137.3291015625
-149.23095703125
-146.484375
-144.6533203125
-140.9912109375
-143.73779296875
-144.6533203125
-143.73779296875
-144.6533203125
-145.56884765625
-140.9912109375
-138.24462890625
-133.6669921875
-133.6669921875
-136.41357421875
-133.6669921875
-133.6669921875
-133.6669921875
-132.75146484375
-133.6669921875
-134.58251953125
-133.6669921875
-134.58251953125
-132.75146484375
-133.6669921875
-134.58251953125
-136.41357421875
-134.58251953125
-136.41357421875
-136.41357421875
-136.41357421875
-127.25830078125
-132.75146484375
-143.73779296875
-137.3291015625
-136.41357421875
-139.16015625
-140.07568359375
-135.498046875
-139.16015625
-139.16015625
-135.498046875
-137.3291015625
-140.07568359375
-135.498046875
-137.3291015625
-138.24462890625
-137.3291015625
-135.498046875
-137.3291015625
-140.9912109375
-141.90673828125
-139.16015625
-141.90673828125
-141.90673828125
-142.822265625
-142.822265625
-140.9912109375
-134.58251953125
-143.73779296875
-145.56884765625
-142.822265625
-146.484375
-143.73779296875
-147.39990234375
-145.56884765625
-146.484375
-143.73779296875
-150.146484375
-150.146484375
-150.146484375
-150.146484375
-150.146484375
-151.06201171875
-154.72412109375
-156.55517578125
-154.72412109375
-153.80859375
-157.470703125
-159.3017578125
-158.38623046875
-162.04833984375
-160.21728515625
-161.1328125
-162.9638671875
-161.1328125
-160.21728515625
-162.04833984375
-162.04833984375
-163.87939453125
-160.21728515625
-159.3017578125
-163.87939453125
-165.71044921875
-163.87939453125
-162.9638671875
-162.04833984375
-159.3017578125
-156.55517578125
-170.2880859375
-167.54150390625
-165.71044921875
-164.794921875
-164.794921875
-163.87939453125
-169.37255859375
-168.45703125
-168.45703125
-167.54150390625
-163.87939453125
-166.6259765625
-169.37255859375
-166.6259765625
-162.04833984375
-166.6259765625
-168.45703125
-167.54150390625
-166.6259765625
-166.6259765625
-168.45703125
-167.54150390625
-168.45703125
-166.6259765625
-168.45703125
-166.6259765625
-164.794921875
-162.9638671875
-168.45703125
-171.20361328125
-166.6259765625
-166.6259765625
-165.71044921875
-163.87939453125
-166.6259765625
-167.54150390625
-169.37255859375
-170.2880859375
-168.45703125
-168.45703125
-166.6259765625
-167.54150390625
-163.87939453125
-164.794921875
-166.6259765625
-159.3017578125
-165.71044921875
-175.78125
-172.119140625
-168.45703125
-167.54150390625
-168.45703125
-170.2880859375
-172.119140625
-172.119140625
-171.20361328125
-166.6259765625
-170.2880859375
-169.37255859375
-167.54150390625
-170.2880859375
-170.2880859375
-167.54150390625
-169.37255859375
-172.119140625
-167.54150390625
-167.54150390625
-167.54150390625
-167.54150390625
-170.2880859375
-170.2880859375
-171.20361328125
-171.20361328125
-172.119140625
-171.20361328125
-169.37255859375
-171.20361328125
-169.37255859375
-161.1328125
-160.21728515625
-173.9501953125
-173.03466796875
-171.20361328125
-172.119140625
-168.45703125
-166.6259765625
-171.20361328125
-172.119140625
-173.9501953125
-173.03466796875
-171.20361328125
-168.45703125
-169.37255859375
-172.119140625
-170.2880859375
-168.45703125
-168.45703125
-173.03466796875
-171.20361328125
-171.20361328125
-167.54150390625
-162.04833984375
-162.9638671875
-162.04833984375
-157.470703125
-151.9775390625
-151.06201171875
-146.484375
-145.56884765625
-140.9912109375
-129.08935546875
-116.27197265625
-106.201171875
-93.3837890625
-79.65087890625
-65.91796875
-53.1005859375
-36.62109375
-17.39501953125
-7.32421875
-14.6484375
-21.97265625
-42.1142578125
-50.35400390625
-40.283203125
-35.70556640625
-33.87451171875
-31.1279296875
-31.1279296875
-35.70556640625
-46.69189453125
-50.35400390625
-58.59375
-71.4111328125
-81.48193359375
-91.552734375
-103.45458984375
-118.10302734375
-125.42724609375
-131.8359375
-132.75146484375
-139.16015625
-138.24462890625
-139.16015625
-139.16015625
-143.73779296875
-140.07568359375
-148.3154296875
-157.470703125
-158.38623046875
-150.146484375
-154.72412109375
-165.71044921875
-164.794921875
-161.1328125
-161.1328125
-163.87939453125
-165.71044921875
-162.9638671875
-164.794921875
-163.87939453125
-166.6259765625
-162.9638671875
-166.6259765625
-173.9501953125
-172.119140625
-174.86572265625
-160.21728515625
-123.59619140625
-86.0595703125
-55.84716796875
-25.634765625
16.4794921875
83.31298828125
195.00732421875
314.02587890625
447.69287109375
614.31884765625
807.4951171875
987.85400390625
1132.50732421875
1303.7109375
1446.533203125
1510.6201171875
1526.18408203125
1538.0859375
1493.22509765625
1275.32958984375
1027.2216796875
819.39697265625
614.31884765625
368.0419921875
119.93408203125
14.6484375
-28.38134765625
-65.00244140625
-108.94775390625
-127.25830078125
-121.76513671875
-106.201171875
-86.97509765625
-61.34033203125
-43.02978515625
-44.86083984375
-49.4384765625
-63.17138671875
-73.2421875
-82.3974609375
-88.80615234375
-92.46826171875
-93.3837890625
-99.79248046875
-105.28564453125
-108.0322265625
-108.94775390625
-111.6943359375
-104.3701171875
-112.60986328125
-119.0185546875
-112.60986328125
-113.525390625
-115.3564453125
-113.525390625
-110.77880859375
-112.60986328125
-114.44091796875
-111.6943359375
-111.6943359375
-112.60986328125
-107.11669921875
-102.5390625
-101.62353515625
-94.29931640625
-97.96142578125
-106.201171875
-99.79248046875
-97.0458984375
-95.21484375
-86.0595703125
-92.46826171875
-96.13037109375
-86.0595703125
-86.0595703125
-97.0458984375
-90.63720703125
-86.97509765625
-86.97509765625
-83.31298828125
-80.56640625
-79.65087890625
-78.7353515625
-74.15771484375
-75.0732421875
-68.66455078125
-67.7490234375
-69.580078125
-66.83349609375
-65.00244140625
-58.59375
-57.67822265625
-56.7626953125
-56.7626953125
-62.255859375
-52.18505859375
-52.18505859375
-51.26953125
-45.7763671875
-47.607421875
-42.1142578125
-41.19873046875
-41.19873046875
-40.283203125
-37.53662109375
-39.36767578125
-28.38134765625
-27.4658203125
-28.38134765625
-21.97265625
-12.8173828125
-24.71923828125
-25.634765625
-20.1416015625
-20.1416015625
-16.4794921875
-11.90185546875
-14.6484375
-10.07080078125
-5.4931640625
-4.57763671875
-0.91552734375
1.8310546875
4.57763671875
6.40869140625
11.90185546875
14.6484375
12.8173828125
15.56396484375
17.39501953125
17.39501953125
20.1416015625
21.97265625
24.71923828125
22.88818359375
20.1416015625
24.71923828125
25.634765625
25.634765625
21.97265625
25.634765625
38.4521484375
21.97265625
19.22607421875
22.88818359375
22.88818359375
22.88818359375
21.97265625
21.97265625
26.55029296875
23.8037109375
11.90185546875
6.40869140625
10.07080078125
4.57763671875
-1.8310546875
-10.07080078125
-12.8173828125
-23.8037109375
-32.04345703125
-30.21240234375
-33.87451171875
-54.01611328125
-57.67822265625
-64.0869140625
-72.32666015625
-80.56640625
-90.63720703125
-88.80615234375
-103.45458984375
-102.5390625
-110.77880859375
-113.525390625
-113.525390625
-120.849609375
-126.3427734375
-128.173828125
-128.173828125
-131.8359375
-132.75146484375
-128.173828125
-140.07568359375
-144.6533203125
-143.73779296875
-146.484375
-145.56884765625
-144.6533203125
-142.822265625
-137.3291015625
-149.23095703125
-156.55517578125
-149.23095703125
-151.06201171875
-151.9775390625
-151.06201171875
-146.484375
-149.23095703125
-147.39990234375
-151.06201171875
-151.9775390625
-150.146484375
-147.39990234375
-145.56884765625
-148.3154296875
-147.39990234375
-145.56884765625
-147.39990234375
-150.146484375
-146.484375
-143.73779296875
-143.73779296875
-143.73779296875
-143.73779296875
-139.16015625
-138.24462890625
-140.9912109375
-140.07568359375
-136.41357421875
-140.9912109375
-135.498046875
-130.0048828125
-140.9912109375
-146.484375
-142.822265625
-138.24462890625
-136.41357421875
-138.24462890625
-137.3291015625
-140.9912109375
-138.24462890625
-139.16015625
-133.6669921875
-133.6669921875
-138.24462890625
-140.9912109375
-138.24462890625
-139.16015625
-140.07568359375
-135.498046875
-135.498046875
-140.9912109375
-140.07568359375
-140.9912109375
-139.16015625
-139.16015625
-140.07568359375
-142.822265625
-147.39990234375
-146.484375
-145.56884765625
-145.56884765625
-138.24462890625
-131.8359375
-149.23095703125
-151.9775390625
-150.146484375
-150.146484375
-149.23095703125
-151.9775390625
-150.146484375
-147.39990234375
-151.9775390625
-150.146484375
-153.80859375
-155.6396484375
-148.3154296875
-155.6396484375
-151.9775390625
-147.39990234375
-151.06201171875
-157.470703125
-157.470703125
-157.470703125
-157.470703125
-160.21728515625
-159.3017578125
-158.38623046875
-162.04833984375
-161.1328125
-167.54150390625
-165.71044921875
-163.87939453125
-156.55517578125
-161.1328125
-171.20361328125
-171.20361328125
-165.71044921875
-162.9638671875
-162.04833984375
-165.71044921875
-161.1328125
-160.21728515625
-160.21728515625
-161.1328125
-161.1328125
-161.1328125
-159.3017578125
-159.3017578125
-167.54150390625
-166.6259765625
-162.9638671875
-158.38623046875
-163.87939453125
-162.9638671875
-164.794921875
-162.04833984375
-163.87939453125
-161.1328125
-165.71044921875
-165.71044921875
-165.71044921875
-162.9638671875
-165.71044921875
-166.6259765625
-155.6396484375
-161.1328125
-166.6259765625
-166.6259765625
-161.1328125
-164.794921875
-164.794921875
-166.6259765625
-166.6259765625
-162.9638671875
-160.21728515625
-156.55517578125
-165.71044921875
-166.6259765625
-165.71044921875
-165.71044921875
-166.6259765625
-162.9638671875
-165.71044921875
-169.37255859375
-167.54150390625
-162.9638671875
-169.37255859375
-165.71044921875
-165.71044921875
-174.86572265625
-168.45703125
-156.55517578125
-158.38623046875
-169.37255859375
-168.45703125
-167.54150390625
-166.6259765625
-166.6259765625
-170.2880859375
-163.87939453125
-164.794921875
-160.21728515625
-162.04833984375
-163.87939453125
-161.1328125
-164.794921875
-163.87939453125
-165.71044921875
-167.54150390625
-164.794921875
-164.794921875
-161.1328125
-162.9638671875
-163.87939453125
-163.87939453125
-165.71044921875
-167.54150390625
-170.2880859375
-165.71044921875
-167.54150390625
-163.87939453125
-161.1328125
-154.72412109375
-158.38623046875
-169.37255859375
-169.37255859375
-167.54150390625
-165.71044921875
-171.20361328125
-167.54150390625
-162.04833984375
-161.1328125
-163.87939453125
-165.71044921875
-164.794921875
-164.794921875
-164.794921875
-164.794921875
-168.45703125
-165.71044921875
-163.87939453125
-162.9638671875
-163.87939453125
-167.54150390625
-162.9638671875
-162.9638671875
-168.45703125
-167.54150390625
-163.87939453125
-162.04833984375
-150.146484375
-140.07568359375
-149.23095703125
-152.89306640625
-145.56884765625
-142.822265625
-140.07568359375
-131.8359375
-119.0185546875
-105.28564453125
-97.0458984375
-86.97509765625
-65.00244140625
-54.01611328125
-45.7763671875
-25.634765625
-14.6484375
-8.23974609375
-22.88818359375
-36.62109375
-43.9453125
-43.9453125
-36.62109375
-30.21240234375
-28.38134765625
-29.296875
-30.21240234375
-39.36767578125
-43.9453125
-48.52294921875
-72.32666015625
-71.4111328125
-83.31298828125
-101.62353515625
-109.86328125
-119.0185546875
-131.8359375
-134.58251953125
-130.92041015625
-132.75146484375
-137.3291015625
-135.498046875
-145.56884765625
-142.822265625
-142.822265625
-144.6533203125
-151.06201171875
-151.06201171875
-146.484375
-141.90673828125
-154.72412109375
-156.55517578125
-152.89306640625
-154.72412109375
-155.6396484375
-152.89306640625
-154.72412109375
-155.6396484375
-156.55517578125
-153.80859375
-158.38623046875
-159.3017578125
-173.03466796875
-171.20361328125
-162.9638671875
-151.9775390625
-125.42724609375
-92.46826171875
-54.01611328125
-23.8037109375
14.6484375
72.32666015625
170.2880859375
292.96875
422.9736328125
595.0927734375
791.93115234375
986.9384765625
1123.35205078125
1284.48486328125
1441.95556640625
1511.53564453125
1526.18408203125
1537.17041015625
1503.2958984375
1299.13330078125
1054.6875
842.28515625
632.62939453125
389.09912109375
130.92041015625
8.23974609375
-32.958984375
-67.7490234375
-106.201171875
-127.25830078125
-120.849609375
-97.96142578125
-73.2421875
-49.4384765625
-28.38134765625
-38.4521484375
-50.35400390625
-57.67822265625
-71.4111328125
-79.65087890625
-85.14404296875
-89.7216796875
-94.29931640625
-94.29931640625
-96.13037109375
-97.96142578125
-103.45458984375
-104.3701171875
-107.11669921875
-107.11669921875
-107.11669921875
-106.201171875
-104.3701171875
-103.45458984375
-107.11669921875
-107.11669921875
-103.45458984375
-103.45458984375
-105.28564453125
-102.5390625
-99.79248046875
-94.29931640625
-87.890625
-101.62353515625
-99.79248046875
-92.46826171875
-93.3837890625
-88.80615234375
-87.890625
-90.63720703125
-88.80615234375
-85.14404296875
-86.0595703125
-86.97509765625
-80.56640625
-78.7353515625
-79.65087890625
-78.7353515625
-75.98876953125
-75.98876953125
-73.2421875
-73.2421875
-70.49560546875
-68.66455078125
-64.0869140625
-64.0869140625
-61.34033203125
-58.59375
-54.931640625
-41.19873046875
-52.18505859375
-52.18505859375
-51.26953125
-47.607421875
-38.4521484375
-38.4521484375
-41.19873046875
-36.62109375
-34.7900390625
-34.7900390625
-29.296875
-26.55029296875
-24.71923828125
-22.88818359375
-21.05712890625
-15.56396484375
-18.310546875
-18.310546875
-14.6484375
-10.07080078125
-2.74658203125
-4.57763671875
-3.662109375
0
3.662109375
2.74658203125
6.40869140625
10.07080078125
13.73291015625
11.90185546875
15.56396484375
17.39501953125
23.8037109375
19.22607421875
21.97265625
23.8037109375
27.4658203125
31.1279296875
32.958984375
33.87451171875
30.21240234375
30.21240234375
32.04345703125
32.04345703125
40.283203125
43.9453125
38.4521484375
35.70556640625
38.4521484375
34.7900390625
32.958984375
36.62109375
33.87451171875
35.70556640625
35.70556640625
38.4521484375
32.04345703125
35.70556640625
34.7900390625
32.04345703125
33.87451171875
32.958984375
27.4658203125
25.634765625
20.1416015625
16.4794921875
10.07080078125
6.40869140625
-0.91552734375
-10.986328125
-18.310546875
-23.8037109375
-32.958984375
-38.4521484375
-42.1142578125
-46.69189453125
-59.50927734375
-65.00244140625
-70.49560546875
-77.81982421875
-81.48193359375
-85.14404296875
-87.890625
-97.0458984375
-100.7080078125
-104.3701171875
-114.44091796875
-113.525390625
-119.0185546875
-117.1875
-110.77880859375
-120.849609375
-129.08935546875
-127.25830078125
-127.25830078125
-129.08935546875
-130.92041015625
-129.08935546875
-133.6669921875
-129.08935546875
-125.42724609375
-128.173828125
-130.0048828125
-134.58251953125
-130.92041015625
-129.08935546875
-130.0048828125
-129.08935546875
-127.25830078125
-129.08935546875
-124.51171875
-130.0048828125
-128.173828125
-124.51171875
-125.42724609375
-122.6806640625
-122.6806640625
-120.849609375
-118.10302734375
-117.1875
-120.849609375
-119.93408203125
-117.1875
-119.93408203125
-118.10302734375
-119.93408203125
-119.93408203125
-120.849609375
-119.93408203125
-117.1875
-119.93408203125
-111.6943359375
-114.44091796875
-123.59619140625
-117.1875
-119.0185546875
-118.10302734375
-114.44091796875
-120.849609375
-119.0185546875
-119.0185546875
-120.849609375
-122.6806640625
-120.849609375
-121.76513671875
-118.10302734375
-120.849609375
-119.93408203125
-120.849609375
-122.6806640625
-121.76513671875
-119.0185546875
-122.6806640625
-122.6806640625
-123.59619140625
-124.51171875
-126.3427734375
-125.42724609375
-128.173828125
-128.173828125
-128.173828125
-130.0048828125
-132.75146484375
-130.92041015625
-132.75146484375
-132.75146484375
-135.498046875
-128.173828125
-129.08935546875
-129.08935546875
-130.0048828125
-140.07568359375
-138.24462890625
-138.24462890625
-133.6669921875
-135.498046875
-132.75146484375
-131.8359375
-139.16015625
-138.24462890625
-138.24462890625
-139.16015625
-136.41357421875
-137.3291015625
-140.07568359375
-140.07568359375
-137.3291015625
-140.07568359375
-142.822265625
-140.9912109375
-136.41357421875
-140.9912109375
-146.484375
-143.73779296875
-143.73779296875
-145.56884765625
-142.822265625
-146.484375
-145.56884765625
-146.484375
-145.56884765625
-148.3154296875
-147.39990234375
-146.484375
-142.822265625
-144.6533203125
-146.484375
-143.73779296875
-141.90673828125
-151.9775390625
-150.146484375
-147.39990234375
-147.39990234375
-147.39990234375
-150.146484375
-148.3154296875
-149.23095703125
-148.3154296875
-148.3154296875
-149.23095703125
-149.23095703125
-146.484375
-145.56884765625
-148.3154296875
-148.3154296875
-144.6533203125
-146.484375
-146.484375
-149.23095703125
-145.56884765625
-147.39990234375
-149.23095703125
-151.9775390625
-150.146484375
-146.484375
-144.6533203125
-144.6533203125
-149.23095703125
-151.9775390625
-147.39990234375
-148.3154296875
-150.146484375
-148.3154296875
-144.6533203125
-146.484375
-147.39990234375
-151.06201171875
-150.146484375
-148.3154296875
-146.484375
-140.07568359375
-153.80859375
-151.06201171875
-152.89306640625
-152.89306640625
-149.23095703125
-148.3154296875
-151.9775390625
-149.23095703125
-148.3154296875
-146.484375
-146.484375
-146.484375
-149.23095703125
-146.484375
-147.39990234375
-149.23095703125
-149.23095703125
-146.484375
-148.3154296875
-149.23095703125
-147.39990234375
-149.23095703125
-151.9775390625
-147.39990234375
-143.73779296875
-140.9912109375
-145.56884765625
-143.73779296875
-144.6533203125
-147.39990234375
-142.822265625
-143.73779296875
-145.56884765625
-144.6533203125
-140.07568359375
-144.6533203125
-147.39990234375
-143.73779296875
-146.484375
-139.16015625
-136.41357421875
-150.146484375
-151.06201171875
-146.484375
-147.39990234375
-143.73779296875
-146.484375
-146.484375
-143.73779296875
-140.07568359375
-139.16015625
-143.73779296875
-148.3154296875
-150.146484375
-147.39990234375
-147.39990234375
-149.23095703125
-147.39990234375
-138.24462890625
-137.3291015625
-139.16015625
-138.24462890625
-132.75146484375
-127.25830078125
-125.42724609375
-123.59619140625
-120.849609375
-115.3564453125
-102.5390625
-90.63720703125
-78.7353515625
-73.2421875
-55.84716796875
-37.53662109375
-24.71923828125
-14.6484375
4.57763671875
12.8173828125
13.73291015625
-0.91552734375
-10.986328125
-19.22607421875
-12.8173828125
-8.23974609375
-5.4931640625
-7.32421875
-10.07080078125
-15.56396484375
-11.90185546875
-22.88818359375
-38.4521484375
-53.1005859375
-60.4248046875
-68.66455078125
-85.14404296875
-95.21484375
-104.3701171875
-108.94775390625
-107.11669921875
-105.28564453125
-111.6943359375
-117.1875
-119.0185546875
-120.849609375
-124.51171875
-123.59619140625
-126.3427734375
-127.25830078125
-127.25830078125
-131.8359375
-130.0048828125
-130.92041015625
-131.8359375
-132.75146484375
-136.41357421875
-135.498046875
-132.75146484375
-127.25830078125
-130.0048828125
-135.498046875
-134.58251953125
-135.498046875
-144.6533203125
-152.89306640625
-144.6533203125
-130.92041015625
-113.525390625
-80.56640625
-45.7763671875
-15.56396484375
20.1416015625
68.66455078125
143.73779296875
270.08056640625
390.93017578125
520.93505859375
713.19580078125
907.28759765625
1072.998046875
1218.56689453125
1394.34814453125
1506.04248046875
1550.9033203125
1560.05859375
1556.396484375
1456.60400390625
1199.3408203125
973.20556640625
775.45166015625
552.06298828125
284.72900390625
72.32666015625
2.74658203125
-26.55029296875
-62.255859375
-95.21484375
-103.45458984375
-79.65087890625
-59.50927734375
-34.7900390625
-17.39501953125
-10.07080078125
-10.986328125
-26.55029296875
-30.21240234375
-43.9453125
-53.1005859375
-53.1005859375
-62.255859375
-64.0869140625
-70.49560546875
-71.4111328125
-74.15771484375
-77.81982421875
-78.7353515625
-75.98876953125
-81.48193359375
-83.31298828125
-84.228515625
-80.56640625
-78.7353515625
-76.904296875
-81.48193359375
-76.904296875
-73.2421875
-72.32666015625
-75.0732421875
-78.7353515625
-75.0732421875
-72.32666015625
-68.66455078125
-65.91796875
-67.7490234375
-65.00244140625
-65.00244140625
-65.91796875
-62.255859375
-58.59375
-62.255859375
-59.50927734375
-51.26953125
-43.02978515625
-54.01611328125
-55.84716796875
-54.01611328125
-51.26953125
-49.4384765625
-43.9453125
-45.7763671875
-41.19873046875
-39.36767578125
-36.62109375
-33.87451171875
-30.21240234375
-31.1279296875
-31.1279296875
-23.8037109375
-20.1416015625
-21.05712890625
-15.56396484375
-10.986328125
-16.4794921875
-15.56396484375
-13.73291015625
-8.23974609375
-8.23974609375
-6.40869140625
-4.57763671875
1.8310546875
-1.8310546875
0.91552734375
1.8310546875
7.32421875
16.4794921875
17.39501953125
20.1416015625
25.634765625
17.39501953125
19.22607421875
26.55029296875
25.634765625
24.71923828125
30.21240234375
37.53662109375
37.53662109375
38.4521484375
43.02978515625
44.86083984375
48.52294921875
44.86083984375
48.52294921875
51.26953125
55.84716796875
54.931640625
56.7626953125
61.34033203125
65.00244140625
64.0869140625
65.91796875
66.83349609375
69.580078125
67.7490234375
65.00244140625
68.66455078125
67.7490234375
72.32666015625
75.0732421875
71.4111328125
65.00244140625
67.7490234375
71.4111328125
71.4111328125
75.0732421875
65.00244140625
62.255859375
61.34033203125
58.59375
60.4248046875
60.4248046875
55.84716796875
52.18505859375
47.607421875
43.9453125
42.1142578125
36.62109375
28.38134765625
18.310546875
9.1552734375
2.74658203125
-2.74658203125
-12.8173828125
-16.4794921875
-24.71923828125
-27.4658203125
-36.62109375
-43.9453125
-47.607421875
-53.1005859375
-57.67822265625
-63.17138671875
-70.49560546875
-67.7490234375
-73.2421875
-65.91796875
-73.2421875
-90.63720703125
-89.7216796875
-86.0595703125
-86.0595703125
-91.552734375
-91.552734375
-94.29931640625
-95.21484375
-95.21484375
-98.876953125
-98.876953125
-97.96142578125
-97.0458984375
-98.876953125
-97.0458984375
-97.0458984375
-96.13037109375
-96.13037109375
-95.21484375
-97.96142578125
-100.7080078125
-96.13037109375
-97.0458984375
-94.29931640625
-93.3837890625
-91.552734375
-93.3837890625
-90.63720703125
-86.97509765625
-96.13037109375
-95.21484375
-89.7216796875
-92.46826171875
-93.3837890625
-94.29931640625
-91.552734375
-82.3974609375
-89.7216796875
-93.3837890625
-92.46826171875
-90.63720703125
-91.552734375
-87.890625
-87.890625
-86.97509765625
-84.228515625
-85.14404296875
-86.97509765625
-88.80615234375
-88.80615234375
-86.97509765625
-86.97509765625
-86.0595703125
-85.14404296875
-80.56640625
-84.228515625
-89.7216796875
-86.0595703125
-83.31298828125
-83.31298828125
-84.228515625
-82.3974609375
-86.0595703125
-86.0595703125
-86.97509765625
-87.890625
-89.7216796875
-87.890625
-87.890625
-87.890625
-84.228515625
-83.31298828125
-95.21484375
-94.29931640625
-93.3837890625
-93.3837890625
-92.46826171875
-94.29931640625
-89.7216796875
-97.0458984375
-91.552734375
-97.96142578125
-99.79248046875
-102.5390625
-103.45458984375
-102.5390625
-103.45458984375
-104.3701171875
-98.876953125
-99.79248046875
-99.79248046875
-99.79248046875
-105.28564453125
-102.5390625
-92.46826171875
-106.201171875
-107.11669921875
-103.45458984375
-108.0322265625
-106.201171875
-105.28564453125
-105.28564453125
-105.28564453125
-108.0322265625
-107.11669921875
-105.28564453125
-105.28564453125
-107.11669921875
-108.94775390625
-107.11669921875
-109.86328125
-109.86328125
-108.94775390625
-110.77880859375
-108.94775390625
-111.6943359375
-110.77880859375
-106.201171875
-104.3701171875
-108.94775390625
-108.94775390625
-107.11669921875
-108.0322265625
-108.0322265625
-111.6943359375
-108.0322265625
-102.5390625
-98.876953125
-111.6943359375
-112.60986328125
-108.94775390625
-108.94775390625
-105.28564453125
-106.201171875
-111.6943359375
-110.77880859375
-109.86328125
-109.86328125
-110.77880859375
-105.28564453125
-106.201171875
-111.6943359375
-109.86328125
-107.11669921875
-104.3701171875
-102.5390625
-110.77880859375
-108.0322265625
-110.77880859375
-108.94775390625
-108.94775390625
-106.201171875
-109.86328125
-108.0322265625
-108.0322265625
-108.0322265625
-109.86328125
-110.77880859375
-108.94775390625
-108.0322265625
-109.86328125
-108.94775390625
-105.28564453125
-104.3701171875
-104.3701171875
-101.62353515625
-99.79248046875
-106.201171875
-105.28564453125
-111.6943359375
-108.94775390625
-107.11669921875
-107.11669921875
-107.11669921875
-104.3701171875
-102.5390625
-106.201171875
-105.28564453125
-102.5390625
-103.45458984375
-106.201171875
-105.28564453125
-105.28564453125
-105.28564453125
-99.79248046875
-105.28564453125
-103.45458984375
-100.7080078125
-100.7080078125
-101.62353515625
-102.5390625
-105.28564453125
-103.45458984375
-103.45458984375
-104.3701171875
-102.5390625
-98.876953125
-102.5390625
-105.28564453125
-104.3701171875
-104.3701171875
-102.5390625
-97.0458984375
-98.876953125
-93.3837890625
-96.13037109375
-106.201171875
-106.201171875
-108.0322265625
-101.62353515625
-99.79248046875
-99.79248046875
-102.5390625
-101.62353515625
-101.62353515625
-103.45458984375
-102.5390625
-100.7080078125
-92.46826171875
-90.63720703125
-86.97509765625
-85.14404296875
-80.56640625
-77.81982421875
-78.7353515625
-72.32666015625
-59.50927734375
-54.01611328125
-41.19873046875
-28.38134765625
-18.310546875
3.662109375
15.56396484375
25.634765625
46.69189453125
55.84716796875
55.84716796875
38.4521484375
31.1279296875
24.71923828125
27.4658203125
37.53662109375
36.62109375
33.87451171875
37.53662109375
33.87451171875
26.55029296875
21.97265625
12.8173828125
3.662109375
-4.57763671875
-20.1416015625
-31.1279296875
-43.9453125
-54.01611328125
-59.50927734375
-65.00244140625
-67.7490234375
-66.83349609375
-67.7490234375
-65.91796875
-73.2421875
-79.65087890625
-84.228515625
-83.31298828125
-86.0595703125
-86.97509765625
-85.14404296875
-84.228515625
-86.97509765625
-84.228515625
-86.97509765625
-88.80615234375
-88.80615234375
-86.0595703125
-86.0595703125
-94.29931640625
-91.552734375
-89.7216796875
-86.97509765625
-96.13037109375
-104.3701171875
-96.13037109375
-84.228515625
-57.67822265625
-32.04345703125
7.32421875
38.4521484375
73.2421875
119.93408203125
196.83837890625
320.4345703125
430.2978515625
562.1337890625
742.49267578125
931.09130859375
1098.6328125
1245.1171875
1417.236328125
1528.01513671875
1577.45361328125
1603.08837890625
1606.75048828125
1510.6201171875
1266.17431640625
1040.0390625
845.03173828125
634.46044921875
380.859375
177.6123046875
100.7080078125
57.67822265625
16.4794921875
-30.21240234375
-54.01611328125
-54.01611328125
-32.04345703125
-13.73291015625
13.73291015625
28.38134765625
27.4658203125
25.634765625
20.1416015625
-2.74658203125
-10.07080078125
-16.4794921875
-21.97265625
-22.88818359375
-21.97265625
-27.4658203125
-30.21240234375
-29.296875
-32.04345703125
-40.283203125
-37.53662109375
-38.4521484375
-35.70556640625
-31.1279296875
-27.4658203125
-36.62109375
-36.62109375
-32.958984375
-32.958984375
-31.1279296875
-33.87451171875
-32.958984375
-31.1279296875
-30.21240234375
-25.634765625
-29.296875
-31.1279296875
-26.55029296875
-21.97265625
-21.05712890625
-22.88818359375
-20.1416015625
-18.310546875
-7.32421875
-13.73291015625
-16.4794921875
-9.1552734375
-7.32421875
-2.74658203125
-3.662109375
-1.8310546875
-1.8310546875
2.74658203125
3.662109375
3.662109375
1.8310546875
6.40869140625
11.90185546875
15.56396484375
11.90185546875
8.23974609375
10.07080078125
16.4794921875
19.22607421875
21.05712890625
28.38134765625
29.296875
20.1416015625
29.296875
29.296875
30.21240234375
31.1279296875
33.87451171875
35.70556640625
41.19873046875
41.19873046875
43.02978515625
49.4384765625
53.1005859375
52.18505859375
54.01611328125
58.59375
56.7626953125
59.50927734375
59.50927734375
62.255859375
65.91796875
71.4111328125
72.32666015625
70.49560546875
72.32666015625
78.7353515625
87.890625
87.890625
82.3974609375
87.890625
84.228515625
87.890625
91.552734375
96.13037109375
96.13037109375
93.3837890625
95.21484375
97.96142578125
98.876953125
99.79248046875
102.5390625
106.201171875
102.5390625
101.62353515625
98.876953125
100.7080078125
98.876953125
94.29931640625
94.29931640625
97.0458984375
93.3837890625
95.21484375
90.63720703125
91.552734375
87.890625
87.890625
87.890625
87.890625
82.3974609375
75.0732421875
75.0732421875
69.580078125
57.67822265625
54.01611328125
60.4248046875
56.7626953125
42.1142578125
22.88818359375
20.1416015625
16.4794921875
8.23974609375
3.662109375
-6.40869140625
-12.8173828125
-21.97265625
-21.05712890625
-26.55029296875
-29.296875
-38.4521484375
-37.53662109375
-43.02978515625
-49.4384765625
-54.931640625
-55.84716796875
-59.50927734375
-58.59375
-60.4248046875
-61.34033203125
-63.17138671875
-64.0869140625
-63.17138671875
-65.00244140625
-66.83349609375
-67.7490234375
-69.580078125
-69.580078125
-69.580078125
-66.83349609375
-69.580078125
-71.4111328125
-65.91796875
-66.83349609375
-70.49560546875
-70.49560546875
-66.83349609375
-67.7490234375
-67.7490234375
-67.7490234375
-70.49560546875
-71.4111328125
-68.66455078125
-54.931640625
-58.59375
-69.580078125
-67.7490234375
-66.83349609375
-64.0869140625
-59.50927734375
-65.91796875
-64.0869140625
-62.255859375
-63.17138671875
-65.00244140625
-64.0869140625
-62.255859375
-61.34033203125
-60.4248046875
-55.84716796875
-59.50927734375
-61.34033203125
-57.67822265625
-62.255859375
-61.34033203125
-59.50927734375
-63.17138671875
-63.17138671875
-62.255859375
-60.4248046875
-63.17138671875
-62.255859375
-63.17138671875
-62.255859375
-62.255859375
-62.255859375
-62.255859375
-65.00244140625
-67.7490234375
-67.7490234375
-62.255859375
-58.59375
-65.91796875
-66.83349609375
-65.00244140625
-57.67822265625
-65.91796875
-75.0732421875
-73.2421875
-70.49560546875
-70.49560546875
-74.15771484375
-75.0732421875
-77.81982421875
-75.98876953125
-75.98876953125
-76.904296875
-83.31298828125
-82.3974609375
-81.48193359375
-83.31298828125
-81.48193359375
-82.3974609375
-81.48193359375
-84.228515625
-84.228515625
-89.7216796875
-86.0595703125
-80.56640625
-86.0595703125
-86.0595703125
-86.97509765625
-83.31298828125
-86.0595703125
-92.46826171875
-89.7216796875
-89.7216796875
-87.890625
-91.552734375
-91.552734375
-93.3837890625
-95.21484375
-91.552734375
-92.46826171875
-93.3837890625
-93.3837890625
-96.13037109375
-91.552734375
-86.0595703125
-95.21484375
-97.96142578125
-94.29931640625
-94.29931640625
-93.3837890625
-94.29931640625
-98.876953125
-97.0458984375
-93.3837890625
-94.29931640625
-94.29931640625
-94.29931640625
-92.46826171875
-95.21484375
-94.29931640625
-93.3837890625
-93.3837890625
-92.46826171875
-97.0458984375
-94.29931640625
-92.46826171875
-98.876953125
-97.0458984375
-88.80615234375
-94.29931640625
-97.96142578125
-99.79248046875
-95.21484375
-99.79248046875
-97.96142578125
-96.13037109375
-92.46826171875
-96.13037109375
-104.3701171875
-103.45458984375
-98.876953125
-97.96142578125
-102.5390625
-101.62353515625
-100.7080078125
-101.62353515625
-101.62353515625
-102.5390625
-100.7080078125
-102.5390625
-101.62353515625
-100.7080078125
-98.876953125
-102.5390625
-101.62353515625
-101.62353515625
-104.3701171875
-108.94775390625
-99.79248046875
-101.62353515625
-102.5390625
-102.5390625
-103.45458984375
-101.62353515625
-102.5390625
-101.62353515625
-106.201171875
-105.28564453125
-108.94775390625
-106.201171875
-102.5390625
-105.28564453125
-108.94775390625
-103.45458984375
-108.0322265625
-107.11669921875
-108.0322265625
-104.3701171875
-106.201171875
-107.11669921875
-105.28564453125
-108.94775390625
-105.28564453125
-98.876953125
-102.5390625
-105.28564453125
-108.0322265625
-110.77880859375
-108.94775390625
-106.201171875
-106.201171875
-105.28564453125
-109.86328125
-108.0322265625
-107.11669921875
-107.11669921875
-109.86328125
-108.94775390625
-104.3701171875
-103.45458984375
-104.3701171875
-104.3701171875
-106.201171875
-107.11669921875
-104.3701171875
-107.11669921875
-104.3701171875
-106.201171875
-107.11669921875
-106.201171875
-108.94775390625
-109.86328125
-105.28564453125
-104.3701171875
-108.0322265625
-106.201171875
-105.28564453125
-104.3701171875
-107.11669921875
-104.3701171875
-106.201171875
-105.28564453125
-105.28564453125
-104.3701171875
-103.45458984375
-106.201171875
-108.0322265625
-108.0322265625
-104.3701171875
-103.45458984375
-108.0322265625
-106.201171875
-105.28564453125
-107.11669921875
-108.94775390625
-106.201171875
-107.11669921875
-108.94775390625
-105.28564453125
-105.28564453125
-106.201171875
-107.11669921875
-105.28564453125
-106.201171875
-104.3701171875
-101.62353515625
-106.201171875
-107.11669921875
-108.94775390625
-106.201171875
-108.94775390625
-105.28564453125
-104.3701171875
-106.201171875
-107.11669921875
-107.11669921875
-105.28564453125
-105.28564453125
-112.60986328125
-108.94775390625
-107.11669921875
-108.0322265625
-107.11669921875
-104.3701171875
-94.29931640625
-105.28564453125
-113.525390625
-109.86328125
-108.94775390625
-105.28564453125
-107.11669921875
-110.77880859375
-108.0322265625
-109.86328125
-109.86328125
-106.201171875
-105.28564453125
-106.201171875
-113.525390625
-108.94775390625
-105.28564453125
-102.5390625
-105.28564453125
-108.94775390625
-111.6943359375
-108.0322265625
-106.201171875
-111.6943359375
-109.86328125
-108.94775390625
-109.86328125
-111.6943359375
-111.6943359375
-111.6943359375
-110.77880859375
-110.77880859375
-112.60986328125
-108.94775390625
-109.86328125
-106.201171875
-108.0322265625
-108.94775390625
-108.94775390625
-108.94775390625
-108.94775390625
-110.77880859375
-107.11669921875
-106.201171875
-108.0322265625
-107.11669921875
-107.11669921875
-104.3701171875
-108.0322265625
-106.201171875
-104.3701171875
-103.45458984375
-104.3701171875
-103.45458984375
-104.3701171875
-106.201171875
-101.62353515625
-103.45458984375
-102.5390625
-105.28564453125
-103.45458984375
-105.28564453125
-101.62353515625
-100.7080078125
-98.876953125
-102.5390625
-102.5390625
-101.62353515625
-101.62353515625
-104.3701171875
-102.5390625
-99.79248046875
-102.5390625
-106.201171875
-105.28564453125
-98.876953125
-97.96142578125
-101.62353515625
-103.45458984375
-104.3701171875
-101.62353515625
-102.5390625
-101.62353515625
-103.45458984375
-101.62353515625
-104.3701171875
-100.7080078125
-102.5390625
-99.79248046875
-100.7080078125
-102.5390625
-102.5390625
-101.62353515625
-99.79248046875
-102.5390625
-105.28564453125
-104.3701171875
-93.3837890625
-102.5390625
-110.77880859375
-108.94775390625
-103.45458984375
-100.7080078125
-100.7080078125
-99.79248046875
-100.7080078125
-97.0458984375
-95.21484375
-96.13037109375
-97.96142578125
-97.96142578125
-95.21484375
-100.7080078125
-100.7080078125
-97.96142578125
-98.876953125
-99.79248046875
-97.96142578125
-97.96142578125
-99.79248046875
-98.876953125
-97.96142578125
-97.96142578125
-101.62353515625
-98.876953125
-97.0458984375
-97.0458984375
-98.876953125
-100.7080078125
-99.79248046875
-99.79248046875
-97.0458984375
-97.96142578125
-93.3837890625
-96.13037109375
-85.14404296875
-95.21484375
-102.5390625
-97.0458984375
-97.96142578125
-98.876953125
-99.79248046875
-96.13037109375
-99.79248046875
-99.79248046875
-97.96142578125
-97.0458984375
-100.7080078125
-101.62353515625
-99.79248046875
-97.96142578125
-97.96142578125
-100.7080078125
-97.96142578125
-99.79248046875
-101.62353515625
-101.62353515625
-98.876953125
-100.7080078125
-103.45458984375
-99.79248046875
-97.0458984375
-96.13037109375
-98.876953125
-97.96142578125
-99.79248046875
-102.5390625
-99.79248046875
-97.0458984375
-100.7080078125
-101.62353515625
-101.62353515625
-99.79248046875
-96.13037109375
-97.96142578125
-97.96142578125
-97.0458984375
-97.96142578125
-96.13037109375
-97.0458984375
-101.62353515625
-97.0458984375
-100.7080078125
-100.7080078125
-101.62353515625
-97.0458984375
-90.63720703125
-91.552734375
-92.46826171875
-86.0595703125
-85.14404296875
-86.97509765625
-92.46826171875
-93.3837890625
-93.3837890625
-93.3837890625
-94.29931640625
-89.7216796875
-88.80615234375
-86.97509765625
-86.0595703125
-89.7216796875
-84.228515625
-73.2421875
-72.32666015625
-69.580078125
-67.7490234375
-66.83349609375
-69.580078125
-65.00244140625
-60.4248046875
-62.255859375
-65.91796875
-67.7490234375
-69.580078125
-71.4111328125
-76.904296875
-83.31298828125
-78.7353515625
-74.15771484375
-71.4111328125
-67.7490234375
-71.4111328125
-73.2421875
-78.7353515625
-72.32666015625
-71.4111328125
-75.98876953125
-79.65087890625
-83.31298828125
-86.0595703125
-87.890625
-89.7216796875
-88.80615234375
-89.7216796875
-88.80615234375
-86.97509765625
-90.63720703125
-91.552734375
-86.97509765625
-83.31298828125
-82.3974609375
-83.31298828125
-81.48193359375
-83.31298828125
-83.31298828125
-78.7353515625
-77.81982421875
-84.228515625
-97.0458984375
-102.5390625
-84.228515625
-68.66455078125
-42.1142578125
-6.40869140625
27.4658203125
58.59375
101.62353515625
155.6396484375
247.1923828125
367.12646484375
504.45556640625
673.828125
846.86279296875
1033.63037109375
1184.6923828125
1336.669921875
1484.9853515625
1568.29833984375
1588.43994140625
1585.693359375
1560.05859375
1393.4326171875
1143.49365234375
940.24658203125
736.083984375
511.77978515625
238.95263671875
86.0595703125
34.7900390625
13.73291015625
-18.310546875
-35.70556640625
-17.39501953125
-7.32421875
10.986328125
40.283203125
53.1005859375
41.19873046875
36.62109375
30.21240234375
25.634765625
19.22607421875
9.1552734375
-2.74658203125
-6.40869140625
-2.74658203125
-8.23974609375
-6.40869140625
-12.8173828125
-18.310546875
-12.8173828125
-9.1552734375
-7.32421875
-17.39501953125
-25.634765625
-26.55029296875
-17.39501953125
-15.56396484375
-13.73291015625
-7.32421875
-16.4794921875
-16.4794921875
-11.90185546875
-16.4794921875
-7.32421875
-4.57763671875
-13.73291015625
-5.4931640625
1.8310546875
-4.57763671875
0
9.1552734375
12.8173828125
-0.91552734375
7.32421875
21.97265625
17.39501953125
3.662109375
11.90185546875
21.05712890625
2.74658203125
5.4931640625
9.1552734375
16.4794921875
19.22607421875
28.38134765625
34.7900390625
12.8173828125
8.23974609375
16.4794921875
27.4658203125
32.958984375
28.38134765625
23.8037109375
34.7900390625
38.4521484375
24.71923828125
33.87451171875
37.53662109375
36.62109375
41.19873046875
43.02978515625
27.4658203125
34.7900390625
38.4521484375
37.53662109375
43.9453125
43.9453125
39.36767578125
43.02978515625
58.59375
61.34033203125
43.9453125
45.7763671875
54.931640625
56.7626953125
64.0869140625
66.83349609375
56.7626953125
62.255859375
62.255859375
62.255859375
66.83349609375
64.0869140625
71.4111328125
80.56640625
79.65087890625
75.98876953125
66.83349609375
71.4111328125
76.904296875
80.56640625
81.48193359375
88.80615234375
98.876953125
82.3974609375
82.3974609375
86.0595703125
86.0595703125
85.14404296875
85.14404296875
88.80615234375
85.14404296875
88.80615234375
85.14404296875
80.56640625
79.65087890625
82.3974609375
85.14404296875
83.31298828125
82.3974609375
90.63720703125
82.3974609375
75.0732421875
78.7353515625
83.31298828125
72.32666015625
65.00244140625
70.49560546875
76.904296875
65.91796875
55.84716796875
51.26953125
44.86083984375
48.52294921875
38.4521484375
35.70556640625
27.4658203125
15.56396484375
16.4794921875
8.23974609375
-0.91552734375
-9.1552734375
-14.6484375
-21.97265625
-22.88818359375
-26.55029296875
-26.55029296875
-38.4521484375
-42.1142578125
-43.9453125
-55.84716796875
-54.931640625
-53.1005859375
-47.607421875
-53.1005859375
-62.255859375
-63.17138671875
-64.0869140625
-60.4248046875
-66.83349609375
-74.15771484375
-78.7353515625
-71.4111328125
-71.4111328125
-73.2421875
-75.98876953125
-68.66455078125
-75.0732421875
-66.83349609375
-74.15771484375
-69.580078125
-71.4111328125
-69.580078125
-69.580078125
-69.580078125
-78.7353515625
-75.98876953125
-72.32666015625
-70.49560546875
-70.49560546875
-67.7490234375
-62.255859375
-66.83349609375
-74.15771484375
-63.17138671875
-59.50927734375
-74.15771484375
-75.0732421875
-69.580078125
-60.4248046875
-68.66455078125
-68.66455078125
-63.17138671875
-62.255859375
-63.17138671875
-62.255859375
-56.7626953125
-67.7490234375
-64.0869140625
-63.17138671875
-61.34033203125
-58.59375
-63.17138671875
-56.7626953125
-56.7626953125
-65.91796875
-65.00244140625
-65.00244140625
-65.00244140625
-63.17138671875
-59.50927734375
-62.255859375
-60.4248046875
-60.4248046875
-66.83349609375
-65.00244140625
-64.0869140625
-71.4111328125
-69.580078125
-68.66455078125
-58.59375
-63.17138671875
-65.91796875
-67.7490234375
-73.2421875
-72.32666015625
-60.4248046875
-73.2421875
-73.2421875
-77.81982421875
-82.3974609375
-84.228515625
-77.81982421875
-76.904296875
-77.81982421875
-78.7353515625
-67.7490234375
-75.0732421875
-84.228515625
-75.98876953125
-86.0595703125
-86.0595703125
-80.56640625
-79.65087890625
-82.3974609375
-84.228515625
-81.48193359375
-83.31298828125
-90.63720703125
-88.80615234375
-89.7216796875
-93.3837890625
-91.552734375
-91.552734375
-86.97509765625
-88.80615234375
-86.97509765625
-103.45458984375
-103.45458984375
-100.7080078125
-99.79248046875
-98.876953125
-97.0458984375
-94.29931640625
-91.552734375
-98.876953125
-100.7080078125
-100.7080078125
-97.96142578125
-101.62353515625
-103.45458984375
-98.876953125
-99.79248046875
-103.45458984375
-101.62353515625
-99.79248046875
-96.13037109375
-97.96142578125
-102.5390625
-102.5390625
-89.7216796875
-106.201171875
-106.201171875
-101.62353515625
-105.28564453125
-108.94775390625
-102.5390625
-97.96142578125
-100.7080078125
-104.3701171875
-99.79248046875
-101.62353515625
-92.46826171875
-92.46826171875
-95.21484375
-91.552734375
-97.96142578125
-105.28564453125
-103.45458984375
-98.876953125
-102.5390625
-98.876953125
-87.890625
-92.46826171875
-104.3701171875
-107.11669921875
-101.62353515625
-100.7080078125
-101.62353515625
-106.201171875
-106.201171875
-108.94775390625
-98.876953125
-104.3701171875
-105.28564453125
-106.201171875
-108.94775390625
-109.86328125
-107.11669921875
-106.201171875
-108.0322265625
-108.0322265625
-108.94775390625
-106.201171875
-105.28564453125
-109.86328125
-115.3564453125
-113.525390625
-114.44091796875
-104.3701171875
-97.96142578125
-111.6943359375
-113.525390625
-104.3701171875
-98.876953125
-93.3837890625
-112.60986328125
-113.525390625
-114.44091796875
-99.79248046875
-105.28564453125
-112.60986328125
-108.0322265625
-105.28564453125
-104.3701171875
-108.0322265625
-108.94775390625
-105.28564453125
-107.11669921875
-107.11669921875
-105.28564453125
-110.77880859375
-99.79248046875
-101.62353515625
-111.6943359375
-108.94775390625
-108.94775390625
-108.0322265625
-103.45458984375
-100.7080078125
-103.45458984375
-116.27197265625
-108.0322265625
-108.94775390625
-108.94775390625
-108.94775390625
-111.6943359375
-113.525390625
-103.45458984375
-108.94775390625
-108.94775390625
-109.86328125
-115.3564453125
-113.525390625
-108.94775390625
-108.94775390625
-109.86328125
-103.45458984375
-98.876953125
-106.201171875
-111.6943359375
-110.77880859375
-112.60986328125
-109.86328125
-107.11669921875
-109.86328125
-113.525390625
-110.77880859375
-102.5390625
-105.28564453125
-104.3701171875
-98.876953125
-97.96142578125
-98.876953125
-102.5390625
-102.5390625
-100.7080078125
-104.3701171875
-107.11669921875
-108.0322265625
-92.46826171875
-115.3564453125
-111.6943359375
-106.201171875
-108.94775390625
-103.45458984375
-103.45458984375
-111.6943359375
-108.0322265625
-103.45458984375
-105.28564453125
-107.11669921875
-109.86328125
-105.28564453125
-107.11669921875
-104.3701171875
-97.96142578125
-107.11669921875
-108.0322265625
-98.876953125
-105.28564453125
-106.201171875
-100.7080078125
-103.45458984375
-104.3701171875
-99.79248046875
-98.876953125
-103.45458984375
-106.201171875
-102.5390625
-104.3701171875
-104.3701171875
-106.201171875
-102.5390625
-100.7080078125
-101.62353515625
-107.11669921875
-103.45458984375
-102.5390625
-107.11669921875
-106.201171875
-98.876953125
-108.94775390625
-106.201171875
-109.86328125
-105.28564453125
-106.201171875
-104.3701171875
-101.62353515625
-110.77880859375
-109.86328125
-103.45458984375
-91.552734375
-104.3701171875
-104.3701171875
-106.201171875
-102.5390625
-99.79248046875
-95.21484375
-99.79248046875
-104.3701171875
-103.45458984375
-108.94775390625
-103.45458984375
-101.62353515625
-103.45458984375
-103.45458984375
-108.0322265625
-107.11669921875
-103.45458984375
-102.5390625
-104.3701171875
-105.28564453125
-98.876953125
-97.96142578125
-105.28564453125
-108.0322265625
-97.96142578125
-95.21484375
-104.3701171875
-101.62353515625
-100.7080078125
-105.28564453125
-108.0322265625
-104.3701171875
-98.876953125
-98.876953125
-100.7080078125
-105.28564453125
-98.876953125
-101.62353515625
-107.11669921875
-102.5390625
-98.876953125
-103.45458984375
-102.5390625
-97.0458984375
-96.13037109375
-113.525390625
-108.0322265625
-99.79248046875
-102.5390625
-107.11669921875
-99.79248046875
-108.0322265625
-101.62353515625
-101.62353515625
-92.46826171875
-83.31298828125
-88.80615234375
-98.876953125
-95.21484375
-103.45458984375
-95.21484375
-92.46826171875
-93.3837890625
-94.29931640625
-94.29931640625
-93.3837890625
-86.0595703125
-84.228515625
-70.49560546875
-69.580078125
-60.4248046875
-53.1005859375
-73.2421875
-66.83349609375
-68.66455078125
-71.4111328125
-54.931640625
-65.00244140625
-73.2421875
-76.904296875
-80.56640625
-79.65087890625
-75.98876953125
-73.2421875
-68.66455078125
-67.7490234375
-68.66455078125
-61.34033203125
-76.904296875
-84.228515625
-77.81982421875
-72.32666015625
-71.4111328125
-79.65087890625
-88.80615234375
-88.80615234375
-84.228515625
-88.80615234375
-91.552734375
-81.48193359375
-74.15771484375
-83.31298828125
-82.3974609375
-86.97509765625
-83.31298828125
-80.56640625
-86.0595703125
-81.48193359375
-80.56640625
-78.7353515625
-81.48193359375
-70.49560546875
-73.2421875
-88.80615234375
-92.46826171875
-84.228515625
-65.00244140625
-39.36767578125
-0.91552734375
28.38134765625
56.7626953125
98.876953125
149.23095703125
240.78369140625
359.80224609375
474.2431640625
619.81201171875
809.326171875
995.17822265625
1155.3955078125
1311.95068359375
1475.830078125
1580.2001953125
1608.58154296875
1608.58154296875
1608.58154296875
1473.08349609375
1228.6376953125
1004.33349609375
808.41064453125
596.00830078125
330.50537109375
138.24462890625
75.98876953125
43.02978515625
10.986328125
-18.310546875
-21.05712890625
0
23.8037109375
50.35400390625
71.4111328125
74.15771484375
62.255859375
48.52294921875
39.36767578125
36.62109375
33.87451171875
20.1416015625
16.4794921875
16.4794921875
14.6484375
9.1552734375
6.40869140625
7.32421875
9.1552734375
7.32421875
1.8310546875
2.74658203125
3.662109375
1.8310546875
0
7.32421875
4.57763671875
-1.8310546875
0
2.74658203125
5.4931640625
10.07080078125
3.662109375
5.4931640625
4.57763671875
4.57763671875
8.23974609375
20.1416015625
17.39501953125
13.73291015625
19.22607421875
19.22607421875
21.97265625
24.71923828125
27.4658203125
31.1279296875
29.296875
25.634765625
32.04345703125
34.7900390625
32.04345703125
27.4658203125
29.296875
30.21240234375
32.958984375
46.69189453125
49.4384765625
34.7900390625
33.87451171875
32.958984375
43.02978515625
38.4521484375
37.53662109375
40.283203125
41.19873046875
46.69189453125
52.18505859375
54.931640625
61.34033203125
68.66455078125
64.0869140625
51.26953125
56.7626953125
67.7490234375
72.32666015625
75.98876953125
77.81982421875
71.4111328125
65.91796875
74.15771484375
80.56640625
79.65087890625
83.31298828125
85.14404296875
83.31298828125
87.890625
91.552734375
90.63720703125
101.62353515625
97.0458984375
94.29931640625
107.11669921875
99.79248046875
98.876953125
104.3701171875
109.86328125
117.1875
117.1875
119.93408203125
118.10302734375
122.6806640625
123.59619140625
131.8359375
130.92041015625
127.25830078125
125.42724609375
133.6669921875
137.3291015625
131.8359375
130.0048828125
144.6533203125
137.3291015625
127.25830078125
138.24462890625
138.24462890625
134.58251953125
130.92041015625
132.75146484375
136.41357421875
135.498046875
130.92041015625
136.41357421875
135.498046875
138.24462890625
127.25830078125
122.6806640625
120.849609375
124.51171875
108.0322265625
98.876953125
97.96142578125
90.63720703125
89.7216796875
82.3974609375
72.32666015625
65.91796875
59.50927734375
52.18505859375
43.02978515625
43.9453125
26.55029296875
17.39501953125
16.4794921875
9.1552734375
5.4931640625
3.662109375
-2.74658203125
-0.91552734375
-15.56396484375
-21.97265625
-21.05712890625
-23.8037109375
-28.38134765625
-32.958984375
-40.283203125
-39.36767578125
-32.04345703125
-36.62109375
-43.9453125
-48.52294921875
-42.1142578125
-43.02978515625
-46.69189453125
-42.1142578125
-43.02978515625
-48.52294921875
-45.7763671875
-46.69189453125
-49.4384765625
-40.283203125
-43.9453125
-29.296875
-46.69189453125
-49.4384765625
-43.02978515625
-45.7763671875
-44.86083984375
-43.02978515625
-43.9453125
-39.36767578125
-39.36767578125
-40.283203125
-37.53662109375
-26.55029296875
-22.88818359375
-43.9453125
-45.7763671875
-41.19873046875
-33.87451171875
-38.4521484375
-37.53662109375
-24.71923828125
-22.88818359375
-37.53662109375
-35.70556640625
-33.87451171875
-31.1279296875
-27.4658203125
-31.1279296875
-32.04345703125
-35.70556640625
-29.296875
-29.296875
-24.71923828125
-33.87451171875
-37.53662109375
-30.21240234375
-32.958984375
-35.70556640625
-31.1279296875
-23.8037109375
-28.38134765625
-36.62109375
-28.38134765625
-30.21240234375
-33.87451171875
-36.62109375
-32.04345703125
-29.296875
-31.1279296875
-21.97265625
-32.958984375
-37.53662109375
-35.70556640625
-34.7900390625
-35.70556640625
-33.87451171875
-32.958984375
-36.62109375
-35.70556640625
-26.55029296875
-34.7900390625
-44.86083984375
-34.7900390625
-32.958984375
-33.87451171875
-37.53662109375
-37.53662109375
-38.4521484375
-31.1279296875
-32.04345703125
-40.283203125
-37.53662109375
-44.86083984375
-38.4521484375
-46.69189453125
-48.52294921875
-44.86083984375
-32.04345703125
-47.607421875
-53.1005859375
-43.02978515625
-41.19873046875
-49.4384765625
-46.69189453125
-48.52294921875
-47.607421875
-46.69189453125
-44.86083984375
-32.958984375
-39.36767578125
-47.607421875
-51.26953125
-46.69189453125
-34.7900390625
-52.18505859375
-56.7626953125
-47.607421875
-41.19873046875
-54.931640625
-50.35400390625
-47.607421875
-47.607421875
-47.607421875
-43.9453125
-46.69189453125
-52.18505859375
-54.931640625
-49.4384765625
-47.607421875
-45.7763671875
-47.607421875
-38.4521484375
-49.4384765625
-51.26953125
-50.35400390625
-46.69189453125
-48.52294921875
-40.283203125
-41.19873046875
-43.02978515625
-34.7900390625
-47.607421875
-50.35400390625
-43.9453125
-43.9453125
-44.86083984375
-45.7763671875
-43.9453125
-43.9453125
-43.02978515625
-44.86083984375
-43.9453125
-45.7763671875
-34.7900390625
-39.36767578125
-53.1005859375
-48.52294921875
-45.7763671875
-39.36767578125
-38.4521484375
-46.69189453125
-47.607421875
-44.86083984375
-43.02978515625
-43.02978515625
-34.7900390625
-43.02978515625
-47.607421875
-46.69189453125
-46.69189453125
-39.36767578125
-37.53662109375
-39.36767578125
-41.19873046875
-31.1279296875
-40.283203125
-51.26953125
-51.26953125
-49.4384765625
-45.7763671875
-32.958984375
-43.02978515625
-54.01611328125
-45.7763671875
-48.52294921875
-49.4384765625
-46.69189453125
-46.69189453125
-42.1142578125
-41.19873046875
-47.607421875
-42.1142578125
-47.607421875
-49.4384765625
-42.1142578125
-46.69189453125
-43.02978515625
-46.69189453125
-46.69189453125
-35.70556640625
-52.18505859375
-47.607421875
-35.70556640625
-34.7900390625
-37.53662109375
-32.958984375
-42.1142578125
-47.607421875
-38.4521484375
-39.36767578125
-40.283203125
-40.283203125
-43.9453125
-42.1142578125
-39.36767578125
-41.19873046875
-44.86083984375
-40.283203125
-40.283203125
-33.87451171875
-43.9453125
-42.1142578125
-48.52294921875
-48.52294921875
-41.19873046875
-36.62109375
-33.87451171875
-36.62109375
-36.62109375
-41.19873046875
-42.1142578125
-36.62109375
-35.70556640625
-31.1279296875
-32.04345703125
-32.04345703125
-34.7900390625
-32.958984375
-33.87451171875
-36.62109375
-31.1279296875
-40.283203125
-43.9453125
-40.283203125
-31.1279296875
-35.70556640625
-43.02978515625
-33.87451171875
-29.296875
-38.4521484375
-43.02978515625
-35.70556640625
-39.36767578125
-35.70556640625
-33.87451171875
-33.87451171875
-37.53662109375
-35.70556640625
-37.53662109375
-32.958984375
-28.38134765625
-29.296875
-22.88818359375
-12.8173828125
-8.23974609375
-13.73291015625
-18.310546875
-14.6484375
-7.32421875
-1.8310546875
2.74658203125
13.73291015625
11.90185546875
19.22607421875
32.958984375
43.9453125
61.34033203125
73.2421875
76.904296875
55.84716796875
45.7763671875
31.1279296875
32.04345703125
31.1279296875
23.8037109375
23.8037109375
21.97265625
18.310546875
16.4794921875
13.73291015625
13.73291015625
5.4931640625
10.07080078125
7.32421875
-1.8310546875
-13.73291015625
-10.07080078125
-12.8173828125
-15.56396484375
-13.73291015625
-18.310546875
-16.4794921875
-16.4794921875
-11.90185546875
-17.39501953125
-21.05712890625
-24.71923828125
-26.55029296875
-15.56396484375
-22.88818359375
-19.22607421875
-21.05712890625
-22.88818359375
-23.8037109375
-22.88818359375
-18.310546875
-15.56396484375
-8.23974609375
-11.90185546875
-10.07080078125
-16.4794921875
-21.05712890625
-5.4931640625
12.8173828125
22.88818359375
58.59375
106.201171875
134.58251953125
160.21728515625
204.16259765625
270.99609375
382.6904296875
504.45556640625
622.55859375
785.5224609375
968.6279296875
1127.01416015625
1268.9208984375
1447.44873046875
1560.97412109375
1618.65234375
1651.611328125
1677.24609375
1628.72314453125
1441.0400390625
1200.25634765625
990.6005859375
812.07275390625
596.923828125
379.94384765625
272.8271484375
208.740234375
151.9775390625
90.63720703125
32.958984375
2.74658203125
7.32421875
32.04345703125
53.1005859375
72.32666015625
91.552734375
100.7080078125
91.552734375
89.7216796875
82.3974609375
81.48193359375
66.83349609375
57.67822265625
57.67822265625
56.7626953125
50.35400390625
47.607421875
51.26953125
45.7763671875
51.26953125
54.01611328125
51.26953125
50.35400390625
55.84716796875
55.84716796875
50.35400390625
54.01611328125
50.35400390625
47.607421875
48.52294921875
54.931640625
58.59375
43.9453125
51.26953125
52.18505859375
53.1005859375
50.35400390625
50.35400390625
54.931640625
56.7626953125
59.50927734375
57.67822265625
60.4248046875
74.15771484375
72.32666015625
56.7626953125
65.00244140625
65.00244140625
67.7490234375
74.15771484375
77.81982421875
80.56640625
80.56640625
92.46826171875
76.904296875
80.56640625
83.31298828125
85.14404296875
86.97509765625
93.3837890625
92.46826171875
97.0458984375
93.3837890625
98.876953125
106.201171875
102.5390625
103.45458984375
110.77880859375
108.0322265625
107.11669921875
109.86328125
108.94775390625
115.3564453125
111.6943359375
108.0322265625
118.10302734375
117.1875
117.1875
120.849609375
122.6806640625
130.0048828125
132.75146484375
135.498046875
136.41357421875
134.58251953125
134.58251953125
137.3291015625
136.41357421875
140.9912109375
143.73779296875
146.484375
147.39990234375
148.3154296875
151.9775390625
152.89306640625
161.1328125
160.21728515625
160.21728515625
169.37255859375
162.9638671875
172.119140625
179.443359375
187.68310546875
168.45703125
165.71044921875
173.03466796875
173.03466796875
168.45703125
171.20361328125
171.20361328125
165.71044921875
167.54150390625
171.20361328125
171.20361328125
173.9501953125
167.54150390625
166.6259765625
166.6259765625
163.87939453125
163.87939453125
161.1328125
160.21728515625
165.71044921875
160.21728515625
141.90673828125
145.56884765625
142.822265625
140.07568359375
136.41357421875
131.8359375
120.849609375
113.525390625
102.5390625
99.79248046875
94.29931640625
89.7216796875
80.56640625
73.2421875
62.255859375
54.931640625
48.52294921875
43.02978515625
43.02978515625
38.4521484375
31.1279296875
32.04345703125
26.55029296875
23.8037109375
14.6484375
7.32421875
9.1552734375
14.6484375
11.90185546875
-0.91552734375
0
-7.32421875
-6.40869140625
-5.4931640625
-5.4931640625
-7.32421875
-7.32421875
-8.23974609375
-3.662109375
-6.40869140625
-13.73291015625
-12.8173828125
-5.4931640625
-9.1552734375
-19.22607421875
-16.4794921875
-12.8173828125
-10.07080078125
-13.73291015625
-8.23974609375
-10.986328125
-14.6484375
-10.986328125
-2.74658203125
3.662109375
-14.6484375
-11.90185546875
-4.57763671875
-4.57763671875
-3.662109375
-5.4931640625
-4.57763671875
-10.07080078125
-3.662109375
-6.40869140625
-3.662109375
-2.74658203125
-3.662109375
-2.74658203125
-7.32421875
-3.662109375
-0.91552734375
-2.74658203125
-0.91552734375
0
0
1.8310546875
1.8310546875
-3.662109375
0.91552734375
5.4931640625
0.91552734375
-0.91552734375
9.1552734375
4.57763671875
-10.07080078125
-7.32421875
-1.8310546875
-3.662109375
-4.57763671875
-3.662109375
-0.91552734375
-6.40869140625
-8.23974609375
-4.57763671875
-1.8310546875
-6.40869140625
-4.57763671875
-0.91552734375
-4.57763671875
-3.662109375
-7.32421875
-8.23974609375
-7.32421875
-7.32421875
-13.73291015625
-10.07080078125
-16.4794921875
-15.56396484375
-11.90185546875
-12.8173828125
-4.57763671875
-11.90185546875
-21.05712890625
-20.1416015625
-21.05712890625
-22.88818359375
-21.05712890625
-22.88818359375
-24.71923828125
-17.39501953125
-21.97265625
-23.8037109375
-25.634765625
-25.634765625
-22.88818359375
-16.4794921875
-22.88818359375
-22.88818359375
-23.8037109375
-21.97265625
-21.05712890625
-26.55029296875
-28.38134765625
-31.1279296875
-30.21240234375
-28.38134765625
-31.1279296875
-32.04345703125
-23.8037109375
-34.7900390625
-38.4521484375
-35.70556640625
-32.958984375
-21.97265625
-26.55029296875
-37.53662109375
-33.87451171875
-31.1279296875
-33.87451171875
-38.4521484375
-35.70556640625
-35.70556640625
-37.53662109375
-35.70556640625
-32.958984375
-33.87451171875
-32.958984375
-41.19873046875
-40.283203125
-33.87451171875
-28.38134765625
-41.19873046875
-42.1142578125
-40.283203125
-38.4521484375
-45.7763671875
-44.86083984375
-42.1142578125
-41.19873046875
-41.19873046875
-39.36767578125
-40.283203125
-44.86083984375
-43.02978515625
-41.19873046875
-39.36767578125
-43.02978515625
-42.1142578125
-48.52294921875
-43.9453125
-38.4521484375
-29.296875
-44.86083984375
-51.26953125
-45.7763671875
-43.9453125
-42.1142578125
-38.4521484375
-41.19873046875
-32.04345703125
-43.9453125
-50.35400390625
-46.69189453125
-46.69189453125
-46.69189453125
-43.9453125
-45.7763671875
-46.69189453125
-44.86083984375
-47.607421875
-46.69189453125
-40.283203125
-44.86083984375
-44.86083984375
-42.1142578125
-43.9453125
-46.69189453125
-38.4521484375
-26.55029296875
-39.36767578125
-48.52294921875
-48.52294921875
-45.7763671875
-40.283203125
-49.4384765625
-46.69189453125
-38.4521484375
-41.19873046875
-42.1142578125
-38.4521484375
-38.4521484375
-46.69189453125
-50.35400390625
-47.607421875
-45.7763671875
-51.26953125
-48.52294921875
-43.9453125
-47.607421875
-45.7763671875
-46.69189453125
-43.9453125
-36.62109375
-44.86083984375
-47.607421875
-45.7763671875
-46.69189453125
-43.9453125
-44.86083984375
-47.607421875
-43.02978515625
-41.19873046875
-45.7763671875
-43.9453125
-42.1142578125
-40.283203125
-35.70556640625
-33.87451171875
-30.21240234375
-34.7900390625
-34.7900390625
-26.55029296875
-15.56396484375
-4.57763671875
2.74658203125
21.97265625
23.8037109375
38.4521484375
56.7626953125
65.00244140625
83.31298828125
97.96142578125
107.11669921875
99.79248046875
82.3974609375
66.83349609375
65.91796875
70.49560546875
67.7490234375
68.66455078125
64.0869140625
63.17138671875
62.255859375
54.931640625
54.01611328125
44.86083984375
37.53662109375
32.04345703125
19.22607421875
4.57763671875
-10.986328125
-13.73291015625
-20.1416015625
-25.634765625
-32.958984375
-41.19873046875
-37.53662109375
-37.53662109375
-34.7900390625
-32.04345703125
-40.283203125
-42.1142578125
-41.19873046875
-44.86083984375
-44.86083984375
-36.62109375
-42.1142578125
-52.18505859375
-49.4384765625
-47.607421875
-46.69189453125
-47.607421875
-50.35400390625
-54.01611328125
-51.26953125
-60.4248046875
-68.66455078125
-53.1005859375
-37.53662109375
-16.4794921875
18.310546875
57.67822265625
84.228515625
130.92041015625
177.6123046875
257.26318359375
379.0283203125
514.5263671875
675.6591796875
865.17333984375
1053.77197265625
1215.8203125
1367.7978515625
1531.67724609375
1637.87841796875
1660.7666015625
1675.4150390625
1673.583984375
1560.05859375
1304.62646484375
1066.58935546875
859.68017578125
643.61572265625
377.197265625
178.52783203125
102.5390625
68.66455078125
27.4658203125
-10.07080078125
-26.55029296875
-10.07080078125
14.6484375
43.9453125
67.7490234375
65.91796875
67.7490234375
50.35400390625
43.02978515625
33.87451171875
24.71923828125
21.05712890625
18.310546875
15.56396484375
13.73291015625
10.986328125
5.4931640625
7.32421875
9.1552734375
-6.40869140625
-3.662109375
-1.8310546875
-4.57763671875
-0.91552734375
-4.57763671875
-3.662109375
-1.8310546875
0
0.91552734375
-0.91552734375
1.8310546875
1.8310546875
5.4931640625
14.6484375
10.07080078125
-0.91552734375
5.4931640625
4.57763671875
3.662109375
10.07080078125
15.56396484375
15.56396484375
13.73291015625
12.8173828125
13.73291015625
15.56396484375
23.8037109375
21.97265625
21.05712890625
21.05712890625
21.05712890625
29.296875
34.7900390625
28.38134765625
31.1279296875
32.958984375
37.53662109375
40.283203125
36.62109375
38.4521484375
40.283203125
45.7763671875
49.4384765625
51.26953125
49.4384765625
53.1005859375
52.18505859375
57.67822265625
65.91796875
68.66455078125
68.66455078125
68.66455078125
69.580078125
82.3974609375
70.49560546875
65.91796875
75.0732421875
75.98876953125
78.7353515625
80.56640625
85.14404296875
90.63720703125
88.80615234375
91.552734375
96.13037109375
98.876953125
97.0458984375
97.0458984375
103.45458984375
105.28564453125
108.0322265625
109.86328125
114.44091796875
122.6806640625
124.51171875
129.08935546875
129.08935546875
128.173828125
131.8359375
136.41357421875
143.73779296875
143.73779296875
142.822265625
149.23095703125
156.55517578125
145.56884765625
145.56884765625
147.39990234375
153.80859375
158.38623046875
160.21728515625
159.3017578125
158.38623046875
157.470703125
159.3017578125
158.38623046875
157.470703125
157.470703125
159.3017578125
154.72412109375
152.89306640625
150.146484375
146.484375
147.39990234375
140.07568359375
133.6669921875
120.849609375
116.27197265625
113.525390625
103.45458984375
97.0458984375
86.0595703125
81.48193359375
68.66455078125
61.34033203125
53.1005859375
33.87451171875
28.38134765625
19.22607421875
17.39501953125
6.40869140625
0.91552734375
-3.662109375
-14.6484375
-19.22607421875
-27.4658203125
-30.21240234375
-35.70556640625
-39.36767578125
-41.19873046875
-43.9453125
-47.607421875
-53.1005859375
-57.67822265625
-59.50927734375
-53.1005859375
-52.18505859375
-65.91796875
-68.66455078125
-67.7490234375
-69.580078125
-70.49560546875
-66.83349609375
-73.2421875
-75.0732421875
-75.0732421875
-71.4111328125
-73.2421875
-74.15771484375
-75.0732421875
-76.904296875
-74.15771484375
-74.15771484375
-73.2421875
-76.904296875
-75.0732421875
-78.7353515625
-76.904296875
-75.0732421875
-71.4111328125
-67.7490234375
-61.34033203125
-75.98876953125
-75.98876953125
-71.4111328125
-70.49560546875
-69.580078125
-71.4111328125
-70.49560546875
-68.66455078125
-69.580078125
-72.32666015625
-65.91796875
-65.00244140625
-70.49560546875
-65.91796875
-63.17138671875
-62.255859375
-64.0869140625
-64.0869140625
-62.255859375
-64.0869140625
-61.34033203125
-62.255859375
-61.34033203125
-59.50927734375
-58.59375
-61.34033203125
-62.255859375
-57.67822265625
-51.26953125
-65.91796875
-65.91796875
-65.00244140625
-65.00244140625
-60.4248046875
-58.59375
-54.931640625
-62.255859375
-62.255859375
-57.67822265625
-61.34033203125
-57.67822265625
-56.7626953125
-64.0869140625
-59.50927734375
-59.50927734375
-63.17138671875
-59.50927734375
-61.34033203125
-63.17138671875
-65.00244140625
-63.17138671875
-63.17138671875
-65.00244140625
-66.83349609375
-68.66455078125
-69.580078125
-68.66455078125
-69.580078125
-73.2421875
-72.32666015625
-64.0869140625
-75.98876953125
-76.904296875
-78.7353515625
-78.7353515625
-77.81982421875
-80.56640625
-81.48193359375
-82.3974609375
-81.48193359375
-84.228515625
-81.48193359375
-84.228515625
-85.14404296875
-84.228515625
-83.31298828125
-86.97509765625
-90.63720703125
-87.890625
-88.80615234375
-86.0595703125
-90.63720703125
-86.97509765625
-87.890625
-88.80615234375
-88.80615234375
-86.0595703125
-80.56640625
-91.552734375
-90.63720703125
-87.890625
-91.552734375
-92.46826171875
-88.80615234375
-89.7216796875
-89.7216796875
-89.7216796875
-90.63720703125
-89.7216796875
-89.7216796875
-86.0595703125
-90.63720703125
-91.552734375
-97.0458984375
-100.7080078125
-93.3837890625
-92.46826171875
-92.46826171875
-90.63720703125
-93.3837890625
-97.0458984375
-86.0595703125
-95.21484375
-97.0458984375
-94.29931640625
-91.552734375
-90.63720703125
-90.63720703125
-89.7216796875
-92.46826171875
-93.3837890625
-92.46826171875
-91.552734375
-95.21484375
-90.63720703125
-88.80615234375
-91.552734375
-93.3837890625
-97.0458984375
-95.21484375
-93.3837890625
-92.46826171875
-90.63720703125
-95.21484375
-97.0458984375
-99.79248046875
-102.5390625
-96.13037109375
-100.7080078125
-97.96142578125
-97.96142578125
-101.62353515625
-102.5390625
-91.552734375
-92.46826171875
-105.28564453125
-106.201171875
-102.5390625
-102.5390625
-104.3701171875
-98.876953125
-97.96142578125
-108.0322265625
-104.3701171875
-96.13037109375
-99.79248046875
-97.96142578125
-98.876953125
-96.13037109375
-98.876953125
-97.0458984375
-97.96142578125
-99.79248046875
-100.7080078125
-102.5390625
-101.62353515625
-101.62353515625
-97.96142578125
-98.876953125
-98.876953125
-99.79248046875
-100.7080078125
-100.7080078125
-104.3701171875
-98.876953125
-99.79248046875
-94.29931640625
-91.552734375
-102.5390625
-102.5390625
-102.5390625
-100.7080078125
-98.876953125
-101.62353515625
-101.62353515625
-96.13037109375
-99.79248046875
-99.79248046875
-97.0458984375
-93.3837890625
-90.63720703125
-86.97509765625
-89.7216796875
-85.14404296875
-82.3974609375
-72.32666015625
-65.00244140625
-55.84716796875
-43.02978515625
-28.38134765625
-12.8173828125
3.662109375
1.8310546875
14.6484375
36.62109375
44.86083984375
45.7763671875
30.21240234375
21.05712890625
11.90185546875
18.310546875
19.22607421875
27.4658203125
28.38134765625
20.1416015625
19.22607421875
16.4794921875
8.23974609375
-1.8310546875
-12.8173828125
-17.39501953125
-21.05712890625
-38.4521484375
-55.84716796875
-65.91796875
-65.91796875
-68.66455078125
-75.98876953125
-80.56640625
-84.228515625
-84.228515625
-86.97509765625
-86.97509765625
-88.80615234375
-93.3837890625
-97.96142578125
-93.3837890625
-94.29931640625
-94.29931640625
-82.3974609375
-95.21484375
-103.45458984375
-101.62353515625
-98.876953125
-96.13037109375
-97.0458984375
-97.96142578125
-103.45458984375
-104.3701171875
-108.0322265625
-114.44091796875
-108.94775390625
-91.552734375
-69.580078125
-29.296875
8.23974609375
36.62109375
80.56640625
131.8359375
227.96630859375
346.0693359375
476.98974609375
637.20703125
834.04541015625
1025.390625
1189.27001953125
1348.57177734375
1507.87353515625
1602.1728515625
1613.1591796875
1608.58154296875
1587.5244140625
1411.7431640625
1153.564453125
932.92236328125
726.01318359375
497.13134765625
240.78369140625
57.67822265625
1.8310546875
-21.97265625
-54.01611328125
-69.580078125
-71.4111328125
-47.607421875
-31.1279296875
-6.40869140625
12.8173828125
9.1552734375
0.91552734375
-8.23974609375
-20.1416015625
-21.97265625
-27.4658203125
-34.7900390625
-42.1142578125
-45.7763671875
-54.931640625
-59.50927734375
-55.84716796875
-56.7626953125
-60.4248046875
-57.67822265625
-57.67822265625
-62.255859375
-60.4248046875
-61.34033203125
-57.67822265625
-51.26953125
-54.01611328125
-65.91796875
-61.34033203125
-62.255859375
-59.50927734375
-57.67822265625
-54.931640625
-57.67822265625
-51.26953125
-49.4384765625
-46.69189453125
-46.69189453125
-44.86083984375
-45.7763671875
-41.19873046875
-40.283203125
-39.36767578125
-35.70556640625
-34.7900390625
-33.87451171875
-37.53662109375
-31.1279296875
-32.04345703125
-27.4658203125
-29.296875
-34.7900390625
-28.38134765625
-22.88818359375
-23.8037109375
-23.8037109375
-20.1416015625
-18.310546875
-11.90185546875
-5.4931640625
-20.1416015625
-13.73291015625
-10.986328125
-8.23974609375
-8.23974609375
-5.4931640625
-4.57763671875
1.8310546875
1.8310546875
6.40869140625
11.90185546875
13.73291015625
13.73291015625
15.56396484375
14.6484375
11.90185546875
14.6484375
20.1416015625
24.71923828125
27.4658203125
26.55029296875
28.38134765625
35.70556640625
40.283203125
40.283203125
43.02978515625
50.35400390625
50.35400390625
50.35400390625
51.26953125
54.01611328125
58.59375
63.17138671875
68.66455078125
71.4111328125
66.83349609375
72.32666015625
86.97509765625
89.7216796875
74.15771484375
79.65087890625
87.890625
86.97509765625
89.7216796875
96.13037109375
97.0458984375
99.79248046875
101.62353515625
103.45458984375
98.876953125
100.7080078125
106.201171875
105.28564453125
101.62353515625
105.28564453125
108.0322265625
108.94775390625
104.3701171875
103.45458984375
104.3701171875
98.876953125
95.21484375
98.876953125
97.0458984375
86.97509765625
83.31298828125
78.7353515625
72.32666015625
66.83349609375
57.67822265625
48.52294921875
37.53662109375
23.8037109375
20.1416015625
10.986328125
-0.91552734375
-10.986328125
-16.4794921875
-24.71923828125
-31.1279296875
-32.04345703125
-50.35400390625
-54.931640625
-60.4248046875
-68.66455078125
-76.904296875
-79.65087890625
-78.7353515625
-80.56640625
-85.14404296875
-88.80615234375
-95.21484375
-97.96142578125
-97.96142578125
-102.5390625
-104.3701171875
-103.45458984375
-108.0322265625
-110.77880859375
-111.6943359375
-112.60986328125
-110.77880859375
-107.11669921875
-116.27197265625
-116.27197265625
-115.3564453125
-112.60986328125
-104.3701171875
-114.44091796875
-119.0185546875
-116.27197265625
-118.10302734375
-113.525390625
-114.44091796875
-116.27197265625
-113.525390625
-112.60986328125
-112.60986328125
-111.6943359375
-111.6943359375
-111.6943359375
-106.201171875
-103.45458984375
-107.11669921875
-105.28564453125
-107.11669921875
-105.28564453125
-104.3701171875
-102.5390625
-97.0458984375
-103.45458984375
-101.62353515625
-97.96142578125
-98.876953125
-101.62353515625
-100.7080078125
-97.0458984375
-96.13037109375
-97.0458984375
-97.96142578125
-95.21484375
-95.21484375
-95.21484375
-97.0458984375
-93.3837890625
-88.80615234375
-94.29931640625
-98.876953125
-92.46826171875
-92.46826171875
-94.29931640625
-93.3837890625
-91.552734375
-89.7216796875
-87.890625
-86.97509765625
-83.31298828125
-79.65087890625
-77.81982421875
-91.552734375
-93.3837890625
-88.80615234375
-85.14404296875
-81.48193359375
-86.0595703125
-87.890625
-85.14404296875
-86.0595703125
-92.46826171875
-92.46826171875
-94.29931640625
-96.13037109375
-95.21484375
-93.3837890625
-94.29931640625
-95.21484375
-102.5390625
-99.79248046875
-108.94775390625
-99.79248046875
-98.876953125
-97.96142578125
-97.96142578125
-100.7080078125
-110.77880859375
-109.86328125
-99.79248046875
-100.7080078125
-111.6943359375
-107.11669921875
-108.0322265625
-106.201171875
-107.11669921875
-105.28564453125
-107.11669921875
-109.86328125
-108.94775390625
-108.0322265625
-108.94775390625
-109.86328125
-107.11669921875
-110.77880859375
-108.0322265625
-107.11669921875
-110.77880859375
-108.0322265625
-111.6943359375
-113.525390625
-109.86328125
-112.60986328125
-116.27197265625
-113.525390625
-112.60986328125
-108.0322265625
-112.60986328125
-110.77880859375
-112.60986328125
-112.60986328125
-111.6943359375
-110.77880859375
-114.44091796875
-109.86328125
-110.77880859375
-118.10302734375
-112.60986328125
-111.6943359375
-112.60986328125
-108.94775390625
-108.94775390625
-112.60986328125
-110.77880859375
-109.86328125
-109.86328125
-108.0322265625
-108.0322265625
-108.94775390625
-117.1875
-110.77880859375
-108.94775390625
-106.201171875
-103.45458984375
-108.0322265625
-116.27197265625
-116.27197265625
-118.10302734375
-119.0185546875
-112.60986328125
-114.44091796875
-112.60986328125
-111.6943359375
-114.44091796875
-113.525390625
-114.44091796875
-108.94775390625
-116.27197265625
-115.3564453125
-108.94775390625
-110.77880859375
-108.0322265625
-113.525390625
-108.0322265625
-107.11669921875
-108.94775390625
-111.6943359375
-109.86328125
-113.525390625
-114.44091796875
-114.44091796875
-108.94775390625
-108.0322265625
-104.3701171875
-102.5390625
-118.10302734375
-116.27197265625
-114.44091796875
-112.60986328125
-108.94775390625
-108.0322265625
-115.3564453125
-114.44091796875
-110.77880859375
-109.86328125
-109.86328125
-114.44091796875
-111.6943359375
-110.77880859375
-109.86328125
-106.201171875
-107.11669921875
-112.60986328125
-110.77880859375
-108.94775390625
-108.0322265625
-105.28564453125
-104.3701171875
-108.0322265625
-111.6943359375
-107.11669921875
-103.45458984375
-103.45458984375
-105.28564453125
-103.45458984375
-94.29931640625
-89.7216796875
-83.31298828125
-88.80615234375
-86.0595703125
-84.228515625
-80.56640625
-71.4111328125
-58.59375
-60.4248046875
-54.931640625
-32.958984375
-24.71923828125
-7.32421875
3.662109375
17.39501953125
32.958984375
37.53662109375
37.53662109375
23.8037109375
16.4794921875
14.6484375
17.39501953125
17.39501953125
26.55029296875
30.21240234375
26.55029296875
26.55029296875
22.88818359375
10.986328125
7.32421875
-0.91552734375
-4.57763671875
-16.4794921875
-31.1279296875
-45.7763671875
-53.1005859375
-65.91796875
-71.4111328125
-63.17138671875
-65.00244140625
-79.65087890625
-78.7353515625
-75.0732421875
-78.7353515625
-86.97509765625
-89.7216796875
-88.80615234375
-88.80615234375
-90.63720703125
-94.29931640625
-91.552734375
-89.7216796875
-90.63720703125
-90.63720703125
-90.63720703125
-91.552734375
-94.29931640625
-93.3837890625
-92.46826171875
-88.80615234375
-100.7080078125
-104.3701171875
-90.63720703125
-74.15771484375
-54.01611328125
-23.8037109375
15.56396484375
44.86083984375
86.0595703125
134.58251953125
216.064453125
335.99853515625
455.9326171875
586.85302734375
771.78955078125
965.88134765625
1135.25390625
1277.16064453125
1450.1953125
1562.80517578125
1595.76416015625
1614.990234375
1621.39892578125
1511.53564453125
1269.83642578125
1042.78564453125
842.28515625
631.7138671875
381.77490234375
182.18994140625
102.5390625
55.84716796875
12.8173828125
-39.36767578125
-69.580078125
-67.7490234375
-46.69189453125
-23.8037109375
0.91552734375
22.88818359375
31.1279296875
13.73291015625
4.57763671875
-6.40869140625
-13.73291015625
-11.90185546875
-19.22607421875
-20.1416015625
-21.97265625
-29.296875
-31.1279296875
-31.1279296875
-32.958984375
-32.958984375
-32.958984375
-33.87451171875
-32.958984375
-36.62109375
-40.283203125
-42.1142578125
-36.62109375
-32.04345703125
-29.296875
-30.21240234375
-38.4521484375
-38.4521484375
-34.7900390625
-32.04345703125
-32.958984375
-29.296875
-26.55029296875
-25.634765625
-24.71923828125
-22.88818359375
-20.1416015625
-16.4794921875
-12.8173828125
-17.39501953125
-11.90185546875
-10.986328125
-9.1552734375
5.4931640625
-1.8310546875
-7.32421875
-0.91552734375
0.91552734375
0.91552734375
-3.662109375
6.40869140625
8.23974609375
10.986328125
15.56396484375
12.8173828125
17.39501953125
20.1416015625
18.310546875
21.97265625
22.88818359375
30.21240234375
28.38134765625
28.38134765625
31.1279296875
33.87451171875
38.4521484375
38.4521484375
40.283203125
43.02978515625
43.9453125
48.52294921875
48.52294921875
60.4248046875
68.66455078125
58.59375
61.34033203125
65.00244140625
62.255859375
65.91796875
71.4111328125
79.65087890625
78.7353515625
76.904296875
82.3974609375
85.14404296875
90.63720703125
90.63720703125
92.46826171875
100.7080078125
105.28564453125
106.201171875
109.86328125
108.94775390625
117.1875
119.93408203125
120.849609375
126.3427734375
130.0048828125
132.75146484375
132.75146484375
136.41357421875
138.24462890625
136.41357421875
138.24462890625
145.56884765625
138.24462890625
139.16015625
139.16015625
136.41357421875
138.24462890625
137.3291015625
140.9912109375
143.73779296875
141.90673828125
140.9912109375
138.24462890625
135.498046875
134.58251953125
136.41357421875
127.25830078125
124.51171875
125.42724609375
117.1875
106.201171875
105.28564453125
101.62353515625
88.80615234375
82.3974609375
73.2421875
67.7490234375
55.84716796875
44.86083984375
32.04345703125
25.634765625
20.1416015625
14.6484375
3.662109375
-2.74658203125
-9.1552734375
-21.05712890625
-29.296875
-32.04345703125
-32.958984375
-43.9453125
-46.69189453125
-44.86083984375
-48.52294921875
-51.26953125
-53.1005859375
-43.02978515625
-58.59375
-60.4248046875
-57.67822265625
-63.17138671875
-57.67822265625
-60.4248046875
-66.83349609375
-65.91796875
-62.255859375
-60.4248046875
-60.4248046875
-63.17138671875
-63.17138671875
-66.83349609375
-66.83349609375
-65.91796875
-62.255859375
-60.4248046875
-63.17138671875
-64.0869140625
-61.34033203125
-58.59375
-58.59375
-59.50927734375
-62.255859375
-60.4248046875
-59.50927734375
-54.01611328125
-56.7626953125
-64.0869140625
-55.84716796875
-48.52294921875
-47.607421875
-59.50927734375
-57.67822265625
-56.7626953125
-55.84716796875
-48.52294921875
-49.4384765625
-52.18505859375
-52.18505859375
-53.1005859375
-48.52294921875
-49.4384765625
-48.52294921875
-49.4384765625
-44.86083984375
-49.4384765625
-43.9453125
-49.4384765625
-51.26953125
-49.4384765625
-44.86083984375
-46.69189453125
-50.35400390625
-51.26953125
-49.4384765625
-52.18505859375
-43.02978515625
-45.7763671875
-49.4384765625
-45.7763671875
-41.19873046875
-52.18505859375
-52.18505859375
-51.26953125
-39.36767578125
-40.283203125
-55.84716796875
-60.4248046875
-58.59375
-58.59375
-59.50927734375
-60.4248046875
-55.84716796875
-54.01611328125
-55.84716796875
-54.931640625
-51.26953125
-54.931640625
-58.59375
-61.34033203125
-66.83349609375
-62.255859375
-58.59375
-61.34033203125
-62.255859375
-63.17138671875
-64.0869140625
-64.0869140625
-65.00244140625
-68.66455078125
-66.83349609375
-64.0869140625
-62.255859375
-67.7490234375
-66.83349609375
-65.00244140625
-65.91796875
-57.67822265625
-65.91796875
-70.49560546875
-66.83349609375
-73.2421875
-68.66455078125
-70.49560546875
-75.0732421875
-75.98876953125
-75.0732421875
-74.15771484375
-74.15771484375
-68.66455078125
-71.4111328125
-73.2421875
-74.15771484375
-75.98876953125
-73.2421875
-76.904296875
-75.0732421875
-76.904296875
-65.91796875
-70.49560546875
-82.3974609375
-79.65087890625
-81.48193359375
-77.81982421875
-76.904296875
-75.0732421875
-76.904296875
-82.3974609375
-78.7353515625
-75.98876953125
-79.65087890625
-79.65087890625
-77.81982421875
-77.81982421875
-75.98876953125
-79.65087890625
-77.81982421875
-76.904296875
-75.98876953125
-80.56640625
-81.48193359375
-78.7353515625
-75.98876953125
-80.56640625
-80.56640625
-80.56640625
-82.3974609375
-83.31298828125
-81.48193359375
-79.65087890625
-83.31298828125
-83.31298828125
-83.31298828125
-80.56640625
-84.228515625
-83.31298828125
-86.97509765625
-77.81982421875
-84.228515625
-90.63720703125
-85.14404296875
-83.31298828125
-84.228515625
-87.890625
-82.3974609375
-78.7353515625
-79.65087890625
-79.65087890625
-81.48193359375
-78.7353515625
-75.98876953125
-79.65087890625
-82.3974609375
-79.65087890625
-77.81982421875
-78.7353515625
-84.228515625
-85.14404296875
-83.31298828125
-81.48193359375
-85.14404296875
-86.97509765625
-82.3974609375
-75.98876953125
-79.65087890625
-85.14404296875
-86.0595703125
-87.890625
-85.14404296875
-81.48193359375
-83.31298828125
-83.31298828125
-83.31298828125
-87.890625
-84.228515625
-86.0595703125
-86.97509765625
-77.81982421875
-85.14404296875
-90.63720703125
-90.63720703125
-85.14404296875
-82.3974609375
-71.4111328125
-72.32666015625
-69.580078125
-66.83349609375
-64.0869140625
-60.4248046875
-64.0869140625
-53.1005859375
-42.1142578125
-33.87451171875
-19.22607421875
-11.90185546875
5.4931640625
19.22607421875
26.55029296875
43.02978515625
58.59375
65.00244140625
54.01611328125
45.7763671875
32.958984375
36.62109375
34.7900390625
34.7900390625
51.26953125
49.4384765625
43.02978515625
42.1142578125
38.4521484375
28.38134765625
21.05712890625
10.07080078125
0
-12.8173828125
-24.71923828125
-32.958984375
-41.19873046875
-46.69189453125
-53.1005859375
-54.931640625
-54.931640625
-56.7626953125
-60.4248046875
-61.34033203125
-64.0869140625
-68.66455078125
-66.83349609375
-73.2421875
-75.0732421875
-74.15771484375
-71.4111328125
-75.0732421875
-75.98876953125
-80.56640625
-79.65087890625
-79.65087890625
-79.65087890625
-82.3974609375
-81.48193359375
-72.32666015625
-82.3974609375
-97.96142578125
-96.13037109375
-76.904296875
-60.4248046875
-37.53662109375
-0.91552734375
31.1279296875
62.255859375
105.28564453125
167.54150390625
267.333984375
387.26806640625
516.357421875
679.3212890625
877.0751953125
1066.58935546875
1209.41162109375
1374.20654296875
1526.18408203125
1609.4970703125
1625.9765625
1642.4560546875
1624.1455078125
1472.16796875
1222.22900390625
997.9248046875
801.08642578125
571.2890625
303.955078125
141.90673828125
79.65087890625
43.02978515625
-6.40869140625
-46.69189453125
-66.83349609375
-54.01611328125
-28.38134765625
-2.74658203125
15.56396484375
15.56396484375
15.56396484375
13.73291015625
3.662109375
-2.74658203125
-9.1552734375
-15.56396484375
-21.97265625
-27.4658203125
-27.4658203125
-29.296875
-30.21240234375
-36.62109375
-40.283203125
-34.7900390625
-34.7900390625
-37.53662109375
-35.70556640625
-35.70556640625
-39.36767578125
-35.70556640625
-32.958984375
-34.7900390625
-38.4521484375
-36.62109375
-39.36767578125
-36.62109375
-37.53662109375
-31.1279296875
-26.55029296875
-33.87451171875
-32.04345703125
-32.04345703125
-33.87451171875
-32.958984375
-28.38134765625
-27.4658203125
-23.8037109375
-21.97265625
-20.1416015625
-18.310546875
-15.56396484375
-14.6484375
-14.6484375
-13.73291015625
-8.23974609375
-9.1552734375
-6.40869140625
-6.40869140625
-0.91552734375
6.40869140625
4.57763671875
6.40869140625
4.57763671875
8.23974609375
9.1552734375
14.6484375
16.4794921875
19.22607421875
19.22607421875
21.05712890625
21.97265625
25.634765625
31.1279296875
32.04345703125
26.55029296875
30.21240234375
27.4658203125
26.55029296875
37.53662109375
40.283203125
38.4521484375
38.4521484375
47.607421875
48.52294921875
46.69189453125
51.26953125
56.7626953125
58.59375
62.255859375
65.00244140625
68.66455078125
72.32666015625
78.7353515625
80.56640625
82.3974609375
87.890625
87.890625
92.46826171875
94.29931640625
99.79248046875
101.62353515625
105.28564453125
104.3701171875
107.11669921875
111.6943359375
117.1875
119.0185546875
119.0185546875
124.51171875
131.8359375
119.93408203125
122.6806640625
125.42724609375
128.173828125
130.92041015625
129.08935546875
129.08935546875
127.25830078125
127.25830078125
126.3427734375
123.59619140625
128.173828125
121.76513671875
118.10302734375
119.93408203125
119.0185546875
113.525390625
110.77880859375
107.11669921875
100.7080078125
93.3837890625
84.228515625
76.904296875
73.2421875
68.66455078125
54.931640625
41.19873046875
33.87451171875
26.55029296875
19.22607421875
9.1552734375
0.91552734375
-7.32421875
-9.1552734375
-11.90185546875
-20.1416015625
-29.296875
-27.4658203125
-41.19873046875
-51.26953125
-54.931640625
-56.7626953125
-58.59375
-66.83349609375
-67.7490234375
-72.32666015625
-73.2421875
-75.0732421875
-75.0732421875
-78.7353515625
-78.7353515625
-78.7353515625
-80.56640625
-81.48193359375
-80.56640625
-82.3974609375
-83.31298828125
-84.228515625
-82.3974609375
-81.48193359375
-82.3974609375
-83.31298828125
-85.14404296875
-84.228515625
-81.48193359375
-86.97509765625
-86.97509765625
-87.890625
-87.890625
-90.63720703125
-86.97509765625
-86.0595703125
-81.48193359375
-74.15771484375
-82.3974609375
-89.7216796875
-82.3974609375
-79.65087890625
-78.7353515625
-78.7353515625
-78.7353515625
-75.98876953125
-78.7353515625
-79.65087890625
-75.0732421875
-69.580078125
-79.65087890625
-77.81982421875
-72.32666015625
-74.15771484375
-74.15771484375
-70.49560546875
-74.15771484375
-71.4111328125
-73.2421875
-69.580078125
-70.49560546875
-73.2421875
-75.0732421875
-74.15771484375
-73.2421875
-71.4111328125
-74.15771484375
-74.15771484375
-75.0732421875
-73.2421875
-64.0869140625
-69.580078125
-82.3974609375
-80.56640625
-79.65087890625
-79.65087890625
-77.81982421875
-80.56640625
-81.48193359375
-82.3974609375
-84.228515625
-80.56640625
-84.228515625
-80.56640625
-83.31298828125
-84.228515625
-81.48193359375
-83.31298828125
-82.3974609375
-86.0595703125
-83.31298828125
-82.3974609375
-82.3974609375
-83.31298828125
-84.228515625
-84.228515625
-84.228515625
-84.228515625
-84.228515625
-84.228515625
-86.0595703125
-75.98876953125
-86.97509765625
-89.7216796875
-89.7216796875
-88.80615234375
-86.97509765625
-88.80615234375
-88.80615234375
-94.29931640625
-93.3837890625
-94.29931640625
-97.0458984375
-95.21484375
-95.21484375
-100.7080078125
-102.5390625
-98.876953125
-98.876953125
-101.62353515625
-103.45458984375
-102.5390625
-102.5390625
-106.201171875
-105.28564453125
-101.62353515625
-102.5390625
-104.3701171875
-103.45458984375
-103.45458984375
-105.28564453125
-108.94775390625
-108.0322265625
-108.0322265625
-95.21484375
-108.0322265625
-108.0322265625
-103.45458984375
-105.28564453125
-104.3701171875
-107.11669921875
-103.45458984375
-106.201171875
-108.94775390625
-104.3701171875
-108.0322265625
-109.86328125
-108.0322265625
-105.28564453125
-108.0322265625
-109.86328125
-106.201171875
-106.201171875
-107.11669921875
-109.86328125
-111.6943359375
-108.94775390625
-111.6943359375
-112.60986328125
-116.27197265625
-117.1875
-118.10302734375
-114.44091796875
-115.3564453125
-114.44091796875
-117.1875
-118.10302734375
-116.27197265625
-112.60986328125
-113.525390625
-119.0185546875
-119.0185546875
-113.525390625
-111.6943359375
-109.86328125
-108.94775390625
-108.94775390625
-103.45458984375
-109.86328125
-113.525390625
-110.77880859375
-112.60986328125
-108.94775390625
-108.94775390625
-113.525390625
-113.525390625
-108.94775390625
-111.6943359375
-114.44091796875
-113.525390625
-117.1875
-115.3564453125
-112.60986328125
-113.525390625
-108.94775390625
-109.86328125
-114.44091796875
-113.525390625
-106.201171875
-108.0322265625
-107.11669921875
-108.0322265625
-108.94775390625
-114.44091796875
-113.525390625
-114.44091796875
-112.60986328125
-114.44091796875
-110.77880859375
-112.60986328125
-112.60986328125
-109.86328125
-112.60986328125
-112.60986328125
-115.3564453125
-119.0185546875
-120.849609375
-117.1875
-107.11669921875
-106.201171875
-118.10302734375
-120.849609375
-119.0185546875
-118.10302734375
-120.849609375
-119.93408203125
-119.0185546875
-114.44091796875
-108.94775390625
-101.62353515625
-99.79248046875
-101.62353515625
-98.876953125
-95.21484375
-86.0595703125
-79.65087890625
-71.4111328125
-63.17138671875
-50.35400390625
-43.9453125
-31.1279296875
-16.4794921875
-6.40869140625
10.986328125
32.04345703125
37.53662109375
42.1142578125
31.1279296875
17.39501953125
10.07080078125
9.1552734375
15.56396484375
20.1416015625
25.634765625
22.88818359375
21.05712890625
14.6484375
10.07080078125
-0.91552734375
-11.90185546875
-15.56396484375
-22.88818359375
-44.86083984375
-61.34033203125
-68.66455078125
-78.7353515625
-78.7353515625
-71.4111328125
-87.890625
-88.80615234375
-89.7216796875
-91.552734375
-95.21484375
-96.13037109375
-96.13037109375
-97.96142578125
-99.79248046875
-101.62353515625
-101.62353515625
-99.79248046875
-103.45458984375
-105.28564453125
-104.3701171875
-104.3701171875
-105.28564453125
-110.77880859375
-108.0322265625
-108.0322265625
-109.86328125
-108.94775390625
-119.0185546875
-119.93408203125
-108.0322265625
-92.46826171875
-66.83349609375
-31.1279296875
7.32421875
38.4521484375
84.228515625
134.58251953125
238.95263671875
364.3798828125
494.384765625
665.58837890625
864.2578125
1056.5185546875
1210.3271484375
1365.05126953125
1529.84619140625
1617.73681640625
1613.1591796875
1611.328125
1584.77783203125
1385.19287109375
1120.60546875
905.45654296875
691.22314453125
451.35498046875
176.69677734375
25.634765625
-12.8173828125
-35.70556640625
-66.83349609375
-78.7353515625
-69.580078125
-49.4384765625
-30.21240234375
-2.74658203125
0
-1.8310546875
-6.40869140625
-14.6484375
-27.4658203125
-34.7900390625
-40.283203125
-44.86083984375
-40.283203125
-53.1005859375
-62.255859375
-58.59375
-62.255859375
-65.00244140625
-65.91796875
-67.7490234375
-65.91796875
-66.83349609375
-62.255859375
-64.0869140625
-66.83349609375
-64.0869140625
-65.00244140625
-66.83349609375
-65.91796875
-61.34033203125
-61.34033203125
-62.255859375
-62.255859375
-58.59375
-62.255859375
-61.34033203125
-56.7626953125
-55.84716796875
-49.4384765625
-45.7763671875
-47.607421875
-45.7763671875
-47.607421875
-45.7763671875
-44.86083984375
-43.9453125
-43.9453125
-39.36767578125
-34.7900390625
-34.7900390625
-30.21240234375
-31.1279296875
-30.21240234375
-30.21240234375
-27.4658203125
-23.8037109375
-24.71923828125
-26.55029296875
-21.05712890625
-20.1416015625
-8.23974609375
-8.23974609375
-20.1416015625
-14.6484375
-6.40869140625
-8.23974609375
-7.32421875
-6.40869140625
-2.74658203125
0
4.57763671875
1.8310546875
7.32421875
12.8173828125
16.4794921875
15.56396484375
15.56396484375
16.4794921875
23.8037109375
26.55029296875
24.71923828125
28.38134765625
33.87451171875
37.53662109375
39.36767578125
43.02978515625
45.7763671875
50.35400390625
51.26953125
52.18505859375
52.18505859375
57.67822265625
70.49560546875
67.7490234375
64.0869140625
72.32666015625
72.32666015625
73.2421875
77.81982421875
82.3974609375
87.890625
86.97509765625
89.7216796875
92.46826171875
97.0458984375
96.13037109375
100.7080078125
101.62353515625
98.876953125
101.62353515625
100.7080078125
104.3701171875
102.5390625
102.5390625
103.45458984375
104.3701171875
104.3701171875
108.94775390625
108.94775390625
113.525390625
103.45458984375
104.3701171875
97.96142578125
95.21484375
92.46826171875
85.14404296875
81.48193359375
75.98876953125
68.66455078125
54.931640625
51.26953125
41.19873046875
31.1279296875
24.71923828125
14.6484375
3.662109375
-7.32421875
-16.4794921875
-19.22607421875
-27.4658203125
-34.7900390625
-40.283203125
-47.607421875
-56.7626953125
-59.50927734375
-67.7490234375
-69.580078125
-75.98876953125
-77.81982421875
-86.0595703125
-88.80615234375
-88.80615234375
-93.3837890625
-93.3837890625
-99.79248046875
-99.79248046875
-100.7080078125
-102.5390625
-104.3701171875
-96.13037109375
-108.0322265625
-110.77880859375
-107.11669921875
-104.3701171875
-104.3701171875
-108.0322265625
-110.77880859375
-105.28564453125
-103.45458984375
-102.5390625
-105.28564453125
-106.201171875
-104.3701171875
-101.62353515625
-103.45458984375
-104.3701171875
-99.79248046875
-98.876953125
-101.62353515625
-97.96142578125
-102.5390625
-103.45458984375
-101.62353515625
-99.79248046875
-102.5390625
-101.62353515625
-101.62353515625
-97.0458984375
-98.876953125
-100.7080078125
-100.7080078125
-104.3701171875
-97.0458984375
-96.13037109375
-86.0595703125
-102.5390625
-104.3701171875
-99.79248046875
-98.876953125
-102.5390625
-97.96142578125
-99.79248046875
-97.96142578125
-100.7080078125
-98.876953125
-99.79248046875
-100.7080078125
-97.96142578125
-98.876953125
-100.7080078125
-97.96142578125
-99.79248046875
-100.7080078125
-103.45458984375
-102.5390625
-97.96142578125
-99.79248046875
-104.3701171875
-101.62353515625
-99.79248046875
-100.7080078125
-100.7080078125
-97.0458984375
-99.79248046875
-103.45458984375
-107.11669921875
-102.5390625
-96.13037109375
-92.46826171875
-108.94775390625
-108.0322265625
-105.28564453125
-108.0322265625
-109.86328125
-114.44091796875
-110.77880859375
-110.77880859375
-112.60986328125
-109.86328125
-109.86328125
-111.6943359375
-114.44091796875
-112.60986328125
-111.6943359375
-111.6943359375
-115.3564453125
-115.3564453125
-114.44091796875
-113.525390625
-115.3564453125
-116.27197265625
-117.1875
-116.27197265625
-114.44091796875
-115.3564453125
-114.44091796875
-119.0185546875
-118.10302734375
-119.0185546875
-118.10302734375
-119.0185546875
-119.93408203125
-119.93408203125
-120.849609375
-119.93408203125
-108.0322265625
-117.1875
-123.59619140625
-118.10302734375
-121.76513671875
-119.0185546875
-123.59619140625
-119.93408203125
-118.10302734375
-117.1875
-116.27197265625
-119.0185546875
-119.93408203125
-113.525390625
-119.0185546875
-122.6806640625
-121.76513671875
-120.849609375
-117.1875
-111.6943359375
-117.1875
-119.0185546875
-114.44091796875
-115.3564453125
-115.3564453125
-115.3564453125
-115.3564453125
-117.1875
-117.1875
-117.1875
-114.44091796875
-118.10302734375
-117.1875
-119.93408203125
-108.94775390625
-114.44091796875
-121.76513671875
-116.27197265625
-117.1875
-117.1875
-119.93408203125
-119.0185546875
-119.93408203125
-117.1875
-119.0185546875
-118.10302734375
-115.3564453125
-119.0185546875
-121.76513671875
-120.849609375
-119.93408203125
-119.0185546875
-120.849609375
-119.0185546875
-114.44091796875
-115.3564453125
-119.0185546875
-119.0185546875
-118.10302734375
-116.27197265625
-117.1875
-116.27197265625
-117.1875
-113.525390625
-116.27197265625
-120.849609375
-115.3564453125
-114.44091796875
-116.27197265625
-121.76513671875
-111.6943359375
-112.60986328125
-112.60986328125
-110.77880859375
-111.6943359375
-115.3564453125
-119.93408203125
-117.1875
-113.525390625
-113.525390625
-108.94775390625
-110.77880859375
-108.94775390625
-108.0322265625
-99.79248046875
-112.60986328125
-116.27197265625
-113.525390625
-111.6943359375
-114.44091796875
-106.201171875
-106.201171875
-109.86328125
-110.77880859375
-109.86328125
-108.94775390625
-108.94775390625
-111.6943359375
-108.94775390625
-107.11669921875
-103.45458984375
-104.3701171875
-101.62353515625
-95.21484375
-91.552734375
-88.80615234375
-86.97509765625
-80.56640625
-76.904296875
-68.66455078125
-61.34033203125
-49.4384765625
-43.02978515625
-34.7900390625
-20.1416015625
-6.40869140625
4.57763671875
21.97265625
46.69189453125
42.1142578125
40.283203125
31.1279296875
19.22607421875
12.8173828125
21.05712890625
22.88818359375
28.38134765625
32.04345703125
29.296875
23.8037109375
17.39501953125
9.1552734375
4.57763671875
-6.40869140625
-14.6484375
-28.38134765625
-41.19873046875
-50.35400390625
-61.34033203125
-66.83349609375
-70.49560546875
-72.32666015625
-71.4111328125
-75.0732421875
-79.65087890625
-85.14404296875
-85.14404296875
-86.97509765625
-91.552734375
-93.3837890625
-96.13037109375
-87.890625
-86.97509765625
-86.0595703125
-86.97509765625
-87.890625
-85.14404296875
-86.97509765625
-79.65087890625
-94.29931640625
-99.79248046875
-96.13037109375
-92.46826171875
-96.13037109375
-103.45458984375
-101.62353515625
-86.97509765625
-73.2421875
-43.02978515625
-7.32421875
27.4658203125
55.84716796875
105.28564453125
159.3017578125
263.671875
383.60595703125
517.27294921875
682.06787109375
867.919921875
1058.349609375
1204.833984375
1365.05126953125
1517.9443359375
1599.42626953125
1611.328125
1616.8212890625
1582.94677734375
1387.939453125
1138.00048828125
924.6826171875
735.16845703125
501.708984375
231.62841796875
96.13037109375
47.607421875
10.986328125
-31.1279296875
-56.7626953125
-57.67822265625
-33.87451171875
-15.56396484375
7.32421875
25.634765625
21.97265625
10.986328125
4.57763671875
-5.4931640625
-10.07080078125
-13.73291015625
-18.310546875
-24.71923828125
-26.55029296875
-29.296875
-28.38134765625
-32.958984375
-32.04345703125
-36.62109375
-40.283203125
-41.19873046875
-42.1142578125
-39.36767578125
-38.4521484375
-37.53662109375
-34.7900390625
-32.958984375
-36.62109375
-37.53662109375
-32.958984375
-31.1279296875
-32.04345703125
-29.296875
-27.4658203125
-24.71923828125
-25.634765625
-25.634765625
-23.8037109375
-24.71923828125
-22.88818359375
-21.97265625
-20.1416015625
-18.310546875
-18.310546875
-17.39501953125
-13.73291015625
-11.90185546875
-11.90185546875
-11.90185546875
-11.90185546875
-8.23974609375
-1.8310546875
5.4931640625
0
3.662109375
6.40869140625
11.90185546875
14.6484375
14.6484375
7.32421875
10.986328125
