ECG
-54.01611328125
-45.7763671875
-52.18505859375
-56.7626953125
-61.34033203125
-70.49560546875
-73.2421875
-71.4111328125
-59.50927734375
-52.18505859375
-78.7353515625
-100.7080078125
-91.552734375
-63.17138671875
-33.87451171875
-19.22607421875
-44.86083984375
-88.80615234375
-104.3701171875
-90.63720703125
-67.7490234375
-55.84716796875
-43.02978515625
-17.39501953125
-10.07080078125
-5.4931640625
-11.90185546875
-3.662109375
-8.23974609375
-32.958984375
-21.05712890625
10.07080078125
49.4384765625
86.0595703125
77.81982421875
77.81982421875
74.15771484375
75.98876953125
66.83349609375
60.4248046875
56.7626953125
69.580078125
87.890625
99.79248046875
70.49560546875
19.22607421875
18.310546875
45.7763671875
57.67822265625
49.4384765625
28.38134765625
-17.39501953125
-34.7900390625
-35.70556640625
-17.39501953125
-14.6484375
-43.9453125
-40.283203125
-17.39501953125
-26.55029296875
-54.01611328125
-63.17138671875
-65.91796875
-53.1005859375
-32.958984375
-38.4521484375
-49.4384765625
-48.52294921875
-46.69189453125
-54.931640625
-46.69189453125
-32.04345703125
-39.36767578125
-73.2421875
-75.98876953125
-68.66455078125
-71.4111328125
-52.18505859375
-40.283203125
-47.607421875
-60.4248046875
-48.52294921875
-27.4658203125
-0.91552734375
32.958984375
55.84716796875
97.96142578125
154.72412109375
248.10791015625
364.3798828125
480.65185546875
623.47412109375
807.4951171875
1007.080078125
1175.537109375
1329.345703125
1468.505859375
1538.0859375
1593.017578125
1648.86474609375
1644.287109375
1474.91455078125
1215.8203125
1025.390625
819.39697265625
580.4443359375
325.927734375
175.78125
129.08935546875
98.876953125
42.1142578125
23.8037109375
8.23974609375
3.662109375
15.56396484375
44.86083984375
71.4111328125
81.48193359375
70.49560546875
45.7763671875
32.958984375
39.36767578125
37.53662109375
29.296875
36.62109375
25.634765625
11.90185546875
7.32421875
21.97265625
34.7900390625
36.62109375
33.87451171875
24.71923828125
19.22607421875
-2.74658203125
-29.296875
-29.296875
6.40869140625
16.4794921875
15.56396484375
22.88818359375
24.71923828125
-2.74658203125
-9.1552734375
10.986328125
32.04345703125
38.4521484375
35.70556640625
28.38134765625
19.22607421875
50.35400390625
48.52294921875
41.19873046875
50.35400390625
43.9453125
8.23974609375
-10.986328125
-1.8310546875
29.296875
53.1005859375
46.69189453125
38.4521484375
44.86083984375
67.7490234375
92.46826171875
99.79248046875
96.13037109375
78.7353515625
56.7626953125
52.18505859375
39.36767578125
39.36767578125
44.86083984375
55.84716796875
94.29931640625
97.96142578125
64.0869140625
46.69189453125
65.00244140625
84.228515625
107.11669921875
130.92041015625
130.92041015625
128.173828125
132.75146484375
119.93408203125
112.60986328125
107.11669921875
109.86328125
114.44091796875
104.3701171875
84.228515625
98.876953125
133.6669921875
150.146484375
160.21728515625
148.3154296875
126.3427734375
136.41357421875
148.3154296875
162.04833984375
173.03466796875
176.69677734375
165.71044921875
178.52783203125
209.65576171875
218.81103515625
167.54150390625
126.3427734375
137.3291015625
169.37255859375
182.18994140625
195.00732421875
208.740234375
221.5576171875
215.14892578125
185.85205078125
173.9501953125
200.50048828125
228.8818359375
232.5439453125
235.29052734375
235.29052734375
226.13525390625
233.45947265625
218.81103515625
204.16259765625
192.2607421875
196.83837890625
217.8955078125
221.5576171875
221.5576171875
212.40234375
191.34521484375
158.38623046875
147.39990234375
175.78125
178.52783203125
149.23095703125
121.76513671875
132.75146484375
139.16015625
119.0185546875
90.63720703125
79.65087890625
71.4111328125
62.255859375
49.4384765625
66.83349609375
65.91796875
53.1005859375
27.4658203125
10.07080078125
-1.8310546875
21.97265625
23.8037109375
-16.4794921875
-46.69189453125
-32.04345703125
-7.32421875
2.74658203125
17.39501953125
18.310546875
13.73291015625
-2.74658203125
-21.97265625
-24.71923828125
-24.71923828125
-16.4794921875
-17.39501953125
-12.8173828125
-12.8173828125
-10.986328125
-6.40869140625
3.662109375
10.07080078125
7.32421875
-19.22607421875
-43.02978515625
-55.84716796875
-64.0869140625
-48.52294921875
-29.296875
-10.986328125
-11.90185546875
-15.56396484375
-10.07080078125
-12.8173828125
-13.73291015625
-15.56396484375
-7.32421875
7.32421875
-0.91552734375
-16.4794921875
-22.88818359375
-17.39501953125
-10.07080078125
0
4.57763671875
8.23974609375
23.8037109375
-6.40869140625
-46.69189453125
-30.21240234375
-24.71923828125
-45.7763671875
-35.70556640625
0.91552734375
19.22607421875
3.662109375
-19.22607421875
-22.88818359375
-9.1552734375
-1.8310546875
23.8037109375
44.86083984375
10.07080078125
-13.73291015625
-25.634765625
-20.1416015625
-1.8310546875
7.32421875
13.73291015625
17.39501953125
23.8037109375
-0.91552734375
-41.19873046875
-53.1005859375
-47.607421875
-14.6484375
10.07080078125
17.39501953125
0.91552734375
-7.32421875
-10.986328125
-8.23974609375
-16.4794921875
-13.73291015625
-10.986328125
-27.4658203125
-34.7900390625
-32.958984375
-23.8037109375
-14.6484375
-13.73291015625
-25.634765625
-26.55029296875
-13.73291015625
-8.23974609375
-22.88818359375
-25.634765625
0.91552734375
-7.32421875
-15.56396484375
-34.7900390625
-73.2421875
-64.0869140625
-23.8037109375
-12.8173828125
-9.1552734375
-11.90185546875
-35.70556640625
-49.4384765625
-51.26953125
-29.296875
-27.4658203125
-26.55029296875
-26.55029296875
-13.73291015625
-26.55029296875
-36.62109375
-33.87451171875
-24.71923828125
-5.4931640625
-12.8173828125
-16.4794921875
-16.4794921875
-27.4658203125
-46.69189453125
-46.69189453125
-29.296875
-26.55029296875
-52.18505859375
-62.255859375
-55.84716796875
-28.38134765625
-10.986328125
-15.56396484375
-24.71923828125
-24.71923828125
-18.310546875
-15.56396484375
-26.55029296875
-65.91796875
-54.01611328125
-16.4794921875
-26.55029296875
-58.59375
-83.31298828125
-69.580078125
-48.52294921875
-20.1416015625
-26.55029296875
-42.1142578125
-43.9453125
-30.21240234375
-27.4658203125
-11.90185546875
-11.90185546875
-32.958984375
-48.52294921875
-41.19873046875
-38.4521484375
-42.1142578125
-49.4384765625
-35.70556640625
-34.7900390625
-40.283203125
-37.53662109375
-35.70556640625
-40.283203125
-38.4521484375
-24.71923828125
-31.1279296875
-29.296875
-28.38134765625
-43.9453125
-53.1005859375
-48.52294921875
-50.35400390625
-55.84716796875
-62.255859375
-53.1005859375
-35.70556640625
-29.296875
-24.71923828125
-19.22607421875
-37.53662109375
-40.283203125
-26.55029296875
-43.02978515625
-74.15771484375
-82.3974609375
-61.34033203125
-44.86083984375
-44.86083984375
-32.958984375
-45.7763671875
-50.35400390625
-43.02978515625
-24.71923828125
-13.73291015625
-17.39501953125
-40.283203125
-57.67822265625
-42.1142578125
-39.36767578125
-39.36767578125
-36.62109375
-26.55029296875
-14.6484375
-9.1552734375
-18.310546875
-43.02978515625
-65.00244140625
-55.84716796875
-37.53662109375
-0.91552734375
23.8037109375
40.283203125
21.05712890625
21.97265625
53.1005859375
81.48193359375
92.46826171875
107.11669921875
107.11669921875
116.27197265625
126.3427734375
109.86328125
62.255859375
52.18505859375
48.52294921875
60.4248046875
80.56640625
81.48193359375
82.3974609375
86.97509765625
82.3974609375
75.0732421875
76.904296875
90.63720703125
69.580078125
15.56396484375
-14.6484375
-9.1552734375
6.40869140625
21.05712890625
-6.40869140625
-45.7763671875
-41.19873046875
-21.97265625
-18.310546875
-39.36767578125
-56.7626953125
-55.84716796875
-45.7763671875
-31.1279296875
-18.310546875
2.74658203125
0
-25.634765625
-54.931640625
-72.32666015625
-45.7763671875
-29.296875
-24.71923828125
-21.97265625
-18.310546875
-21.97265625
-59.50927734375
-68.66455078125
-39.36767578125
-10.986328125
9.1552734375
53.1005859375
78.7353515625
83.31298828125
129.08935546875
216.064453125
343.32275390625
496.2158203125
659.1796875
841.36962890625
1028.13720703125
1181.94580078125
1332.09228515625
1489.56298828125
1628.72314453125
1692.81005859375
1715.6982421875
1695.556640625
1546.32568359375
1273.49853515625
1055.60302734375
846.86279296875
614.31884765625
355.224609375
180.35888671875
114.44091796875
85.14404296875
50.35400390625
15.56396484375
2.74658203125
19.22607421875
36.62109375
30.21240234375
28.38134765625
39.36767578125
62.255859375
80.56640625
65.91796875
25.634765625
13.73291015625
2.74658203125
-10.07080078125
4.57763671875
16.4794921875
7.32421875
4.57763671875
30.21240234375
56.7626953125
56.7626953125
47.607421875
16.4794921875
-8.23974609375
5.4931640625
28.38134765625
32.04345703125
31.1279296875
27.4658203125
22.88818359375
1.8310546875
-18.310546875
-23.8037109375
6.40869140625
29.296875
42.1142578125
8.23974609375
-17.39501953125
-10.07080078125
1.8310546875
21.05712890625
48.52294921875
65.91796875
45.7763671875
18.310546875
-6.40869140625
-9.1552734375
1.8310546875
22.88818359375
54.931640625
84.228515625
82.3974609375
64.0869140625
52.18505859375
45.7763671875
43.9453125
59.50927734375
80.56640625
70.49560546875
60.4248046875
55.84716796875
69.580078125
86.97509765625
83.31298828125
56.7626953125
46.69189453125
70.49560546875
97.96142578125
70.49560546875
45.7763671875
51.26953125
93.3837890625
125.42724609375
121.76513671875
108.94775390625
75.0732421875
52.18505859375
76.904296875
92.46826171875
106.201171875
129.08935546875
148.3154296875
170.2880859375
162.04833984375
149.23095703125
130.92041015625
134.58251953125
151.9775390625
144.6533203125
128.173828125
132.75146484375
138.24462890625
152.89306640625
160.21728515625
167.54150390625
195.9228515625
204.16259765625
161.1328125
140.07568359375
134.58251953125
154.72412109375
185.85205078125
219.7265625
216.064453125
168.45703125
142.822265625
167.54150390625
204.16259765625
220.64208984375
227.05078125
212.40234375
205.99365234375
202.33154296875
197.75390625
191.34521484375
185.85205078125
201.416015625
203.2470703125
208.740234375
204.16259765625
181.2744140625
179.443359375
176.69677734375
167.54150390625
182.18994140625
179.443359375
158.38623046875
132.75146484375
110.77880859375
103.45458984375
86.0595703125
58.59375
42.1142578125
46.69189453125
54.931640625
52.18505859375
32.04345703125
17.39501953125
18.310546875
21.05712890625
13.73291015625
18.310546875
25.634765625
36.62109375
39.36767578125
15.56396484375
-21.97265625
-34.7900390625
-22.88818359375
-21.05712890625
-23.8037109375
-23.8037109375
-32.04345703125
-49.4384765625
-38.4521484375
-21.97265625
-10.07080078125
-26.55029296875
-56.7626953125
-96.13037109375
-83.31298828125
-48.52294921875
-40.283203125
-34.7900390625
-32.958984375
-37.53662109375
-45.7763671875
-46.69189453125
-23.8037109375
-11.90185546875
-27.4658203125
-47.607421875
-47.607421875
-40.283203125
-27.4658203125
-40.283203125
-77.81982421875
-75.0732421875
-52.18505859375
-24.71923828125
-13.73291015625
-13.73291015625
-29.296875
-23.8037109375
-21.05712890625
-29.296875
-13.73291015625
-4.57763671875
-25.634765625
-50.35400390625
-60.4248046875
-53.1005859375
-47.607421875
-57.67822265625
-71.4111328125
-83.31298828125
-54.931640625
-32.958984375
-30.21240234375
-12.8173828125
14.6484375
9.1552734375
-24.71923828125
-43.02978515625
-39.36767578125
-42.1142578125
-40.283203125
-43.02978515625
-33.87451171875
-39.36767578125
-29.296875
-6.40869140625
-28.38134765625
-48.52294921875
-32.04345703125
-23.8037109375
-33.87451171875
-39.36767578125
-38.4521484375
-37.53662109375
-43.9453125
-39.36767578125
-21.97265625
-12.8173828125
-37.53662109375
-75.98876953125
-85.14404296875
-75.98876953125
-64.0869140625
-54.931640625
-17.39501953125
10.07080078125
-6.40869140625
-44.86083984375
-69.580078125
-75.98876953125
-73.2421875
-68.66455078125
-53.1005859375
-40.283203125
-45.7763671875
-55.84716796875
-52.18505859375
-53.1005859375
-43.02978515625
-25.634765625
-14.6484375
-43.02978515625
-68.66455078125
-93.3837890625
-88.80615234375
-68.66455078125
-55.84716796875
-61.34033203125
-67.7490234375
-65.00244140625
-62.255859375
-79.65087890625
-77.81982421875
-56.7626953125
-43.9453125
-43.02978515625
-54.931640625
-88.80615234375
-91.552734375
-76.904296875
-63.17138671875
-53.1005859375
-45.7763671875
-44.86083984375
-61.34033203125
-68.66455078125
-67.7490234375
-73.2421875
-65.91796875
-55.84716796875
-59.50927734375
-84.228515625
-82.3974609375
-67.7490234375
-64.0869140625
-60.4248046875
-60.4248046875
-56.7626953125
-54.01611328125
-72.32666015625
-94.29931640625
-71.4111328125
-42.1142578125
-54.01611328125
-86.0595703125
-106.201171875
-114.44091796875
-99.79248046875
-65.91796875
-55.84716796875
-64.0869140625
-64.0869140625
-50.35400390625
-47.607421875
-66.83349609375
-89.7216796875
-91.552734375
-70.49560546875
-43.9453125
-43.02978515625
-75.0732421875
-104.3701171875
-101.62353515625
-83.31298828125
-86.0595703125
-76.904296875
-57.67822265625
-60.4248046875
-61.34033203125
-51.26953125
-54.931640625
-62.255859375
-59.50927734375
-63.17138671875
-79.65087890625
-91.552734375
-91.552734375
-88.80615234375
-72.32666015625
-54.01611328125
-73.2421875
-119.93408203125
-114.44091796875
-66.83349609375
-52.18505859375
-66.83349609375
-96.13037109375
-118.10302734375
-99.79248046875
-65.00244140625
-41.19873046875
-52.18505859375
-86.0595703125
-89.7216796875
-98.876953125
-77.81982421875
-51.26953125
-64.0869140625
-88.80615234375
-77.81982421875
-58.59375
-65.91796875
-76.904296875
-56.7626953125
-49.4384765625
-43.9453125
-35.70556640625
-59.50927734375
-106.201171875
-120.849609375
-89.7216796875
-53.1005859375
-24.71923828125
-17.39501953125
-23.8037109375
-10.986328125
5.4931640625
-4.57763671875
4.57763671875
3.662109375
20.1416015625
56.7626953125
89.7216796875
95.21484375
75.0732421875
69.580078125
47.607421875
17.39501953125
35.70556640625
77.81982421875
73.2421875
52.18505859375
52.18505859375
63.17138671875
46.69189453125
32.04345703125
17.39501953125
14.6484375
19.22607421875
-3.662109375
-32.04345703125
-43.9453125
-66.83349609375
-59.50927734375
-38.4521484375
-32.958984375
-46.69189453125
-55.84716796875
-68.66455078125
-92.46826171875
-96.13037109375
-70.49560546875
-51.26953125
-40.283203125
-49.4384765625
-63.17138671875
-69.580078125
-70.49560546875
-64.0869140625
-63.17138671875
-68.66455078125
-65.91796875
-64.0869140625
-67.7490234375
-75.0732421875
-61.34033203125
-66.83349609375
-103.45458984375
-110.77880859375
-93.3837890625
-73.2421875
-32.04345703125
15.56396484375
43.9453125
82.3974609375
121.76513671875
191.34521484375
310.36376953125
458.67919921875
628.96728515625
824.89013671875
1002.50244140625
1164.55078125
1316.5283203125
1495.05615234375
1627.8076171875
1664.4287109375
1644.287109375
1597.59521484375
1402.587890625
1147.15576171875
950.3173828125
747.98583984375
511.77978515625
260.009765625
115.3564453125
51.26953125
-3.662109375
-47.607421875
-51.26953125
-18.310546875
0
0.91552734375
23.8037109375
34.7900390625
6.40869140625
-10.07080078125
7.32421875
13.73291015625
34.7900390625
17.39501953125
-10.986328125
-30.21240234375
-22.88818359375
-15.56396484375
-6.40869140625
-13.73291015625
-14.6484375
-5.4931640625
1.8310546875
0.91552734375
-0.91552734375
-14.6484375
-31.1279296875
-32.04345703125
-33.87451171875
-22.88818359375
-24.71923828125
-21.05712890625
-24.71923828125
-33.87451171875
-48.52294921875
-40.283203125
-27.4658203125
-25.634765625
-23.8037109375
-13.73291015625
-13.73291015625
-10.07080078125
-10.986328125
-9.1552734375
6.40869140625
8.23974609375
11.90185546875
-7.32421875
-4.57763671875
19.22607421875
22.88818359375
-3.662109375
-30.21240234375
-17.39501953125
6.40869140625
13.73291015625
5.4931640625
1.8310546875
10.986328125
21.97265625
27.4658203125
32.958984375
25.634765625
15.56396484375
27.4658203125
34.7900390625
46.69189453125
56.7626953125
43.9453125
37.53662109375
52.18505859375
43.02978515625
29.296875
26.55029296875
50.35400390625
75.98876953125
92.46826171875
89.7216796875
78.7353515625
44.86083984375
21.97265625
40.283203125
68.66455078125
78.7353515625
80.56640625
96.13037109375
97.96142578125
106.201171875
121.76513671875
128.173828125
118.10302734375
115.3564453125
99.79248046875
97.0458984375
115.3564453125
130.0048828125
143.73779296875
149.23095703125
140.07568359375
133.6669921875
140.9912109375
135.498046875
141.90673828125
160.21728515625
173.03466796875
175.78125
164.794921875
148.3154296875
134.58251953125
149.23095703125
176.69677734375
163.87939453125
135.498046875
141.90673828125
162.04833984375
187.68310546875
204.16259765625
210.5712890625
201.416015625
180.35888671875
161.1328125
164.794921875
164.794921875
157.470703125
152.89306640625
155.6396484375
147.39990234375
129.08935546875
112.60986328125
107.11669921875
115.3564453125
108.0322265625
97.0458984375
80.56640625
64.0869140625
65.91796875
69.580078125
59.50927734375
17.39501953125
-18.310546875
-28.38134765625
-16.4794921875
-12.8173828125
-10.986328125
-11.90185546875
-30.21240234375
-32.958984375
-15.56396484375
-11.90185546875
-24.71923828125
-57.67822265625
-61.34033203125
-53.1005859375
-53.1005859375
-62.255859375
-68.66455078125
-67.7490234375
-65.91796875
-53.1005859375
-52.18505859375
-51.26953125
-44.86083984375
-43.02978515625
-55.84716796875
-67.7490234375
-53.1005859375
-26.55029296875
-36.62109375
-85.14404296875
-108.0322265625
-97.96142578125
-84.228515625
-86.0595703125
-58.59375
-39.36767578125
-32.04345703125
-28.38134765625
-47.607421875
-60.4248046875
-49.4384765625
-46.69189453125
-46.69189453125
-47.607421875
-53.1005859375
-59.50927734375
-43.02978515625
-46.69189453125
-63.17138671875
-65.00244140625
-43.02978515625
-38.4521484375
-48.52294921875
-50.35400390625
-28.38134765625
-33.87451171875
-37.53662109375
-54.01611328125
-67.7490234375
-67.7490234375
-70.49560546875
-75.0732421875
-63.17138671875
-56.7626953125
-52.18505859375
-37.53662109375
-25.634765625
-23.8037109375
-48.52294921875
-72.32666015625
-73.2421875
-56.7626953125
-39.36767578125
-40.283203125
-43.9453125
-61.34033203125
-73.2421875
-62.255859375
-51.26953125
-39.36767578125
-36.62109375
-44.86083984375
-58.59375
-82.3974609375
-87.890625
-65.91796875
-54.01611328125
-49.4384765625
-44.86083984375
-49.4384765625
-53.1005859375
-57.67822265625
-40.283203125
-30.21240234375
-27.4658203125
-50.35400390625
-83.31298828125
-86.0595703125
-84.228515625
-86.0595703125
-75.98876953125
-43.9453125
-53.1005859375
-95.21484375
-107.11669921875
-72.32666015625
-50.35400390625
-45.7763671875
-41.19873046875
-56.7626953125
-60.4248046875
-64.0869140625
-72.32666015625
-81.48193359375
-67.7490234375
-67.7490234375
-85.14404296875
-88.80615234375
-85.14404296875
-80.56640625
-69.580078125
-49.4384765625
-39.36767578125
-50.35400390625
-79.65087890625
-104.3701171875
-101.62353515625
-89.7216796875
-100.7080078125
-115.3564453125
-92.46826171875
-59.50927734375
-54.931640625
-63.17138671875
-71.4111328125
-80.56640625
-67.7490234375
-57.67822265625
-54.931640625
-60.4248046875
-80.56640625
-85.14404296875
-87.890625
-100.7080078125
-114.44091796875
-100.7080078125
-73.2421875
-54.01611328125
-54.931640625
-77.81982421875
-90.63720703125
-75.0732421875
-61.34033203125
-71.4111328125
-89.7216796875
-95.21484375
-87.890625
-86.0595703125
-90.63720703125
-84.228515625
-78.7353515625
-82.3974609375
-74.15771484375
-66.83349609375
-70.49560546875
-74.15771484375
-65.00244140625
-63.17138671875
-85.14404296875
-109.86328125
-117.1875
-101.62353515625
-84.228515625
-81.48193359375
-64.0869140625
-55.84716796875
-86.97509765625
-102.5390625
-98.876953125
-86.0595703125
-85.14404296875
-75.98876953125
-67.7490234375
-58.59375
-74.15771484375
-95.21484375
-112.60986328125
-86.97509765625
-76.904296875
-86.97509765625
-105.28564453125
-113.525390625
-119.0185546875
-98.876953125
-76.904296875
-78.7353515625
-75.0732421875
-73.2421875
-67.7490234375
-73.2421875
-81.48193359375
-87.890625
-86.0595703125
-82.3974609375
-83.31298828125
-78.7353515625
-63.17138671875
-65.91796875
-75.98876953125
-85.14404296875
-92.46826171875
-86.97509765625
-78.7353515625
-59.50927734375
-41.19873046875
-46.69189453125
-70.49560546875
-94.29931640625
-77.81982421875
-49.4384765625
-34.7900390625
-32.958984375
-17.39501953125
7.32421875
28.38134765625
54.931640625
88.80615234375
107.11669921875
89.7216796875
42.1142578125
-0.91552734375
-17.39501953125
-15.56396484375
12.8173828125
50.35400390625
72.32666015625
75.98876953125
74.15771484375
46.69189453125
31.1279296875
31.1279296875
20.1416015625
13.73291015625
-18.310546875
-28.38134765625
-22.88818359375
-17.39501953125
-26.55029296875
-54.931640625
-70.49560546875
-72.32666015625
-59.50927734375
-57.67822265625
-63.17138671875
-76.904296875
-78.7353515625
-83.31298828125
-74.15771484375
-65.91796875
-74.15771484375
-68.66455078125
-67.7490234375
-63.17138671875
-56.7626953125
-70.49560546875
-109.86328125
-129.08935546875
-139.16015625
-129.08935546875
-99.79248046875
-93.3837890625
-97.0458984375
-109.86328125
-94.29931640625
-57.67822265625
-24.71923828125
15.56396484375
40.283203125
64.0869140625
88.80615234375
163.87939453125
283.8134765625
401.0009765625
523.681640625
682.06787109375
867.00439453125
1047.36328125
1206.6650390625
1375.1220703125
1534.423828125
1620.4833984375
1639.70947265625
1616.8212890625
1534.423828125
1278.076171875
1064.75830078125
886.23046875
693.9697265625
460.51025390625
251.77001953125
148.3154296875
96.13037109375
56.7626953125
-4.57763671875
-64.0869140625
-85.14404296875
-46.69189453125
-12.8173828125
0
16.4794921875
40.283203125
49.4384765625
12.8173828125
-57.67822265625
-60.4248046875
-28.38134765625
-10.986328125
-4.57763671875
2.74658203125
21.97265625
18.310546875
10.986328125
14.6484375
10.07080078125
-10.07080078125
-23.8037109375
-36.62109375
-33.87451171875
-20.1416015625
-21.05712890625
-15.56396484375
-21.05712890625
-18.310546875
-17.39501953125
-13.73291015625
-22.88818359375
-19.22607421875
-17.39501953125
-14.6484375
1.8310546875
-2.74658203125
-19.22607421875
-42.1142578125
-39.36767578125
-19.22607421875
2.74658203125
6.40869140625
8.23974609375
10.07080078125
4.57763671875
-5.4931640625
-18.310546875
-6.40869140625
-5.4931640625
-1.8310546875
17.39501953125
41.19873046875
40.283203125
28.38134765625
25.634765625
36.62109375
43.9453125
47.607421875
48.52294921875
42.1142578125
2.74658203125
-36.62109375
-11.90185546875
23.8037109375
39.36767578125
39.36767578125
60.4248046875
70.49560546875
81.48193359375
82.3974609375
80.56640625
79.65087890625
105.28564453125
89.7216796875
48.52294921875
31.1279296875
47.607421875
73.2421875
86.97509765625
78.7353515625
75.98876953125
78.7353515625
88.80615234375
100.7080078125
109.86328125
118.10302734375
128.173828125
121.76513671875
119.93408203125
110.77880859375
106.201171875
113.525390625
119.0185546875
117.1875
124.51171875
130.92041015625
147.39990234375
159.3017578125
167.54150390625
165.71044921875
169.37255859375
175.78125
182.18994140625
172.119140625
151.9775390625
144.6533203125
154.72412109375
140.07568359375
132.75146484375
131.8359375
150.146484375
162.9638671875
170.2880859375
177.6123046875
162.04833984375
147.39990234375
153.80859375
163.87939453125
175.78125
170.2880859375
159.3017578125
161.1328125
156.55517578125
136.41357421875
121.76513671875
101.62353515625
68.66455078125
54.931640625
42.1142578125
56.7626953125
56.7626953125
39.36767578125
27.4658203125
35.70556640625
39.36767578125
32.04345703125
22.88818359375
12.8173828125
-10.986328125
-16.4794921875
-12.8173828125
-10.07080078125
-38.4521484375
-44.86083984375
-48.52294921875
-56.7626953125
-67.7490234375
-56.7626953125
-39.36767578125
-36.62109375
-40.283203125
-61.34033203125
-64.0869140625
-47.607421875
-57.67822265625
-84.228515625
-107.11669921875
-97.0458984375
-68.66455078125
-58.59375
-48.52294921875
-53.1005859375
-52.18505859375
-42.1142578125
-44.86083984375
-64.0869140625
-68.66455078125
-59.50927734375
-54.931640625
-56.7626953125
-65.91796875
-94.29931640625
-105.28564453125
-87.890625
-75.98876953125
-65.91796875
-50.35400390625
-43.9453125
-39.36767578125
-42.1142578125
-42.1142578125
-51.26953125
-63.17138671875
-59.50927734375
-41.19873046875
-56.7626953125
-75.98876953125
-75.0732421875
-53.1005859375
-36.62109375
-50.35400390625
-65.91796875
-67.7490234375
-81.48193359375
-97.0458984375
-83.31298828125
-54.931640625
-40.283203125
-34.7900390625
-24.71923828125
-30.21240234375
-39.36767578125
-57.67822265625
-54.01611328125
-46.69189453125
-36.62109375
-30.21240234375
-48.52294921875
-67.7490234375
-73.2421875
-58.59375
-59.50927734375
-54.01611328125
-57.67822265625
-62.255859375
-62.255859375
-69.580078125
-65.00244140625
-54.931640625
-34.7900390625
-36.62109375
-39.36767578125
-39.36767578125
-40.283203125
-50.35400390625
-73.2421875
-75.0732421875
-67.7490234375
-71.4111328125
-72.32666015625
-72.32666015625
-73.2421875
-80.56640625
-94.29931640625
-99.79248046875
-87.890625
-60.4248046875
-39.36767578125
-28.38134765625
-43.9453125
-71.4111328125
-76.904296875
-69.580078125
-76.904296875
-98.876953125
-98.876953125
-97.96142578125
-107.11669921875
-92.46826171875
-82.3974609375
-67.7490234375
-75.98876953125
-74.15771484375
-53.1005859375
-67.7490234375
-83.31298828125
-75.0732421875
-70.49560546875
-72.32666015625
-75.0732421875
-60.4248046875
-53.1005859375
-61.34033203125
-77.81982421875
-102.5390625
-128.173828125
-127.25830078125
-108.0322265625
-83.31298828125
-83.31298828125
-79.65087890625
-80.56640625
-73.2421875
-69.580078125
-72.32666015625
-77.81982421875
-75.0732421875
-67.7490234375
-68.66455078125
-79.65087890625
-86.0595703125
-67.7490234375
-56.7626953125
-94.29931640625
-141.90673828125
-138.24462890625
-108.94775390625
-88.80615234375
-62.255859375
-77.81982421875
-127.25830078125
-150.146484375
-108.0322265625
-65.91796875
-74.15771484375
-83.31298828125
-70.49560546875
-64.0869140625
-64.0869140625
-66.83349609375
-71.4111328125
-97.96142578125
-109.86328125
-103.45458984375
-104.3701171875
-108.94775390625
-114.44091796875
-108.0322265625
-89.7216796875
-81.48193359375
-66.83349609375
-63.17138671875
-69.580078125
-90.63720703125
-111.6943359375
-90.63720703125
-75.0732421875
-87.890625
-108.94775390625
-122.6806640625
-118.10302734375
-108.94775390625
-101.62353515625
-68.66455078125
-72.32666015625
-110.77880859375
-123.59619140625
-104.3701171875
-88.80615234375
-98.876953125
-90.63720703125
-72.32666015625
-67.7490234375
-84.228515625
-86.0595703125
-83.31298828125
-87.890625
-81.48193359375
-75.98876953125
-90.63720703125
-121.76513671875
-122.6806640625
-119.0185546875
-111.6943359375
-108.0322265625
-93.3837890625
-93.3837890625
-88.80615234375
-86.97509765625
-98.876953125
-99.79248046875
-89.7216796875
-64.0869140625
-71.4111328125
-79.65087890625
-84.228515625
-60.4248046875
-43.9453125
-55.84716796875
-71.4111328125
-65.91796875
-29.296875
9.1552734375
32.04345703125
59.50927734375
69.580078125
56.7626953125
32.04345703125
22.88818359375
40.283203125
32.958984375
20.1416015625
16.4794921875
20.1416015625
19.22607421875
13.73291015625
25.634765625
24.71923828125
28.38134765625
20.1416015625
5.4931640625
3.662109375
-24.71923828125
-54.01611328125
-55.84716796875
-58.59375
-60.4248046875
-60.4248046875
-54.01611328125
-74.15771484375
-101.62353515625
-108.0322265625
-120.849609375
-125.42724609375
-119.0185546875
-103.45458984375
-102.5390625
-93.3837890625
-80.56640625
-78.7353515625
-90.63720703125
-93.3837890625
-92.46826171875
-100.7080078125
-105.28564453125
-103.45458984375
-115.3564453125
-115.3564453125
-114.44091796875
-97.0458984375
-97.0458984375
-92.46826171875
-82.3974609375
-72.32666015625
-62.255859375
-42.1142578125
-14.6484375
37.53662109375
89.7216796875
168.45703125
301.20849609375
431.21337890625
563.04931640625
723.2666015625
921.93603515625
1121.52099609375
1279.9072265625
1444.7021484375
1590.27099609375
1639.70947265625
1643.37158203125
1626.89208984375
1491.39404296875
1223.14453125
986.02294921875
774.5361328125
545.654296875
314.94140625
141.90673828125
63.17138671875
14.6484375
-32.04345703125
-54.931640625
-60.4248046875
-52.18505859375
-29.296875
-15.56396484375
11.90185546875
22.88818359375
7.32421875
-1.8310546875
0
-7.32421875
-37.53662109375
-71.4111328125
-71.4111328125
-50.35400390625
-34.7900390625
-21.05712890625
-11.90185546875
-35.70556640625
-47.607421875
-33.87451171875
-39.36767578125
-52.18505859375
-80.56640625
-85.14404296875
-80.56640625
-67.7490234375
-57.67822265625
-58.59375
-59.50927734375
-55.84716796875
-59.50927734375
-58.59375
-41.19873046875
-18.310546875
-22.88818359375
-38.4521484375
-51.26953125
-46.69189453125
-41.19873046875
-42.1142578125
-41.19873046875
-30.21240234375
-26.55029296875
-25.634765625
-32.958984375
-26.55029296875
-29.296875
-32.958984375
-16.4794921875
-28.38134765625
-45.7763671875
-36.62109375
-27.4658203125
-19.22607421875
-0.91552734375
-2.74658203125
-14.6484375
-13.73291015625
-12.8173828125
-4.57763671875
22.88818359375
28.38134765625
29.296875
6.40869140625
-38.4521484375
-43.02978515625
-21.05712890625
-4.57763671875
1.8310546875
27.4658203125
43.9453125
44.86083984375
55.84716796875
49.4384765625
33.87451171875
34.7900390625
32.958984375
37.53662109375
30.21240234375
41.19873046875
47.607421875
58.59375
61.34033203125
65.00244140625
73.2421875
82.3974609375
82.3974609375
62.255859375
56.7626953125
76.904296875
100.7080078125
122.6806640625
119.0185546875
67.7490234375
47.607421875
75.98876953125
103.45458984375
114.44091796875
124.51171875
121.76513671875
127.25830078125
132.75146484375
144.6533203125
139.16015625
123.59619140625
108.94775390625
102.5390625
106.201171875
133.6669921875
155.6396484375
140.07568359375
129.08935546875
126.3427734375
140.07568359375
148.3154296875
141.90673828125
154.72412109375
134.58251953125
134.58251953125
138.24462890625
141.90673828125
141.90673828125
135.498046875
117.1875
71.4111328125
34.7900390625
32.04345703125
43.02978515625
37.53662109375
26.55029296875
12.8173828125
-0.91552734375
-9.1552734375
-8.23974609375
10.07080078125
7.32421875
-20.1416015625
-62.255859375
-66.83349609375
-58.59375
-54.931640625
-67.7490234375
-80.56640625
-74.15771484375
-75.0732421875
-86.0595703125
-82.3974609375
-74.15771484375
-77.81982421875
-78.7353515625
-84.228515625
-87.890625
-102.5390625
-140.07568359375
-136.41357421875
-121.76513671875
-110.77880859375
-122.6806640625
-113.525390625
-112.60986328125
-90.63720703125
-84.228515625
-107.11669921875
-117.1875
-137.3291015625
-157.470703125
-149.23095703125
-136.41357421875
-106.201171875
-86.97509765625
-91.552734375
-88.80615234375
-103.45458984375
-118.10302734375
-114.44091796875
-111.6943359375
-102.5390625
-98.876953125
-103.45458984375
-116.27197265625
-116.27197265625
-112.60986328125
-103.45458984375
-89.7216796875
-90.63720703125
-112.60986328125
-144.6533203125
-154.72412109375
-142.822265625
-129.08935546875
-104.3701171875
-86.0595703125
-95.21484375
-118.10302734375
-124.51171875
-102.5390625
-77.81982421875
-79.65087890625
-107.11669921875
-133.6669921875
-130.0048828125
-105.28564453125
-98.876953125
-94.29931640625
-88.80615234375
-107.11669921875
-128.173828125
-125.42724609375
-94.29931640625
-87.890625
-97.96142578125
-99.79248046875
-98.876953125
-127.25830078125
-148.3154296875
-124.51171875
-75.98876953125
-65.00244140625
-97.96142578125
-116.27197265625
-113.525390625
-130.0048828125
-158.38623046875
-141.90673828125
-115.3564453125
-119.93408203125
-132.75146484375
-125.42724609375
-116.27197265625
-108.94775390625
-97.0458984375
-108.0322265625
-115.3564453125
-111.6943359375
-109.86328125
-97.0458984375
-93.3837890625
-95.21484375
-125.42724609375
-151.06201171875
-163.87939453125
-166.6259765625
-159.3017578125
-140.07568359375
-119.93408203125
-111.6943359375
-119.93408203125
-124.51171875
-137.3291015625
-151.9775390625
-158.38623046875
-143.73779296875
-121.76513671875
-119.93408203125
-121.76513671875
-126.3427734375
-119.93408203125
-126.3427734375
-156.55517578125
-189.51416015625
-163.87939453125
-124.51171875
-109.86328125
-111.6943359375
-116.27197265625
-123.59619140625
-131.8359375
-153.80859375
-161.1328125
-125.42724609375
-120.849609375
-123.59619140625
-119.0185546875
-135.498046875
-151.9775390625
-157.470703125
-144.6533203125
-130.92041015625
-133.6669921875
-152.89306640625
-170.2880859375
-164.794921875
-151.9775390625
-140.9912109375
-133.6669921875
-114.44091796875
-121.76513671875
-125.42724609375
-124.51171875
-122.6806640625
-121.76513671875
-147.39990234375
-151.9775390625
-135.498046875
-152.89306640625
-183.10546875
-178.52783203125
-159.3017578125
-139.16015625
-124.51171875
-123.59619140625
-119.0185546875
-121.76513671875
-130.92041015625
-147.39990234375
-150.146484375
-148.3154296875
-137.3291015625
-119.93408203125
-137.3291015625
-182.18994140625
-190.4296875
-176.69677734375
-150.146484375
-141.90673828125
-130.92041015625
-131.8359375
-152.89306640625
-165.71044921875
-150.146484375
-120.849609375
-116.27197265625
-128.173828125
-151.9775390625
-154.72412109375
-138.24462890625
-130.92041015625
-134.58251953125
-130.0048828125
-130.92041015625
-140.07568359375
-143.73779296875
-133.6669921875
-139.16015625
-134.58251953125
-127.25830078125
-136.41357421875
-149.23095703125
-146.484375
-153.80859375
-173.9501953125
-184.02099609375
-162.9638671875
-151.9775390625
-157.470703125
-154.72412109375
-149.23095703125
-136.41357421875
-122.6806640625
-124.51171875
-140.9912109375
-139.16015625
-130.92041015625
-134.58251953125
-133.6669921875
-122.6806640625
-114.44091796875
-117.1875
-107.11669921875
-86.97509765625
-82.3974609375
-73.2421875
-67.7490234375
-66.83349609375
-46.69189453125
-22.88818359375
-21.05712890625
-32.04345703125
-42.1142578125
-32.958984375
-29.296875
-34.7900390625
-32.04345703125
-17.39501953125
-21.97265625
-29.296875
-24.71923828125
-12.8173828125
-25.634765625
-31.1279296875
-32.04345703125
-36.62109375
-45.7763671875
-55.84716796875
-51.26953125
-58.59375
-79.65087890625
-88.80615234375
-84.228515625
-80.56640625
-102.5390625
-132.75146484375
-148.3154296875
-151.9775390625
-140.9912109375
-117.1875
-120.849609375
-138.24462890625
-145.56884765625
-126.3427734375
-116.27197265625
-122.6806640625
-118.10302734375
-106.201171875
-130.92041015625
-181.2744140625
-192.2607421875
-171.20361328125
-152.89306640625
-135.498046875
-124.51171875
-125.42724609375
-131.8359375
-143.73779296875
-154.72412109375
-147.39990234375
-120.849609375
-105.28564453125
-77.81982421875
-38.4521484375
12.8173828125
65.00244140625
135.498046875
237.12158203125
346.98486328125
458.67919921875
648.193359375
871.58203125
1071.1669921875
1242.37060546875
1407.16552734375
1528.9306640625
1579.28466796875
1581.11572265625
1560.05859375
1446.533203125
1194.76318359375
991.51611328125
794.677734375
567.626953125
300.29296875
79.65087890625
13.73291015625
-7.32421875
-74.15771484375
-128.173828125
-122.6806640625
-72.32666015625
-54.01611328125
-51.26953125
-30.21240234375
-28.38134765625
-33.87451171875
-32.958984375
-27.4658203125
-43.02978515625
-77.81982421875
-92.46826171875
-81.48193359375
-68.66455078125
-74.15771484375
-61.34033203125
-56.7626953125
-54.01611328125
-70.49560546875
-91.552734375
-93.3837890625
-79.65087890625
-73.2421875
-75.0732421875
-96.13037109375
-114.44091796875
-109.86328125
-93.3837890625
-79.65087890625
-68.66455078125
-66.83349609375
-63.17138671875
-60.4248046875
-87.890625
-119.93408203125
-108.94775390625
-84.228515625
-68.66455078125
-46.69189453125
-45.7763671875
-68.66455078125
-86.97509765625
-86.0595703125
-79.65087890625
-66.83349609375
-59.50927734375
-51.26953125
-43.9453125
-43.02978515625
-71.4111328125
-86.97509765625
-51.26953125
-34.7900390625
-80.56640625
-96.13037109375
-62.255859375
-25.634765625
-7.32421875
11.90185546875
5.4931640625
-8.23974609375
-20.1416015625
-43.9453125
-68.66455078125
-66.83349609375
-15.56396484375
12.8173828125
10.07080078125
8.23974609375
-3.662109375
-6.40869140625
-0.91552734375
21.05712890625
32.958984375
27.4658203125
-13.73291015625
-34.7900390625
-23.8037109375
1.8310546875
21.97265625
28.38134765625
32.958984375
51.26953125
61.34033203125
70.49560546875
70.49560546875
68.66455078125
65.00244140625
58.59375
62.255859375
65.00244140625
52.18505859375
48.52294921875
73.2421875
88.80615234375
84.228515625
79.65087890625
89.7216796875
94.29931640625
99.79248046875
92.46826171875
87.890625
92.46826171875
93.3837890625
91.552734375
116.27197265625
127.25830078125
114.44091796875
86.97509765625
87.890625
108.0322265625
128.173828125
141.90673828125
130.0048828125
119.93408203125
126.3427734375
130.92041015625
122.6806640625
101.62353515625
96.13037109375
97.96142578125
101.62353515625
101.62353515625
86.97509765625
77.81982421875
69.580078125
60.4248046875
57.67822265625
54.931640625
58.59375
39.36767578125
2.74658203125
-31.1279296875
-43.9453125
-47.607421875
-54.01611328125
-58.59375
-57.67822265625
-40.283203125
-34.7900390625
-44.86083984375
-43.9453125
-39.36767578125
-72.32666015625
-94.29931640625
-103.45458984375
-104.3701171875
-113.525390625
-110.77880859375
-118.10302734375
-116.27197265625
-126.3427734375
-135.498046875
-131.8359375
-121.76513671875
-125.42724609375
-140.9912109375
-134.58251953125
-121.76513671875
-114.44091796875
-110.77880859375
-104.3701171875
-107.11669921875
-109.86328125
-110.77880859375
-102.5390625
-103.45458984375
-119.93408203125
-118.10302734375
-129.08935546875
-148.3154296875
-146.484375
-131.8359375
-113.525390625
-108.94775390625
-99.79248046875
-99.79248046875
-100.7080078125
-97.0458984375
-98.876953125
-122.6806640625
-146.484375
-146.484375
-126.3427734375
-101.62353515625
-107.11669921875
-113.525390625
-116.27197265625
-111.6943359375
-109.86328125
-107.11669921875
-99.79248046875
-88.80615234375
-91.552734375
-89.7216796875
-100.7080078125
-125.42724609375
-144.6533203125
-143.73779296875
-122.6806640625
-125.42724609375
-116.27197265625
-110.77880859375
-114.44091796875
-97.96142578125
-83.31298828125
-81.48193359375
-91.552734375
-93.3837890625
-102.5390625
-107.11669921875
-91.552734375
-94.29931640625
-103.45458984375
-108.0322265625
-104.3701171875
-119.0185546875
-129.08935546875
-119.0185546875
-103.45458984375
-110.77880859375
-123.59619140625
-108.0322265625
-103.45458984375
-106.201171875
-117.1875
-115.3564453125
-101.62353515625
-92.46826171875
-92.46826171875
-107.11669921875
-116.27197265625
-127.25830078125
-113.525390625
-103.45458984375
-108.94775390625
-112.60986328125
-129.08935546875
-138.24462890625
-137.3291015625
-122.6806640625
-109.86328125
-114.44091796875
-117.1875
-101.62353515625
-97.0458984375
-113.525390625
-134.58251953125
-136.41357421875
-129.08935546875
-136.41357421875
-137.3291015625
-122.6806640625
-113.525390625
-112.60986328125
-119.93408203125
-119.93408203125
-114.44091796875
-110.77880859375
-109.86328125
-108.0322265625
-117.1875
-113.525390625
-107.11669921875
-120.849609375
-130.0048828125
-124.51171875
-108.94775390625
-117.1875
-136.41357421875
-143.73779296875
-142.822265625
-133.6669921875
-128.173828125
-141.90673828125
-147.39990234375
-138.24462890625
-123.59619140625
-121.76513671875
-112.60986328125
-112.60986328125
-107.11669921875
-113.525390625
-109.86328125
-108.0322265625
-114.44091796875
-143.73779296875
-150.146484375
-143.73779296875
-126.3427734375
-119.93408203125
-111.6943359375
-119.0185546875
-113.525390625
-108.0322265625
-112.60986328125
-118.10302734375
-108.0322265625
-112.60986328125
-125.42724609375
-128.173828125
-126.3427734375
-130.0048828125
-131.8359375
-142.822265625
-129.08935546875
-113.525390625
-111.6943359375
-136.41357421875
-172.119140625
-181.2744140625
-163.87939453125
-137.3291015625
-115.3564453125
-89.7216796875
-85.14404296875
-101.62353515625
-97.0458984375
-109.86328125
-126.3427734375
-135.498046875
-133.6669921875
-114.44091796875
-122.6806640625
-128.173828125
-116.27197265625
-90.63720703125
-108.0322265625
-125.42724609375
-129.08935546875
-130.92041015625
-138.24462890625
-126.3427734375
-107.11669921875
-105.28564453125
-105.28564453125
-113.525390625
-116.27197265625
-119.93408203125
-116.27197265625
-110.77880859375
-130.0048828125
-157.470703125
-140.9912109375
-107.11669921875
-109.86328125
-105.28564453125
-87.890625
-119.0185546875
-151.9775390625
-151.06201171875
-133.6669921875
-108.0322265625
-84.228515625
-74.15771484375
-59.50927734375
-63.17138671875
-61.34033203125
-59.50927734375
-65.00244140625
-48.52294921875
-36.62109375
-32.04345703125
-15.56396484375
9.1552734375
32.958984375
38.4521484375
23.8037109375
-1.8310546875
-17.39501953125
-3.662109375
21.97265625
19.22607421875
6.40869140625
-4.57763671875
0.91552734375
4.57763671875
12.8173828125
13.73291015625
-4.57763671875
-33.87451171875
-37.53662109375
-60.4248046875
-76.904296875
-99.79248046875
-92.46826171875
-84.228515625
-104.3701171875
-108.94775390625
-90.63720703125
-91.552734375
-88.80615234375
-88.80615234375
-82.3974609375
-86.97509765625
-97.0458984375
-99.79248046875
-97.0458984375
-91.552734375
-96.13037109375
-98.876953125
-88.80615234375
-77.81982421875
-86.97509765625
-108.0322265625
-119.93408203125
-133.6669921875
-132.75146484375
-135.498046875
-120.849609375
-126.3427734375
-119.93408203125
-105.28564453125
-77.81982421875
-43.02978515625
-8.23974609375
17.39501953125
62.255859375
121.76513671875
230.712890625
359.80224609375
466.00341796875
626.220703125
826.72119140625
1019.8974609375
1175.537109375
1330.26123046875
1521.6064453125
1645.20263671875
1642.4560546875
1592.10205078125
1525.2685546875
1333.92333984375
1091.30859375
903.62548828125
724.18212890625
516.357421875
277.40478515625
140.9912109375
82.3974609375
43.02978515625
-18.310546875
-54.931640625
-74.15771484375
-55.84716796875
-19.22607421875
5.4931640625
22.88818359375
10.07080078125
-6.40869140625
-11.90185546875
2.74658203125
13.73291015625
4.57763671875
-27.4658203125
-43.9453125
-40.283203125
-23.8037109375
-19.22607421875
-20.1416015625
-16.4794921875
-31.1279296875
-59.50927734375
-57.67822265625
-43.9453125
-29.296875
-21.97265625
-20.1416015625
-30.21240234375
-31.1279296875
-34.7900390625
-24.71923828125
-8.23974609375
-7.32421875
-35.70556640625
-55.84716796875
-50.35400390625
-28.38134765625
-13.73291015625
-14.6484375
-27.4658203125
-32.958984375
-37.53662109375
-33.87451171875
-19.22607421875
-8.23974609375
-8.23974609375
7.32421875
10.986328125
12.8173828125
18.310546875
7.32421875
0
-9.1552734375
0
7.32421875
14.6484375
-5.4931640625
-9.1552734375
-0.91552734375
18.310546875
28.38134765625
47.607421875
49.4384765625
35.70556640625
41.19873046875
29.296875
17.39501953125
35.70556640625
43.9453125
31.1279296875
1.8310546875
16.4794921875
29.296875
38.4521484375
44.86083984375
68.66455078125
75.98876953125
74.15771484375
68.66455078125
77.81982421875
94.29931640625
104.3701171875
82.3974609375
68.66455078125
72.32666015625
75.0732421875
62.255859375
62.255859375
86.0595703125
102.5390625
102.5390625
118.10302734375
131.8359375
124.51171875
133.6669921875
128.173828125
133.6669921875
141.90673828125
156.55517578125
158.38623046875
149.23095703125
157.470703125
152.89306640625
133.6669921875
143.73779296875
145.56884765625
157.470703125
159.3017578125
148.3154296875
151.06201171875
152.89306640625
149.23095703125
154.72412109375
153.80859375
160.21728515625
174.86572265625
169.37255859375
175.78125
184.9365234375
180.35888671875
161.1328125
152.89306640625
162.04833984375
140.07568359375
130.92041015625
132.75146484375
122.6806640625
105.28564453125
82.3974609375
86.0595703125
86.97509765625
83.31298828125
50.35400390625
27.4658203125
10.986328125
30.21240234375
40.283203125
38.4521484375
21.05712890625
-10.07080078125
-23.8037109375
-30.21240234375
-25.634765625
-25.634765625
-16.4794921875
-22.88818359375
-39.36767578125
-57.67822265625
-57.67822265625
-53.1005859375
-43.9453125
-38.4521484375
-45.7763671875
-50.35400390625
-43.9453125
-51.26953125
-76.904296875
-91.552734375
-81.48193359375
-78.7353515625
-81.48193359375
-70.49560546875
-56.7626953125
-64.0869140625
-54.01611328125
-50.35400390625
-54.01611328125
-59.50927734375
-61.34033203125
-56.7626953125
-56.7626953125
-71.4111328125
-77.81982421875
-72.32666015625
-74.15771484375
-79.65087890625
-75.98876953125
-73.2421875
-65.91796875
-70.49560546875
-72.32666015625
-75.98876953125
-72.32666015625
-71.4111328125
-73.2421875
-65.91796875
-69.580078125
-73.2421875
-65.91796875
-47.607421875
-44.86083984375
-64.0869140625
-86.0595703125
-94.29931640625
-69.580078125
-43.02978515625
-58.59375
-64.0869140625
-60.4248046875
-46.69189453125
-36.62109375
-39.36767578125
-38.4521484375
-37.53662109375
-43.9453125
-45.7763671875
-39.36767578125
-38.4521484375
-49.4384765625
-48.52294921875
-51.26953125
-71.4111328125
-97.96142578125
-102.5390625
-90.63720703125
-79.65087890625
-54.931640625
-37.53662109375
-54.01611328125
-61.34033203125
-64.0869140625
-56.7626953125
-32.04345703125
-36.62109375
-50.35400390625
-65.00244140625
-70.49560546875
-47.607421875
-39.36767578125
-46.69189453125
-61.34033203125
-83.31298828125
-100.7080078125
-75.0732421875
-59.50927734375
-69.580078125
-53.1005859375
-54.931640625
-53.1005859375
-53.1005859375
-48.52294921875
-61.34033203125
-86.0595703125
-94.29931640625
-89.7216796875
-83.31298828125
-75.0732421875
-84.228515625
-70.49560546875
-72.32666015625
-75.0732421875
-74.15771484375
-67.7490234375
-72.32666015625
-84.228515625
-87.890625
-82.3974609375
-80.56640625
-67.7490234375
-71.4111328125
-69.580078125
-59.50927734375
-75.98876953125
-97.0458984375
-103.45458984375
-104.3701171875
-91.552734375
-80.56640625
-70.49560546875
-64.0869140625
-68.66455078125
-64.0869140625
-68.66455078125
-86.0595703125
-92.46826171875
-86.0595703125
-88.80615234375
-101.62353515625
-101.62353515625
-97.0458984375
-68.66455078125
-59.50927734375
-96.13037109375
-118.10302734375
-110.77880859375
-85.14404296875
-64.0869140625
-72.32666015625
-95.21484375
-107.11669921875
-87.890625
-61.34033203125
-62.255859375
-73.2421875
-83.31298828125
-98.876953125
-105.28564453125
-102.5390625
-100.7080078125
-87.890625
-72.32666015625
-76.904296875
-74.15771484375
-68.66455078125
-78.7353515625
-94.29931640625
-108.94775390625
-106.201171875
-98.876953125
-80.56640625
-77.81982421875
-75.0732421875
-78.7353515625
-71.4111328125
-69.580078125
-69.580078125
-77.81982421875
-95.21484375
-123.59619140625
-117.1875
-102.5390625
-91.552734375
-103.45458984375
-107.11669921875
-112.60986328125
-97.96142578125
-78.7353515625
-73.2421875
-78.7353515625
-76.904296875
-75.0732421875
-86.0595703125
-69.580078125
-68.66455078125
-86.97509765625
-107.11669921875
-103.45458984375
-97.96142578125
-105.28564453125
-96.13037109375
-73.2421875
-75.98876953125
-87.890625
-102.5390625
-108.94775390625
-97.96142578125
-86.0595703125
-95.21484375
-103.45458984375
-111.6943359375
-115.3564453125
-98.876953125
-65.91796875
-31.1279296875
-50.35400390625
-77.81982421875
-92.46826171875
-74.15771484375
-38.4521484375
-34.7900390625
-15.56396484375
-3.662109375
11.90185546875
11.90185546875
21.05712890625
39.36767578125
42.1142578125
24.71923828125
20.1416015625
30.21240234375
32.958984375
27.4658203125
26.55029296875
37.53662109375
37.53662109375
40.283203125
48.52294921875
32.04345703125
-8.23974609375
-8.23974609375
0
-6.40869140625
-15.56396484375
-34.7900390625
-32.04345703125
-34.7900390625
-44.86083984375
-48.52294921875
-52.18505859375
-44.86083984375
-43.02978515625
-70.49560546875
-84.228515625
-92.46826171875
-98.876953125
-90.63720703125
-86.0595703125
-103.45458984375
-99.79248046875
-98.876953125
-102.5390625
-108.0322265625
-103.45458984375
-85.14404296875
-75.98876953125
-75.98876953125
-86.97509765625
-101.62353515625
-86.97509765625
-83.31298828125
-104.3701171875
-128.173828125
-109.86328125
-69.580078125
-65.91796875
-63.17138671875
-31.1279296875
10.07080078125
83.31298828125
155.6396484375
268.24951171875
375.3662109375
475.15869140625
626.220703125
832.21435546875
1016.2353515625
1172.79052734375
1354.06494140625
1532.5927734375
1634.21630859375
1671.7529296875
1672.66845703125
1616.8212890625
1396.17919921875
1136.16943359375
955.810546875
747.98583984375
472.412109375
186.767578125
30.21240234375
-4.57763671875
-16.4794921875
-48.52294921875
-62.255859375
-68.66455078125
-54.931640625
-36.62109375
4.57763671875
33.87451171875
35.70556640625
26.55029296875
6.40869140625
-10.986328125
-26.55029296875
-18.310546875
-19.22607421875
-46.69189453125
-70.49560546875
-61.34033203125
-34.7900390625
-32.958984375
-23.8037109375
-23.8037109375
-65.00244140625
-97.96142578125
-90.63720703125
-57.67822265625
-36.62109375
-42.1142578125
-56.7626953125
-52.18505859375
-33.87451171875
-27.4658203125
-33.87451171875
-32.958984375
-53.1005859375
-63.17138671875
-54.931640625
-54.01611328125
-55.84716796875
-46.69189453125
-53.1005859375
-40.283203125
-26.55029296875
-24.71923828125
-17.39501953125
-23.8037109375
-17.39501953125
-21.97265625
-47.607421875
-57.67822265625
-47.607421875
-38.4521484375
-31.1279296875
-32.04345703125
-7.32421875
7.32421875
-3.662109375
-25.634765625
-40.283203125
-19.22607421875
3.662109375
0
-4.57763671875
-8.23974609375
16.4794921875
21.05712890625
22.88818359375
20.1416015625
6.40869140625
6.40869140625
13.73291015625
19.22607421875
21.05712890625
36.62109375
41.19873046875
32.04345703125
21.97265625
-3.662109375
-5.4931640625
22.88818359375
65.91796875
101.62353515625
89.7216796875
52.18505859375
29.296875
23.8037109375
43.9453125
62.255859375
77.81982421875
74.15771484375
59.50927734375
66.83349609375
90.63720703125
98.876953125
113.525390625
134.58251953125
108.0322265625
92.46826171875
89.7216796875
108.94775390625
122.6806640625
121.76513671875
122.6806640625
121.76513671875
107.11669921875
109.86328125
123.59619140625
142.822265625
138.24462890625
137.3291015625
129.08935546875
123.59619140625
129.08935546875
137.3291015625
137.3291015625
119.0185546875
138.24462890625
141.90673828125
144.6533203125
130.0048828125
100.7080078125
95.21484375
128.173828125
147.39990234375
152.89306640625
135.498046875
105.28564453125
70.49560546875
52.18505859375
53.1005859375
54.01611328125
51.26953125
43.9453125
49.4384765625
35.70556640625
6.40869140625
-14.6484375
-32.04345703125
-34.7900390625
-33.87451171875
-34.7900390625
-47.607421875
-86.0595703125
-107.11669921875
-100.7080078125
-81.48193359375
-63.17138671875
-51.26953125
-63.17138671875
-76.904296875
-100.7080078125
-132.75146484375
-116.27197265625
-104.3701171875
-104.3701171875
-93.3837890625
-102.5390625
-138.24462890625
-139.16015625
-126.3427734375
-90.63720703125
-83.31298828125
-93.3837890625
-98.876953125
-100.7080078125
-101.62353515625
-119.0185546875
-129.08935546875
-126.3427734375
-114.44091796875
-108.0322265625
-111.6943359375
-127.25830078125
-137.3291015625
-130.0048828125
-111.6943359375
-86.0595703125
-102.5390625
-120.849609375
-128.173828125
-130.0048828125
-119.0185546875
-106.201171875
-113.525390625
-115.3564453125
-118.10302734375
-97.96142578125
-84.228515625
-92.46826171875
-127.25830078125
-147.39990234375
-136.41357421875
-121.76513671875
-104.3701171875
-80.56640625
-94.29931640625
-130.0048828125
-138.24462890625
-119.93408203125
-87.890625
-85.14404296875
-83.31298828125
-80.56640625
-88.80615234375
-86.0595703125
-95.21484375
-110.77880859375
-126.3427734375
-113.525390625
-109.86328125
-132.75146484375
-144.6533203125
-141.90673828125
-118.10302734375
-112.60986328125
-119.0185546875
-124.51171875
-143.73779296875
-144.6533203125
-119.93408203125
-107.11669921875
-111.6943359375
-116.27197265625
-110.77880859375
-106.201171875
-108.94775390625
-112.60986328125
-105.28564453125
-111.6943359375
-107.11669921875
-108.94775390625
-114.44091796875
-118.10302734375
-119.0185546875
-128.173828125
-134.58251953125
-136.41357421875
-137.3291015625
-148.3154296875
-156.55517578125
-150.146484375
-135.498046875
-114.44091796875
-123.59619140625
-140.07568359375
-143.73779296875
-140.9912109375
-129.08935546875
-104.3701171875
-97.0458984375
-112.60986328125
-150.146484375
-170.2880859375
-152.89306640625
-137.3291015625
-128.173828125
-113.525390625
-114.44091796875
-121.76513671875
-122.6806640625
-125.42724609375
-122.6806640625
-130.92041015625
-152.89306640625
-151.9775390625
-153.80859375
-175.78125
-159.3017578125
-152.89306640625
-142.822265625
-126.3427734375
-128.173828125
-122.6806640625
-119.93408203125
-117.1875
-120.849609375
-142.822265625
-152.89306640625
-157.470703125
-165.71044921875
-168.45703125
-162.04833984375
-133.6669921875
-114.44091796875
-100.7080078125
-109.86328125
-146.484375
-153.80859375
-148.3154296875
-139.16015625
-145.56884765625
-153.80859375
-158.38623046875
-151.06201171875
-145.56884765625
-173.9501953125
-183.10546875
-177.6123046875
-155.6396484375
-118.10302734375
-113.525390625
-149.23095703125
-182.18994140625
-178.52783203125
-146.484375
-132.75146484375
-123.59619140625
-126.3427734375
-146.484375
-148.3154296875
-123.59619140625
-126.3427734375
-148.3154296875
-153.80859375
-133.6669921875
-135.498046875
-162.9638671875
-169.37255859375
-141.90673828125
-117.1875
-111.6943359375
-124.51171875
-177.6123046875
-207.82470703125
-165.71044921875
-137.3291015625
-140.07568359375
-128.173828125
-137.3291015625
-152.89306640625
-152.89306640625
-155.6396484375
-153.80859375
-147.39990234375
-149.23095703125
-140.07568359375
-133.6669921875
-127.25830078125
-125.42724609375
-115.3564453125
-100.7080078125
-106.201171875
-132.75146484375
-159.3017578125
-175.78125
-190.4296875
-204.16259765625
-184.02099609375
-162.9638671875
-140.9912109375
-125.42724609375
-129.08935546875
-132.75146484375
-146.484375
-117.1875
-109.86328125
-141.90673828125
-150.146484375
-151.9775390625
-144.6533203125
-136.41357421875
-128.173828125
-112.60986328125
-97.0458984375
-90.63720703125
-69.580078125
-58.59375
-49.4384765625
-34.7900390625
-29.296875
-21.97265625
-18.310546875
0.91552734375
10.07080078125
-21.97265625
-32.04345703125
-16.4794921875
-11.90185546875
-18.310546875
-25.634765625
-26.55029296875
-34.7900390625
-34.7900390625
-26.55029296875
-26.55029296875
-38.4521484375
-55.84716796875
-71.4111328125
-113.525390625
-130.92041015625
-107.11669921875
-100.7080078125
-114.44091796875
-108.0322265625
-97.96142578125
-97.0458984375
-102.5390625
-97.96142578125
-150.146484375
-184.02099609375
-171.20361328125
-151.9775390625
-130.0048828125
-111.6943359375
-108.94775390625
-115.3564453125
-137.3291015625
-153.80859375
-158.38623046875
-138.24462890625
-131.8359375
-126.3427734375
-138.24462890625
-149.23095703125
-144.6533203125
-168.45703125
-184.02099609375
-159.3017578125
-122.6806640625
-106.201171875
-109.86328125
-83.31298828125
-40.283203125
14.6484375
50.35400390625
101.62353515625
214.2333984375
331.4208984375
485.2294921875
690.3076171875
897.216796875
1070.25146484375
1235.9619140625
1398.01025390625
1539.9169921875
1595.76416015625
1595.76416015625
1566.46728515625
1430.0537109375
1148.0712890625
932.92236328125
763.5498046875
547.4853515625
287.4755859375
79.65087890625
-0.91552734375
-37.53662109375
-76.904296875
-97.96142578125
-109.86328125
-88.80615234375
-67.7490234375
-46.69189453125
-51.26953125
-63.17138671875
-47.607421875
-22.88818359375
-34.7900390625
-74.15771484375
-99.79248046875
-100.7080078125
-89.7216796875
-76.904296875
-71.4111328125
-75.98876953125
-65.91796875
-66.83349609375
-84.228515625
-105.28564453125
-134.58251953125
-130.92041015625
-88.80615234375
-56.7626953125
-70.49560546875
-90.63720703125
-108.94775390625
-109.86328125
-106.201171875
-107.11669921875
-93.3837890625
-84.228515625
-69.580078125
-75.98876953125
-83.31298828125
-87.890625
-81.48193359375
-81.48193359375
-75.0732421875
-49.4384765625
-66.83349609375
-108.94775390625
-135.498046875
-132.75146484375
-102.5390625
-73.2421875
-63.17138671875
-62.255859375
-55.84716796875
-50.35400390625
-54.01611328125
-54.01611328125
-42.1142578125
-39.36767578125
-51.26953125
-51.26953125
-43.9453125
-42.1142578125
-42.1142578125
-53.1005859375
-64.0869140625
-64.0869140625
-39.36767578125
-17.39501953125
-4.57763671875
-6.40869140625
-22.88818359375
-31.1279296875
-21.97265625
-5.4931640625
-8.23974609375
-24.71923828125
-43.02978515625
-37.53662109375
-24.71923828125
-6.40869140625
14.6484375
10.07080078125
2.74658203125
3.662109375
12.8173828125
25.634765625
38.4521484375
48.52294921875
24.71923828125
10.07080078125
23.8037109375
20.1416015625
21.05712890625
24.71923828125
41.19873046875
47.607421875
44.86083984375
51.26953125
71.4111328125
73.2421875
77.81982421875
80.56640625
91.552734375
105.28564453125
93.3837890625
88.80615234375
99.79248046875
102.5390625
98.876953125
97.0458984375
97.0458984375
105.28564453125
113.525390625
106.201171875
99.79248046875
96.13037109375
93.3837890625
97.96142578125
97.96142578125
104.3701171875
100.7080078125
94.29931640625
100.7080078125
104.3701171875
97.96142578125
92.46826171875
95.21484375
68.66455078125
53.1005859375
64.0869140625
60.4248046875
34.7900390625
5.4931640625
-10.07080078125
-22.88818359375
-28.38134765625
-13.73291015625
-6.40869140625
-21.97265625
-33.87451171875
-29.296875
-38.4521484375
-62.255859375
-88.80615234375
-97.96142578125
-84.228515625
-86.0595703125
-100.7080078125
-112.60986328125
-112.60986328125
-124.51171875
-132.75146484375
-135.498046875
-141.90673828125
-129.08935546875
-119.93408203125
-108.0322265625
-98.876953125
-108.0322265625
-117.1875
-122.6806640625
-120.849609375
-127.25830078125
-157.470703125
-167.54150390625
-145.56884765625
-131.8359375
-118.10302734375
-123.59619140625
-147.39990234375
-143.73779296875
-140.07568359375
-141.90673828125
-137.3291015625
-123.59619140625
-115.3564453125
-116.27197265625
-125.42724609375
-140.07568359375
-135.498046875
-122.6806640625
-115.3564453125
-105.28564453125
-114.44091796875
-116.27197265625
-119.0185546875
-129.08935546875
-142.822265625
-137.3291015625
-120.849609375
-125.42724609375
-140.9912109375
-136.41357421875
-117.1875
-107.11669921875
-108.0322265625
-109.86328125
-120.849609375
-129.08935546875
-141.90673828125
-129.08935546875
-110.77880859375
-102.5390625
-94.29931640625
-120.849609375
-151.06201171875
-168.45703125
-165.71044921875
-125.42724609375
-107.11669921875
-98.876953125
-94.29931640625
-89.7216796875
-99.79248046875
-111.6943359375
-119.93408203125
-121.76513671875
-113.525390625
-119.93408203125
-129.08935546875
-122.6806640625
-120.849609375
-115.3564453125
-105.28564453125
-126.3427734375
-151.9775390625
-149.23095703125
-138.24462890625
-130.92041015625
-127.25830078125
-136.41357421875
-130.0048828125
-127.25830078125
-119.93408203125
-108.94775390625
-99.79248046875
-99.79248046875
-119.93408203125
-135.498046875
-135.498046875
-138.24462890625
-154.72412109375
-160.21728515625
-140.07568359375
-126.3427734375
-136.41357421875
-131.8359375
-129.08935546875
-121.76513671875
-121.76513671875
-126.3427734375
-128.173828125
-131.8359375
-126.3427734375
-128.173828125
-157.470703125
-173.03466796875
-156.55517578125
-130.0048828125
-121.76513671875
-130.92041015625
-116.27197265625
-121.76513671875
-133.6669921875
-147.39990234375
-169.37255859375
-173.03466796875
-164.794921875
-144.6533203125
-129.08935546875
-111.6943359375
-127.25830078125
-123.59619140625
-108.94775390625
-113.525390625
-145.56884765625
-152.89306640625
-145.56884765625
-140.07568359375
-137.3291015625
-144.6533203125
-147.39990234375
-156.55517578125
-153.80859375
-126.3427734375
-131.8359375
-152.89306640625
-152.89306640625
-152.89306640625
-146.484375
-141.90673828125
-134.58251953125
-136.41357421875
-140.9912109375
-140.9912109375
-146.484375
-140.07568359375
-137.3291015625
-142.822265625
-130.92041015625
-125.42724609375
-140.9912109375
-153.80859375
-134.58251953125
-141.90673828125
-164.794921875
-178.52783203125
-167.54150390625
-142.822265625
-134.58251953125
-128.173828125
-126.3427734375
-124.51171875
-146.484375
-149.23095703125
-148.3154296875
-135.498046875
-134.58251953125
-142.822265625
-147.39990234375
-151.9775390625
-152.89306640625
-138.24462890625
-130.0048828125
-124.51171875
-137.3291015625
-132.75146484375
-121.76513671875
-121.76513671875
-141.90673828125
-155.6396484375
-160.21728515625
-154.72412109375
-154.72412109375
-155.6396484375
-139.16015625
-117.1875
-117.1875
-114.44091796875
-115.3564453125
-137.3291015625
-146.484375
-149.23095703125
-131.8359375
-124.51171875
-131.8359375
-146.484375
-136.41357421875
-130.92041015625
-138.24462890625
-132.75146484375
-123.59619140625
-137.3291015625
-145.56884765625
-127.25830078125
-96.13037109375
-93.3837890625
-99.79248046875
-86.0595703125
-55.84716796875
-35.70556640625
-11.90185546875
13.73291015625
34.7900390625
51.26953125
46.69189453125
-10.07080078125
-45.7763671875
-73.2421875
-65.00244140625
-31.1279296875
-5.4931640625
3.662109375
1.8310546875
6.40869140625
9.1552734375
11.90185546875
4.57763671875
-19.22607421875
-34.7900390625
-45.7763671875
-65.00244140625
-79.65087890625
-88.80615234375
-99.79248046875
-112.60986328125
-112.60986328125
-100.7080078125
-94.29931640625
-84.228515625
-87.890625
-98.876953125
-137.3291015625
-143.73779296875
-141.90673828125
-122.6806640625
-106.201171875
-108.0322265625
-119.0185546875
-123.59619140625
-129.08935546875
-131.8359375
-135.498046875
-141.90673828125
-158.38623046875
-166.6259765625
-136.41357421875
-108.94775390625
-109.86328125
-126.3427734375
-130.0048828125
-139.16015625
-110.77880859375
-46.69189453125
-20.1416015625
-7.32421875
43.02978515625
109.86328125
194.091796875
282.89794921875
429.38232421875
598.7548828125
782.77587890625
965.88134765625
1119.68994140625
1267.08984375
1449.27978515625
1556.396484375
1592.10205078125
1612.24365234375
1584.77783203125
1396.17919921875
1142.578125
930.17578125
724.18212890625
495.30029296875
250.8544921875
117.1875
62.255859375
0.91552734375
-41.19873046875
-75.98876953125
-108.94775390625
-113.525390625
-78.7353515625
-38.4521484375
-9.1552734375
0
-8.23974609375
-23.8037109375
-42.1142578125
-34.7900390625
-41.19873046875
-51.26953125
-68.66455078125
-76.904296875
-81.48193359375
-73.2421875
-66.83349609375
-43.9453125
-32.958984375
-43.9453125
-65.00244140625
-67.7490234375
-74.15771484375
-75.98876953125
-68.66455078125
-49.4384765625
-45.7763671875
-61.34033203125
-63.17138671875
-51.26953125
-54.01611328125
-59.50927734375
-65.91796875
-71.4111328125
-65.91796875
-60.4248046875
-54.01611328125
-44.86083984375
-42.1142578125
-43.02978515625
-54.931640625
-58.59375
-47.607421875
-36.62109375
-36.62109375
-33.87451171875
-29.296875
-15.56396484375
-10.07080078125
-28.38134765625
-43.02978515625
-51.26953125
-44.86083984375
-40.283203125
-23.8037109375
-5.4931640625
5.4931640625
2.74658203125
0
-4.57763671875
-23.8037109375
-14.6484375
-2.74658203125
5.4931640625
8.23974609375
15.56396484375
24.71923828125
21.05712890625
21.05712890625
5.4931640625
-3.662109375
11.90185546875
19.22607421875
42.1142578125
54.01611328125
32.04345703125
19.22607421875
30.21240234375
36.62109375
50.35400390625
66.83349609375
73.2421875
67.7490234375
76.904296875
76.904296875
76.904296875
75.98876953125
66.83349609375
45.7763671875
54.931640625
68.66455078125
66.83349609375
78.7353515625
103.45458984375
111.6943359375
85.14404296875
75.0732421875
87.890625
109.86328125
122.6806640625
131.8359375
135.498046875
130.92041015625
135.498046875
146.484375
144.6533203125
146.484375
151.9775390625
151.06201171875
147.39990234375
127.25830078125
110.77880859375
122.6806640625
132.75146484375
140.9912109375
148.3154296875
158.38623046875
162.04833984375
152.89306640625
138.24462890625
128.173828125
92.46826171875
70.49560546875
56.7626953125
60.4248046875
70.49560546875
75.98876953125
85.14404296875
63.17138671875
43.9453125
33.87451171875
20.1416015625
26.55029296875
24.71923828125
-0.91552734375
-10.07080078125
-12.8173828125
-29.296875
-67.7490234375
-97.0458984375
-81.48193359375
-56.7626953125
-52.18505859375
-50.35400390625
-47.607421875
-70.49560546875
-87.890625
-100.7080078125
-84.228515625
-62.255859375
-65.91796875
-75.98876953125
-94.29931640625
-102.5390625
-88.80615234375
-75.0732421875
-74.15771484375
-67.7490234375
-88.80615234375
-107.11669921875
-104.3701171875
-91.552734375
-89.7216796875
-105.28564453125
-119.0185546875
-108.0322265625
-101.62353515625
-108.0322265625
-105.28564453125
-95.21484375
-76.904296875
-63.17138671875
-57.67822265625
-67.7490234375
-81.48193359375
-85.14404296875
-109.86328125
-120.849609375
-115.3564453125
-97.96142578125
-72.32666015625
-67.7490234375
-67.7490234375
-70.49560546875
-75.0732421875
-75.0732421875
-76.904296875
-84.228515625
-86.0595703125
-83.31298828125
-83.31298828125
-70.49560546875
-65.00244140625
-86.0595703125
-90.63720703125
-87.890625
-80.56640625
-83.31298828125
-81.48193359375
-78.7353515625
-67.7490234375
-44.86083984375
-43.9453125
-53.1005859375
-75.0732421875
-90.63720703125
-86.0595703125
-84.228515625
-89.7216796875
-71.4111328125
-59.50927734375
-62.255859375
-63.17138671875
-65.91796875
-57.67822265625
-57.67822265625
-65.00244140625
-65.91796875
-67.7490234375
-76.904296875
-86.97509765625
-81.48193359375
-65.91796875
-65.00244140625
-70.49560546875
-81.48193359375
-91.552734375
-86.0595703125
-79.65087890625
-74.15771484375
-75.98876953125
-83.31298828125
-91.552734375
-93.3837890625
-104.3701171875
-100.7080078125
-92.46826171875
-98.876953125
-89.7216796875
-94.29931640625
-100.7080078125
-85.14404296875
-90.63720703125
-99.79248046875
-111.6943359375
-96.13037109375
-81.48193359375
-84.228515625
-84.228515625
-97.96142578125
-99.79248046875
-95.21484375
-84.228515625
-86.0595703125
-111.6943359375
-129.08935546875
-117.1875
-99.79248046875
-97.0458984375
-80.56640625
-71.4111328125
-76.904296875
-93.3837890625
-102.5390625
-94.29931640625
-86.97509765625
-97.0458984375
-126.3427734375
-141.90673828125
-129.08935546875
-115.3564453125
-108.0322265625
-90.63720703125
-83.31298828125
-113.525390625
-127.25830078125
-124.51171875
-113.525390625
-99.79248046875
-108.0322265625
-119.0185546875
-109.86328125
-90.63720703125
-75.0732421875
-70.49560546875
-82.3974609375
-101.62353515625
-124.51171875
-132.75146484375
-129.08935546875
-114.44091796875
-104.3701171875
-103.45458984375
-108.0322265625
-97.0458984375
-93.3837890625
-89.7216796875
-100.7080078125
-112.60986328125
-105.28564453125
-123.59619140625
-128.173828125
-120.849609375
-100.7080078125
-93.3837890625
-86.97509765625
-94.29931640625
-91.552734375
-117.1875
-148.3154296875
-143.73779296875
-133.6669921875
-121.76513671875
-119.0185546875
-107.11669921875
-111.6943359375
-133.6669921875
-144.6533203125
-131.8359375
-111.6943359375
-105.28564453125
-111.6943359375
-96.13037109375
-91.552734375
-79.65087890625
-73.2421875
-91.552734375
-122.6806640625
-132.75146484375
-145.56884765625
-147.39990234375
-130.0048828125
-119.0185546875
-106.201171875
-104.3701171875
-119.0185546875
-134.58251953125
-135.498046875
-116.27197265625
-100.7080078125
-106.201171875
-119.0185546875
-111.6943359375
-112.60986328125
-131.8359375
-141.90673828125
-138.24462890625
-118.10302734375
-107.11669921875
-92.46826171875
-108.0322265625
-113.525390625
-106.201171875
-111.6943359375
-93.3837890625
-81.48193359375
-67.7490234375
-68.66455078125
-60.4248046875
-57.67822265625
-37.53662109375
-18.310546875
-12.8173828125
-17.39501953125
0
30.21240234375
26.55029296875
-3.662109375
-12.8173828125
2.74658203125
0
-15.56396484375
-2.74658203125
8.23974609375
2.74658203125
15.56396484375
34.7900390625
32.958984375
19.22607421875
-1.8310546875
-4.57763671875
-21.05712890625
-54.01611328125
-72.32666015625
-89.7216796875
-94.29931640625
-105.28564453125
-97.0458984375
-86.97509765625
-85.14404296875
-80.56640625
-87.890625
-107.11669921875
-108.0322265625
-86.0595703125
-93.3837890625
-124.51171875
-151.9775390625
-156.55517578125
-128.173828125
-107.11669921875
-117.1875
-130.0048828125
-120.849609375
-119.0185546875
-128.173828125
-136.41357421875
-128.173828125
-120.849609375
-118.10302734375
-123.59619140625
-136.41357421875
-122.6806640625
-104.3701171875
-73.2421875
-27.4658203125
16.4794921875
60.4248046875
102.5390625
190.4296875
314.94140625
444.9462890625
621.64306640625
828.55224609375
1037.29248046875
1196.59423828125
1344.90966796875
1509.70458984375
1592.10205078125
1606.75048828125
1593.017578125
1558.2275390625
1389.7705078125
1157.2265625
961.3037109375
753.47900390625
473.32763671875
190.4296875
48.52294921875
3.662109375
-23.8037109375
-53.1005859375
-94.29931640625
-104.3701171875
-86.0595703125
-63.17138671875
-40.283203125
-25.634765625
-13.73291015625
-14.6484375
-29.296875
-39.36767578125
-43.02978515625
-37.53662109375
-32.04345703125
-43.02978515625
-63.17138671875
-75.0732421875
-61.34033203125
-66.83349609375
-88.80615234375
-87.890625
-72.32666015625
-61.34033203125
-60.4248046875
-74.15771484375
-83.31298828125
-86.97509765625
-76.904296875
-82.3974609375
-93.3837890625
-65.00244140625
-40.283203125
-42.1142578125
-54.931640625
-74.15771484375
-82.3974609375
-75.0732421875
-66.83349609375
-47.607421875
-42.1142578125
-38.4521484375
-32.958984375
-31.1279296875
-41.19873046875
-50.35400390625
-43.02978515625
-36.62109375
-60.4248046875
-72.32666015625
-43.9453125
-20.1416015625
-12.8173828125
-21.05712890625
-49.4384765625
-80.56640625
-82.3974609375
-51.26953125
-21.97265625
-3.662109375
-5.4931640625
-13.73291015625
-21.05712890625
-14.6484375
-16.4794921875
-15.56396484375
-13.73291015625
-1.8310546875
10.07080078125
25.634765625
18.310546875
10.986328125
1.8310546875
10.07080078125
22.88818359375
30.21240234375
31.1279296875
41.19873046875
40.283203125
19.22607421875
12.8173828125
29.296875
26.55029296875
6.40869140625
0
22.88818359375
43.9453125
66.83349609375
81.48193359375
66.83349609375
47.607421875
52.18505859375
85.14404296875
90.63720703125
75.0732421875
67.7490234375
55.84716796875
57.67822265625
85.14404296875
99.79248046875
103.45458984375
108.0322265625
119.0185546875
127.25830078125
126.3427734375
122.6806640625
124.51171875
133.6669921875
127.25830078125
99.79248046875
90.63720703125
111.6943359375
145.56884765625
154.72412109375
126.3427734375
102.5390625
95.21484375
108.0322265625
121.76513671875
128.173828125
124.51171875
126.3427734375
137.3291015625
138.24462890625
117.1875
88.80615234375
69.580078125
57.67822265625
45.7763671875
26.55029296875
15.56396484375
16.4794921875
21.97265625
21.97265625
12.8173828125
-4.57763671875
-9.1552734375
-8.23974609375
-11.90185546875
-38.4521484375
-72.32666015625
-75.98876953125
-79.65087890625
-86.97509765625
-96.13037109375
-87.890625
-78.7353515625
-86.97509765625
-97.96142578125
-99.79248046875
-97.96142578125
-103.45458984375
-114.44091796875
-110.77880859375
-119.93408203125
-147.39990234375
-152.89306640625
-140.9912109375
-124.51171875
-116.27197265625
-106.201171875
-93.3837890625
-89.7216796875
-121.76513671875
-152.89306640625
-154.72412109375
-140.07568359375
-115.3564453125
-108.94775390625
-108.0322265625
-105.28564453125
-118.10302734375
-129.08935546875
-130.0048828125
-123.59619140625
-120.849609375
-142.822265625
-149.23095703125
-152.89306640625
-135.498046875
-112.60986328125
-102.5390625
-109.86328125
-109.86328125
-97.0458984375
-98.876953125
-130.92041015625
-146.484375
-152.89306640625
-131.8359375
-123.59619140625
-111.6943359375
-102.5390625
-119.93408203125
-130.0048828125
-112.60986328125
-97.0458984375
-112.60986328125
-146.484375
-142.822265625
-119.93408203125
-114.44091796875
-109.86328125
-100.7080078125
-117.1875
-145.56884765625
-140.9912109375
-126.3427734375
-114.44091796875
-109.86328125
-119.0185546875
-116.27197265625
-110.77880859375
-114.44091796875
-118.10302734375
-109.86328125
-117.1875
-112.60986328125
-113.525390625
-112.60986328125
-108.0322265625
-119.93408203125
-122.6806640625
-123.59619140625
-128.173828125
-135.498046875
-135.498046875
-136.41357421875
-145.56884765625
-153.80859375
-144.6533203125
-123.59619140625
-103.45458984375
-108.0322265625
-133.6669921875
-153.80859375
-140.07568359375
-121.76513671875
-115.3564453125
-108.94775390625
-125.42724609375
-147.39990234375
-149.23095703125
-147.39990234375
-127.25830078125
-125.42724609375
-130.92041015625
-137.3291015625
-153.80859375
-162.9638671875
-166.6259765625
-139.16015625
-140.07568359375
-142.822265625
-151.9775390625
-161.1328125
-155.6396484375
-130.92041015625
-123.59619140625
-130.0048828125
-137.3291015625
-139.16015625
-141.90673828125
-136.41357421875
-151.9775390625
-167.54150390625
-151.06201171875
-141.90673828125
-129.08935546875
-134.58251953125
-144.6533203125
-142.822265625
-128.173828125
-139.16015625
-147.39990234375
-149.23095703125
-145.56884765625
-158.38623046875
-161.1328125
-148.3154296875
-148.3154296875
-149.23095703125
-156.55517578125
-186.767578125
-189.51416015625
-160.21728515625
-135.498046875
-122.6806640625
-127.25830078125
-138.24462890625
-157.470703125
-151.9775390625
-154.72412109375
-169.37255859375
-175.78125
-167.54150390625
-140.9912109375
-130.0048828125
-123.59619140625
-122.6806640625
-136.41357421875
-155.6396484375
-161.1328125
-153.80859375
-135.498046875
-141.90673828125
-158.38623046875
-169.37255859375
-160.21728515625
-151.06201171875
-157.470703125
-172.119140625
-194.091796875
-189.51416015625
-175.78125
-159.3017578125
-159.3017578125
-151.9775390625
-139.16015625
-136.41357421875
-132.75146484375
-130.92041015625
-131.8359375
-141.90673828125
-160.21728515625
-169.37255859375
-174.86572265625
-163.87939453125
-162.9638671875
-155.6396484375
-131.8359375
-128.173828125
-125.42724609375
-118.10302734375
-134.58251953125
-153.80859375
-181.2744140625
-194.091796875
-190.4296875
-191.34521484375
-161.1328125
-142.822265625
-156.55517578125
-176.69677734375
-177.6123046875
-169.37255859375
-153.80859375
-130.0048828125
-132.75146484375
-143.73779296875
-146.484375
-151.9775390625
-139.16015625
-123.59619140625
-126.3427734375
-133.6669921875
-130.92041015625
-119.93408203125
-132.75146484375
-133.6669921875
-134.58251953125
-123.59619140625
-113.525390625
-97.0458984375
-78.7353515625
-52.18505859375
-30.21240234375
-13.73291015625
8.23974609375
0
-7.32421875
-33.87451171875
-71.4111328125
-92.46826171875
-73.2421875
-27.4658203125
-2.74658203125
7.32421875
-3.662109375
-25.634765625
-29.296875
-35.70556640625
-33.87451171875
-32.958984375
-31.1279296875
-23.8037109375
-38.4521484375
-85.14404296875
-145.56884765625
-153.80859375
-131.8359375
-122.6806640625
-130.0048828125
-133.6669921875
-119.0185546875
-119.0185546875
-117.1875
-112.60986328125
-126.3427734375
-146.484375
-173.03466796875
-187.68310546875
-187.68310546875
-156.55517578125
-122.6806640625
-129.08935546875
-130.92041015625
-127.25830078125
-130.0048828125
-150.146484375
-151.9775390625
-145.56884765625
-142.822265625
-142.822265625
-151.06201171875
-159.3017578125
-155.6396484375
-151.9775390625
-117.1875
-73.2421875
-45.7763671875
2.74658203125
62.255859375
151.06201171875
275.57373046875
411.9873046875
567.626953125
752.5634765625
939.3310546875
1104.1259765625
1252.44140625
1429.13818359375
1562.80517578125
1600.341796875
1593.93310546875
1539.9169921875
1351.318359375
1103.21044921875
909.11865234375
703.125
451.35498046875
176.69677734375
14.6484375
-38.4521484375
-58.59375
-88.80615234375
-111.6943359375
-108.94775390625
-93.3837890625
-81.48193359375
-43.9453125
-6.40869140625
-15.56396484375
-35.70556640625
-53.1005859375
-56.7626953125
-54.931640625
-49.4384765625
-49.4384765625
-57.67822265625
-72.32666015625
-97.0458984375
-100.7080078125
-99.79248046875
-90.63720703125
-84.228515625
-86.97509765625
-97.96142578125
-98.876953125
-92.46826171875
-87.890625
-85.14404296875
-79.65087890625
-77.81982421875
-88.80615234375
-97.0458984375
-77.81982421875
-66.83349609375
-86.97509765625
-111.6943359375
-111.6943359375
-103.45458984375
-88.80615234375
-85.14404296875
-86.0595703125
-67.7490234375
-65.00244140625
-62.255859375
-63.17138671875
-75.98876953125
-82.3974609375
-84.228515625
-75.98876953125
-60.4248046875
-46.69189453125
-47.607421875
-58.59375
-66.83349609375
-65.00244140625
-52.18505859375
-36.62109375
-32.958984375
-24.71923828125
-23.8037109375
-22.88818359375
-41.19873046875
-43.02978515625
-21.97265625
-11.90185546875
-13.73291015625
-31.1279296875
-45.7763671875
-37.53662109375
-33.87451171875
-31.1279296875
-16.4794921875
3.662109375
18.310546875
17.39501953125
15.56396484375
31.1279296875
32.04345703125
16.4794921875
-13.73291015625
-32.04345703125
-17.39501953125
8.23974609375
23.8037109375
37.53662109375
53.1005859375
45.7763671875
47.607421875
56.7626953125
61.34033203125
75.0732421875
87.890625
84.228515625
69.580078125
46.69189453125
35.70556640625
47.607421875
63.17138671875
78.7353515625
91.552734375
101.62353515625
105.28564453125
103.45458984375
111.6943359375
117.1875
123.59619140625
118.10302734375
96.13037109375
86.0595703125
98.876953125
113.525390625
114.44091796875
119.93408203125
123.59619140625
129.08935546875
126.3427734375
142.822265625
144.6533203125
128.173828125
109.86328125
100.7080078125
105.28564453125
115.3564453125
116.27197265625
108.94775390625
96.13037109375
73.2421875
62.255859375
53.1005859375
51.26953125
52.18505859375
58.59375
48.52294921875
40.283203125
35.70556640625
23.8037109375
17.39501953125
-2.74658203125
-12.8173828125
-28.38134765625
-42.1142578125
-61.34033203125
-61.34033203125
-66.83349609375
-78.7353515625
-91.552734375
-83.31298828125
-76.904296875
-84.228515625
-81.48193359375
-86.97509765625
-105.28564453125
-110.77880859375
-102.5390625
-80.56640625
-86.97509765625
-97.0458984375
-89.7216796875
-94.29931640625
-120.849609375
-130.92041015625
-111.6943359375
-94.29931640625
-92.46826171875
-89.7216796875
-94.29931640625
-100.7080078125
-103.45458984375
-108.0322265625
-102.5390625
-109.86328125
-108.0322265625
-98.876953125
-80.56640625
-104.3701171875
-116.27197265625
-115.3564453125
-109.86328125
-103.45458984375
-103.45458984375
-84.228515625
-84.228515625
-93.3837890625
-86.97509765625
-69.580078125
-83.31298828125
-91.552734375
-91.552734375
-93.3837890625
-123.59619140625
-133.6669921875
-122.6806640625
-94.29931640625
-84.228515625
-83.31298828125
-78.7353515625
-81.48193359375
-71.4111328125
-62.255859375
-74.15771484375
-96.13037109375
-107.11669921875
-98.876953125
-97.96142578125
-90.63720703125
-87.890625
-84.228515625
-73.2421875
-69.580078125
-61.34033203125
-70.49560546875
-77.81982421875
-89.7216796875
-92.46826171875
-76.904296875
-63.17138671875
-77.81982421875
-85.14404296875
-82.3974609375
-72.32666015625
-82.3974609375
-87.890625
-91.552734375
-92.46826171875
-93.3837890625
-99.79248046875
-96.13037109375
-86.97509765625
-75.98876953125
-80.56640625
-84.228515625
-82.3974609375
-80.56640625
-85.14404296875
-76.904296875
-77.81982421875
-77.81982421875
-86.0595703125
-93.3837890625
-87.890625
-116.27197265625
-118.10302734375
-99.79248046875
-86.0595703125
-92.46826171875
-105.28564453125
-105.28564453125
-92.46826171875
-80.56640625
-95.21484375
-100.7080078125
-105.28564453125
-103.45458984375
-91.552734375
-71.4111328125
-62.255859375
-85.14404296875
-114.44091796875
-109.86328125
-97.0458984375
-91.552734375
-94.29931640625
-86.97509765625
-88.80615234375
-97.96142578125
-94.29931640625
-88.80615234375
-96.13037109375
-117.1875
-130.92041015625
-111.6943359375
-97.0458984375
-84.228515625
-79.65087890625
-78.7353515625
-85.14404296875
-94.29931640625
-87.890625
-92.46826171875
-101.62353515625
-98.876953125
-99.79248046875
-115.3564453125
-108.0322265625
-85.14404296875
-86.97509765625
-116.27197265625
-121.76513671875
-115.3564453125
-91.552734375
-86.0595703125
-77.81982421875
-70.49560546875
-86.0595703125
-101.62353515625
-100.7080078125
-95.21484375
-97.96142578125
-94.29931640625
-86.97509765625
-85.14404296875
-82.3974609375
-67.7490234375
-81.48193359375
-97.96142578125
-108.0322265625
-115.3564453125
-115.3564453125
-114.44091796875
-105.28564453125
-90.63720703125
-72.32666015625
-80.56640625
-94.29931640625
-97.0458984375
-82.3974609375
-72.32666015625
-76.904296875
-93.3837890625
-87.890625
-73.2421875
-58.59375
-88.80615234375
-121.76513671875
-140.07568359375
-142.822265625
-127.25830078125
-107.11669921875
-83.31298828125
-59.50927734375
-65.91796875
-94.29931640625
-99.79248046875
-83.31298828125
-74.15771484375
-66.83349609375
-85.14404296875
-99.79248046875
-86.97509765625
-78.7353515625
-67.7490234375
-70.49560546875
-72.32666015625
-77.81982421875
-81.48193359375
-99.79248046875
-100.7080078125
-88.80615234375
-76.904296875
-77.81982421875
-79.65087890625
-58.59375
-31.1279296875
-10.986328125
-6.40869140625
3.662109375
17.39501953125
32.04345703125
38.4521484375
43.9453125
59.50927734375
57.67822265625
45.7763671875
38.4521484375
43.02978515625
34.7900390625
-3.662109375
6.40869140625
36.62109375
47.607421875
39.36767578125
16.4794921875
-11.90185546875
-8.23974609375
11.90185546875
-1.8310546875
-4.57763671875
-12.8173828125
-29.296875
-48.52294921875
-60.4248046875
-58.59375
-65.91796875
-70.49560546875
-57.67822265625
-54.01611328125
-63.17138671875
-71.4111328125
-67.7490234375
-51.26953125
-58.59375
-76.904296875
-82.3974609375
-65.00244140625
-65.00244140625
-76.904296875
-102.5390625
-117.1875
-119.0185546875
-105.28564453125
-81.48193359375
-59.50927734375
-47.607421875
-51.26953125
-73.2421875
-87.890625
-88.80615234375
-75.0732421875
-32.958984375
23.8037109375
54.01611328125
82.3974609375
139.16015625
232.5439453125
329.58984375
463.2568359375
632.62939453125
810.24169921875
1001.5869140625
1178.28369140625
1311.95068359375
1490.478515625
1602.1728515625
1648.86474609375
1649.7802734375
1626.89208984375
1507.87353515625
1249.69482421875
1034.5458984375
834.04541015625
620.7275390625
369.873046875
208.740234375
139.16015625
83.31298828125
30.21240234375
-13.73291015625
-26.55029296875
-54.01611328125
-44.86083984375
-16.4794921875
-10.07080078125
11.90185546875
37.53662109375
48.52294921875
35.70556640625
29.296875
23.8037109375
18.310546875
0.91552734375
-10.986328125
-9.1552734375
-15.56396484375
-23.8037109375
-10.986328125
-1.8310546875
6.40869140625
3.662109375
-10.986328125
-24.71923828125
-32.958984375
-21.05712890625
-4.57763671875
-12.8173828125
-21.05712890625
-5.4931640625
-7.32421875
4.57763671875
7.32421875
16.4794921875
13.73291015625
7.32421875
10.986328125
6.40869140625
-5.4931640625
-2.74658203125
7.32421875
10.986328125
5.4931640625
13.73291015625
21.05712890625
10.986328125
9.1552734375
21.97265625
38.4521484375
43.02978515625
38.4521484375
38.4521484375
48.52294921875
43.02978515625
30.21240234375
20.1416015625
30.21240234375
38.4521484375
53.1005859375
68.66455078125
46.69189453125
18.310546875
2.74658203125
23.8037109375
54.01611328125
74.15771484375
78.7353515625
72.32666015625
60.4248046875
57.67822265625
62.255859375
86.0595703125
97.96142578125
83.31298828125
64.0869140625
70.49560546875
94.29931640625
109.86328125
108.94775390625
105.28564453125
105.28564453125
112.60986328125
120.849609375
120.849609375
115.3564453125
125.42724609375
130.92041015625
134.58251953125
129.08935546875
128.173828125
133.6669921875
135.498046875
136.41357421875
137.3291015625
151.9775390625
168.45703125
149.23095703125
136.41357421875
154.72412109375
178.52783203125
193.17626953125
165.71044921875
135.498046875
128.173828125
165.71044921875
201.416015625
211.48681640625
218.81103515625
199.5849609375
171.20361328125
154.72412109375
166.6259765625
184.9365234375
192.2607421875
198.66943359375
211.48681640625
214.2333984375
212.40234375
192.2607421875
176.69677734375
160.21728515625
160.21728515625
163.87939453125
168.45703125
169.37255859375
151.9775390625
144.6533203125
137.3291015625
128.173828125
130.92041015625
109.86328125
94.29931640625
97.0458984375
93.3837890625
46.69189453125
-19.22607421875
-30.21240234375
-10.986328125
7.32421875
17.39501953125
37.53662109375
30.21240234375
14.6484375
12.8173828125
4.57763671875
-12.8173828125
-11.90185546875
0.91552734375
5.4931640625
-14.6484375
-17.39501953125
-13.73291015625
-19.22607421875
-28.38134765625
-41.19873046875
-40.283203125
-36.62109375
-49.4384765625
-48.52294921875
-53.1005859375
-64.0869140625
-56.7626953125
-36.62109375
-27.4658203125
-24.71923828125
-24.71923828125
-27.4658203125
-32.958984375
-28.38134765625
-23.8037109375
-23.8037109375
-39.36767578125
-39.36767578125
-30.21240234375
-44.86083984375
-83.31298828125
-82.3974609375
-54.931640625
-24.71923828125
-1.8310546875
2.74658203125
-27.4658203125
-55.84716796875
-57.67822265625
-33.87451171875
-15.56396484375
-7.32421875
-22.88818359375
-22.88818359375
-13.73291015625
-18.310546875
-11.90185546875
-14.6484375
-37.53662109375
-55.84716796875
-42.1142578125
-28.38134765625
-27.4658203125
-27.4658203125
-17.39501953125
-10.07080078125
-12.8173828125
-12.8173828125
-11.90185546875
1.8310546875
-15.56396484375
-61.34033203125
-73.2421875
-62.255859375
-45.7763671875
-43.02978515625
-45.7763671875
-38.4521484375
-34.7900390625
-28.38134765625
-25.634765625
-24.71923828125
-8.23974609375
-10.07080078125
-10.986328125
-15.56396484375
-8.23974609375
-15.56396484375
-47.607421875
-80.56640625
-76.904296875
-58.59375
-43.02978515625
-32.958984375
-26.55029296875
-29.296875
-35.70556640625
-37.53662109375
-41.19873046875
-57.67822265625
-47.607421875
-23.8037109375
-23.8037109375
-29.296875
-33.87451171875
-40.283203125
-58.59375
-64.0869140625
-69.580078125
-66.83349609375
-54.931640625
-51.26953125
-45.7763671875
-18.310546875
-21.97265625
-52.18505859375
-72.32666015625
-70.49560546875
-49.4384765625
-42.1142578125
-45.7763671875
-48.52294921875
-48.52294921875
-53.1005859375
-43.9453125
-33.87451171875
-41.19873046875
-49.4384765625
-57.67822265625
-77.81982421875
-84.228515625
-75.0732421875
-66.83349609375
-54.931640625
-52.18505859375
-36.62109375
-32.958984375
-50.35400390625
-70.49560546875
-86.0595703125
-90.63720703125
-78.7353515625
-51.26953125
-41.19873046875
-32.04345703125
-34.7900390625
-32.958984375
-35.70556640625
-56.7626953125
-54.01611328125
-50.35400390625
-52.18505859375
-69.580078125
-85.14404296875
-68.66455078125
-53.1005859375
-46.69189453125
-45.7763671875
-54.931640625
-62.255859375
-71.4111328125
-69.580078125
-54.931640625
-46.69189453125
-55.84716796875
-69.580078125
-65.00244140625
-53.1005859375
-57.67822265625
-54.931640625
-49.4384765625
-65.91796875
-76.904296875
-86.97509765625
-83.31298828125
-68.66455078125
-43.9453125
-39.36767578125
-40.283203125
-51.26953125
-79.65087890625
-92.46826171875
-69.580078125
-58.59375
-58.59375
-56.7626953125
-54.01611328125
-53.1005859375
-51.26953125
-48.52294921875
-52.18505859375
-37.53662109375
-12.8173828125
0
-7.32421875
-32.04345703125
-63.17138671875
-41.19873046875
-15.56396484375
0.91552734375
26.55029296875
59.50927734375
51.26953125
4.57763671875
-19.22607421875
-26.55029296875
2.74658203125
30.21240234375
37.53662109375
49.4384765625
23.8037109375
-0.91552734375
-5.4931640625
-2.74658203125
12.8173828125
12.8173828125
-13.73291015625
-42.1142578125
-43.9453125
-35.70556640625
-20.1416015625
-7.32421875
-4.57763671875
-37.53662109375
-59.50927734375
-84.228515625
-66.83349609375
-56.7626953125
-64.0869140625
-54.931640625
-37.53662109375
-44.86083984375
-53.1005859375
-57.67822265625
-55.84716796875
-54.01611328125
-65.00244140625
-96.13037109375
-90.63720703125
-71.4111328125
-52.18505859375
-46.69189453125
-47.607421875
-54.931640625
-57.67822265625
-54.01611328125
-56.7626953125
-54.01611328125
-56.7626953125
-61.34033203125
-36.62109375
21.05712890625
83.31298828125
131.8359375
180.35888671875
242.61474609375
346.0693359375
487.060546875
641.78466796875
828.55224609375
1018.98193359375
1194.76318359375
1344.90966796875
1491.39404296875
1595.76416015625
1635.1318359375
1658.02001953125
1658.02001953125
1556.396484375
1319.27490234375
1105.95703125
908.203125
674.74365234375
380.859375
158.38623046875
87.890625
61.34033203125
24.71923828125
-2.74658203125
-11.90185546875
-1.8310546875
9.1552734375
28.38134765625
70.49560546875
76.904296875
43.02978515625
19.22607421875
22.88818359375
32.04345703125
42.1142578125
54.01611328125
56.7626953125
43.02978515625
10.07080078125
-13.73291015625
-14.6484375
9.1552734375
27.4658203125
10.986328125
-12.8173828125
-5.4931640625
18.310546875
36.62109375
39.36767578125
40.283203125
32.04345703125
15.56396484375
-11.90185546875
-34.7900390625
-32.04345703125
-4.57763671875
26.55029296875
34.7900390625
39.36767578125
44.86083984375
29.296875
9.1552734375
16.4794921875
28.38134765625
27.4658203125
29.296875
51.26953125
58.59375
43.9453125
14.6484375
-0.91552734375
17.39501953125
24.71923828125
32.04345703125
43.02978515625
49.4384765625
49.4384765625
60.4248046875
76.904296875
74.15771484375
56.7626953125
59.50927734375
81.48193359375
73.2421875
58.59375
67.7490234375
65.00244140625
48.52294921875
60.4248046875
76.904296875
84.228515625
80.56640625
87.890625
94.29931640625
97.96142578125
110.77880859375
134.58251953125
130.0048828125
95.21484375
60.4248046875
65.00244140625
89.7216796875
99.79248046875
108.94775390625
130.92041015625
141.90673828125
129.08935546875
119.93408203125
126.3427734375
122.6806640625
118.10302734375
119.0185546875
149.23095703125
168.45703125
156.55517578125
153.80859375
162.04833984375
173.03466796875
172.119140625
172.119140625
179.443359375
173.9501953125
177.6123046875
194.091796875
192.2607421875
166.6259765625
176.69677734375
182.18994140625
201.416015625
205.078125
195.00732421875
154.72412109375
165.71044921875
206.9091796875
211.48681640625
188.5986328125
192.2607421875
195.9228515625
205.078125
195.00732421875
167.54150390625
150.146484375
158.38623046875
178.52783203125
187.68310546875
182.18994140625
179.443359375
163.87939453125
150.146484375
138.24462890625
137.3291015625
120.849609375
84.228515625
66.83349609375
68.66455078125
75.98876953125
69.580078125
70.49560546875
52.18505859375
6.40869140625
-19.22607421875
-3.662109375
16.4794921875
7.32421875
-13.73291015625
-25.634765625
-26.55029296875
-40.283203125
-58.59375
-57.67822265625
-43.9453125
-34.7900390625
-33.87451171875
-33.87451171875
-36.62109375
-42.1142578125
-58.59375
-68.66455078125
-54.01611328125
-65.00244140625
-75.98876953125
-74.15771484375
-67.7490234375
-60.4248046875
-59.50927734375
-54.931640625
-55.84716796875
-63.17138671875
-65.00244140625
-60.4248046875
-50.35400390625
-58.59375
-57.67822265625
-58.59375
-52.18505859375
-43.02978515625
-57.67822265625
-81.48193359375
-87.890625
-70.49560546875
-64.0869140625
-82.3974609375
-101.62353515625
-88.80615234375
-51.26953125
-43.9453125
-54.931640625
-52.18505859375
-42.1142578125
-48.52294921875
-43.9453125
-44.86083984375
-60.4248046875
-59.50927734375
-65.00244140625
-76.904296875
-70.49560546875
-60.4248046875
-47.607421875
-25.634765625
-16.4794921875
-37.53662109375
-82.3974609375
-96.13037109375
-75.98876953125
-54.931640625
-66.83349609375
-60.4248046875
-47.607421875
-43.02978515625
-44.86083984375
-54.01611328125
-54.01611328125
-62.255859375
-86.97509765625
-88.80615234375
-78.7353515625
-60.4248046875
-40.283203125
-26.55029296875
-43.9453125
-78.7353515625
-87.890625
-88.80615234375
-61.34033203125
-35.70556640625
-32.958984375
-48.52294921875
-59.50927734375
-75.98876953125
-87.890625
-94.29931640625
-90.63720703125
-79.65087890625
-88.80615234375
-81.48193359375
-54.931640625
-40.283203125
-52.18505859375
-48.52294921875
-49.4384765625
-44.86083984375
-64.0869140625
-95.21484375
-116.27197265625
-104.3701171875
-75.98876953125
-78.7353515625
-65.91796875
-54.931640625
-60.4248046875
-97.96142578125
-131.8359375
-108.0322265625
-87.890625
-80.56640625
-81.48193359375
-81.48193359375
-86.0595703125
-74.15771484375
-76.904296875
-97.96142578125
-108.94775390625
-97.0458984375
-82.3974609375
-90.63720703125
-97.96142578125
-81.48193359375
-73.2421875
-82.3974609375
-86.97509765625
-92.46826171875
-91.552734375
-89.7216796875
-80.56640625
-71.4111328125
-76.904296875
-86.0595703125
-66.83349609375
-71.4111328125
-104.3701171875
-118.10302734375
-116.27197265625
-109.86328125
-92.46826171875
-86.97509765625
-86.97509765625
-97.0458984375
-89.7216796875
-88.80615234375
-88.80615234375
-91.552734375
-92.46826171875
-92.46826171875
-76.904296875
-73.2421875
-74.15771484375
-82.3974609375
-85.14404296875
-101.62353515625
-93.3837890625
-101.62353515625
-127.25830078125
-119.0185546875
-99.79248046875
-100.7080078125
-108.0322265625
-103.45458984375
-85.14404296875
-86.0595703125
-107.11669921875
-98.876953125
-78.7353515625
-90.63720703125
-100.7080078125
-96.13037109375
-95.21484375
-80.56640625
-62.255859375
-56.7626953125
-65.00244140625
-64.0869140625
-60.4248046875
-56.7626953125
-56.7626953125
-53.1005859375
-54.931640625
-42.1142578125
-23.8037109375
-10.986328125
-21.97265625
-25.634765625
-13.73291015625
-23.8037109375
-21.05712890625
-21.97265625
-2.74658203125
-8.23974609375
-23.8037109375
-40.283203125
-65.00244140625
-54.931640625
-50.35400390625
-59.50927734375
-50.35400390625
-35.70556640625
-21.97265625
-37.53662109375
-64.0869140625
-59.50927734375
-48.52294921875
-53.1005859375
-55.84716796875
-75.0732421875
-79.65087890625
-73.2421875
-74.15771484375
-86.0595703125
-91.552734375
-89.7216796875
-96.13037109375
-123.59619140625
-138.24462890625
-117.1875
-86.0595703125
-73.2421875
-91.552734375
-110.77880859375
-105.28564453125
-103.45458984375
-92.46826171875
-80.56640625
-94.29931640625
-109.86328125
-105.28564453125
-100.7080078125
-106.201171875
-103.45458984375
-79.65087890625
-66.83349609375
-54.01611328125
-10.07080078125
42.1142578125
86.97509765625
127.25830078125
198.66943359375
308.53271484375
430.2978515625
584.1064453125
769.04296875
947.57080078125
1114.19677734375
1283.5693359375
1467.59033203125
1617.73681640625
1664.4287109375
1645.20263671875
1591.1865234375
1436.46240234375
1189.27001953125
991.51611328125
821.22802734375
568.54248046875
249.0234375
41.19873046875
-3.662109375
-12.8173828125
-31.1279296875
-20.1416015625
-47.607421875
-71.4111328125
-53.1005859375
-12.8173828125
30.21240234375
34.7900390625
32.958984375
17.39501953125
-10.986328125
-20.1416015625
-21.05712890625
-19.22607421875
-11.90185546875
-5.4931640625
-0.91552734375
-7.32421875
-24.71923828125
-37.53662109375
-30.21240234375
-29.296875
-31.1279296875
-33.87451171875
-22.88818359375
-17.39501953125
-8.23974609375
-32.958984375
-55.84716796875
-53.1005859375
-49.4384765625
-42.1142578125
-48.52294921875
-37.53662109375
-16.4794921875
-6.40869140625
0
13.73291015625
23.8037109375
21.97265625
-7.32421875
-52.18505859375
-58.59375
-38.4521484375
-16.4794921875
-13.73291015625
-18.310546875
-12.8173828125
8.23974609375
15.56396484375
14.6484375
7.32421875
13.73291015625
21.05712890625
21.97265625
30.21240234375
32.04345703125
27.4658203125
23.8037109375
23.8037109375
32.958984375
34.7900390625
29.296875
21.97265625
21.97265625
46.69189453125
64.0869140625
25.634765625
-13.73291015625
-25.634765625
-0.91552734375
31.1279296875
47.607421875
66.83349609375
79.65087890625
78.7353515625
75.98876953125
86.0595703125
97.0458984375
93.3837890625
84.228515625
81.48193359375
75.0732421875
54.01611328125
51.26953125
67.7490234375
84.228515625
97.0458984375
101.62353515625
99.79248046875
105.28564453125
115.3564453125
125.42724609375
128.173828125
134.58251953125
127.25830078125
135.498046875
133.6669921875
127.25830078125
132.75146484375
126.3427734375
115.3564453125
113.525390625
124.51171875
158.38623046875
173.9501953125
159.3017578125
136.41357421875
141.90673828125
148.3154296875
162.04833984375
172.119140625
164.794921875
158.38623046875
145.56884765625
145.56884765625
153.80859375
155.6396484375
160.21728515625
171.20361328125
173.03466796875
148.3154296875
145.56884765625
145.56884765625
143.73779296875
119.0185546875
88.80615234375
86.0595703125
83.31298828125
88.80615234375
89.7216796875
75.98876953125
66.83349609375
54.01611328125
43.02978515625
22.88818359375
0
-7.32421875
-7.32421875
-10.07080078125
-15.56396484375
-15.56396484375
-25.634765625
-58.59375
-97.0458984375
-106.201171875
-79.65087890625
-63.17138671875
-65.00244140625
-64.0869140625
-67.7490234375
-54.01611328125
-46.69189453125
-42.1142578125
-34.7900390625
-32.04345703125
-59.50927734375
-61.34033203125
-73.2421875
-94.29931640625
-89.7216796875
-78.7353515625
-86.0595703125
-96.13037109375
-87.890625
-59.50927734375
-39.36767578125
-49.4384765625
-75.0732421875
-94.29931640625
-93.3837890625
-58.59375
-62.255859375
-71.4111328125
-59.50927734375
-68.66455078125
-80.56640625
-71.4111328125
-66.83349609375
-65.00244140625
-62.255859375
-57.67822265625
-59.50927734375
-70.49560546875
-103.45458984375
-129.08935546875
-109.86328125
-72.32666015625
-37.53662109375
-21.05712890625
-27.4658203125
-43.9453125
-54.01611328125
-63.17138671875
-71.4111328125
-67.7490234375
-50.35400390625
-36.62109375
-54.931640625
-86.0595703125
-88.80615234375
-73.2421875
-60.4248046875
-53.1005859375
-51.26953125
-43.02978515625
-54.01611328125
-54.01611328125
-43.02978515625
-38.4521484375
-58.59375
-74.15771484375
-57.67822265625
-42.1142578125
-55.84716796875
-55.84716796875
-45.7763671875
-68.66455078125
-105.28564453125
-78.7353515625
-57.67822265625
-55.84716796875
-56.7626953125
-61.34033203125
-57.67822265625
-63.17138671875
-54.01611328125
-34.7900390625
-43.9453125
-58.59375
-54.01611328125
-61.34033203125
-75.98876953125
-87.890625
-76.904296875
-75.0732421875
-74.15771484375
-69.580078125
-55.84716796875
-51.26953125
-33.87451171875
-45.7763671875
-67.7490234375
-72.32666015625
-76.904296875
-91.552734375
-108.0322265625
-108.94775390625
-93.3837890625
-70.49560546875
-60.4248046875
-33.87451171875
-40.283203125
-66.83349609375
-84.228515625
-88.80615234375
-87.890625
-84.228515625
-94.29931640625
-86.97509765625
-75.98876953125
-54.931640625
-54.931640625
-62.255859375
-71.4111328125
-78.7353515625
-65.00244140625
-56.7626953125
-54.01611328125
-65.00244140625
-80.56640625
-88.80615234375
-84.228515625
-80.56640625
-69.580078125
-61.34033203125
-65.91796875
-64.0869140625
-61.34033203125
-74.15771484375
-87.890625
-81.48193359375
-78.7353515625
-77.81982421875
-78.7353515625
-69.580078125
-65.91796875
-56.7626953125
-46.69189453125
-53.1005859375
-64.0869140625
-87.890625
-109.86328125
-119.0185546875
-97.0458984375
-80.56640625
-78.7353515625
-67.7490234375
-64.0869140625
-63.17138671875
-70.49560546875
-63.17138671875
-62.255859375
-51.26953125
-37.53662109375
-47.607421875
-62.255859375
-69.580078125
-75.0732421875
-75.0732421875
-68.66455078125
-46.69189453125
-22.88818359375
-32.04345703125
-33.87451171875
-28.38134765625
-31.1279296875
-43.02978515625
-54.931640625
-54.01611328125
-21.97265625
6.40869140625
29.296875
33.87451171875
41.19873046875
47.607421875
27.4658203125
-2.74658203125
-4.57763671875
11.90185546875
1.8310546875
-10.07080078125
-8.23974609375
4.57763671875
9.1552734375
10.07080078125
0.91552734375
-20.1416015625
-26.55029296875
-24.71923828125
-17.39501953125
-15.56396484375
-39.36767578125
-72.32666015625
-73.2421875
-77.81982421875
-77.81982421875
-65.91796875
-49.4384765625
-54.01611328125
-60.4248046875
-46.69189453125
-43.9453125
-33.87451171875
-43.9453125
-72.32666015625
-82.3974609375
-76.904296875
-65.91796875
-53.1005859375
-54.01611328125
-55.84716796875
-58.59375
-60.4248046875
-76.904296875
-75.98876953125
-84.228515625
-92.46826171875
-86.0595703125
-60.4248046875
-38.4521484375
-4.57763671875
47.607421875
93.3837890625
127.25830078125
156.55517578125
196.83837890625
290.22216796875
422.9736328125
565.7958984375
741.5771484375
935.6689453125
1135.25390625
1297.30224609375
1464.84375
1593.93310546875
1642.4560546875
1633.30078125
1627.8076171875
1549.072265625
1340.33203125
1121.52099609375
905.45654296875
701.2939453125
444.9462890625
244.44580078125
167.54150390625
131.8359375
65.00244140625
-23.8037109375
-78.7353515625
-84.228515625
-37.53662109375
-0.91552734375
34.7900390625
65.00244140625
84.228515625
72.32666015625
62.255859375
43.02978515625
39.36767578125
32.958984375
16.4794921875
7.32421875
7.32421875
20.1416015625
19.22607421875
9.1552734375
11.90185546875
6.40869140625
10.986328125
-4.57763671875
-4.57763671875
20.1416015625
29.296875
25.634765625
19.22607421875
8.23974609375
6.40869140625
6.40869140625
21.05712890625
32.04345703125
23.8037109375
-0.91552734375
10.07080078125
16.4794921875
9.1552734375
13.73291015625
18.310546875
3.662109375
10.07080078125
29.296875
43.02978515625
44.86083984375
64.0869140625
62.255859375
26.55029296875
11.90185546875
27.4658203125
41.19873046875
38.4521484375
36.62109375
69.580078125
64.0869140625
40.283203125
32.958984375
44.86083984375
43.9453125
20.1416015625
27.4658203125
64.0869140625
95.21484375
90.63720703125
84.228515625
80.56640625
85.14404296875
80.56640625
84.228515625
89.7216796875
98.876953125
108.0322265625
105.28564453125
100.7080078125
103.45458984375
111.6943359375
107.11669921875
105.28564453125
116.27197265625
129.08935546875
122.6806640625
120.849609375
117.1875
112.60986328125
108.94775390625
117.1875
126.3427734375
125.42724609375
143.73779296875
150.146484375
151.06201171875
157.470703125
153.80859375
154.72412109375
165.71044921875
182.18994140625
191.34521484375
184.9365234375
146.484375
140.9912109375
156.55517578125
157.470703125
170.2880859375
167.54150390625
157.470703125
183.10546875
205.078125
218.81103515625
221.5576171875
228.8818359375
209.65576171875
186.767578125
188.5986328125
192.2607421875
188.5986328125
192.2607421875
197.75390625
200.50048828125
201.416015625
189.51416015625
188.5986328125
168.45703125
155.6396484375
151.06201171875
147.39990234375
133.6669921875
113.525390625
89.7216796875
83.31298828125
84.228515625
97.0458984375
92.46826171875
76.904296875
64.0869140625
48.52294921875
37.53662109375
27.4658203125
10.07080078125
-7.32421875
-9.1552734375
-27.4658203125
-21.97265625
-18.310546875
-13.73291015625
-10.07080078125
-10.986328125
-2.74658203125
1.8310546875
4.57763671875
13.73291015625
1.8310546875
-24.71923828125
-48.52294921875
-54.01611328125
-45.7763671875
-35.70556640625
-48.52294921875
-63.17138671875
-54.01611328125
-48.52294921875
-32.04345703125
-26.55029296875
-33.87451171875
-44.86083984375
-31.1279296875
-37.53662109375
-56.7626953125
-50.35400390625
-24.71923828125
-10.07080078125
-21.05712890625
-16.4794921875
-32.04345703125
-56.7626953125
-56.7626953125
-41.19873046875
-43.9453125
-50.35400390625
-48.52294921875
-40.283203125
-36.62109375
-30.21240234375
-24.71923828125
-5.4931640625
-9.1552734375
-29.296875
-37.53662109375
-26.55029296875
-19.22607421875
-33.87451171875
-41.19873046875
-31.1279296875
-35.70556640625
-54.931640625
-34.7900390625
-3.662109375
-10.07080078125
-32.04345703125
-48.52294921875
-75.0732421875
-65.91796875
-35.70556640625
-26.55029296875
-29.296875
-25.634765625
-2.74658203125
-13.73291015625
-24.71923828125
-13.73291015625
-2.74658203125
-11.90185546875
-27.4658203125
-47.607421875
-61.34033203125
-45.7763671875
-32.958984375
-23.8037109375
-8.23974609375
-22.88818359375
-28.38134765625
-20.1416015625
-32.958984375
-36.62109375
-29.296875
-32.04345703125
-34.7900390625
-24.71923828125
-21.97265625
-20.1416015625
-41.19873046875
-55.84716796875
-75.0732421875
-95.21484375
-86.0595703125
-50.35400390625
-33.87451171875
-39.36767578125
-45.7763671875
-43.9453125
-32.04345703125
-23.8037109375
-29.296875
-47.607421875
-48.52294921875
-38.4521484375
-39.36767578125
-50.35400390625
-48.52294921875
-42.1142578125
-57.67822265625
-58.59375
-33.87451171875
-45.7763671875
-82.3974609375
-81.48193359375
-56.7626953125
-41.19873046875
-42.1142578125
-35.70556640625
-62.255859375
-112.60986328125
-113.525390625
-82.3974609375
-53.1005859375
-56.7626953125
-40.283203125
-13.73291015625
-22.88818359375
-54.931640625
-75.0732421875
-55.84716796875
-42.1142578125
-33.87451171875
-29.296875
-51.26953125
-76.904296875
-65.00244140625
-73.2421875
-74.15771484375
-80.56640625
-71.4111328125
-63.17138671875
-65.00244140625
-75.0732421875
-63.17138671875
-43.9453125
-39.36767578125
-64.0869140625
-94.29931640625
-97.0458984375
-85.14404296875
-66.83349609375
-43.9453125
-35.70556640625
-52.18505859375
-60.4248046875
-47.607421875
-24.71923828125
-11.90185546875
-34.7900390625
-53.1005859375
-49.4384765625
-21.97265625
-13.73291015625
-21.97265625
-19.22607421875
-10.07080078125
-3.662109375
22.88818359375
39.36767578125
45.7763671875
36.62109375
13.73291015625
-0.91552734375
0.91552734375
9.1552734375
2.74658203125
-1.8310546875
-7.32421875
-10.07080078125
-8.23974609375
-30.21240234375
-49.4384765625
-45.7763671875
-37.53662109375
-43.9453125
-26.55029296875
-19.22607421875
-17.39501953125
-30.21240234375
-29.296875
-38.4521484375
-67.7490234375
-66.83349609375
-65.91796875
-92.46826171875
-94.29931640625
-88.80615234375
-69.580078125
-59.50927734375
-63.17138671875
-58.59375
-51.26953125
-62.255859375
-62.255859375
-47.607421875
-43.02978515625
-59.50927734375
-75.0732421875
-91.552734375
-93.3837890625
-80.56640625
-89.7216796875
-104.3701171875
-83.31298828125
-56.7626953125
-61.34033203125
-46.69189453125
4.57763671875
73.2421875
112.60986328125
150.146484375
236.2060546875
346.98486328125
462.34130859375
614.31884765625
815.73486328125
1021.728515625
1201.171875
1352.23388671875
1515.19775390625
1623.22998046875
1658.935546875
1669.00634765625
1658.935546875
1509.70458984375
1230.46875
1005.2490234375
814.8193359375
590.51513671875
303.955078125
123.59619140625
53.1005859375
20.1416015625
-16.4794921875
-35.70556640625
-56.7626953125
-50.35400390625
-31.1279296875
-3.662109375
32.958984375
73.2421875
63.17138671875
40.283203125
29.296875
19.22607421875
12.8173828125
0.91552734375
1.8310546875
8.23974609375
-1.8310546875
-12.8173828125
-21.97265625
-40.283203125
-50.35400390625
-38.4521484375
-17.39501953125
-18.310546875
-9.1552734375
1.8310546875
-3.662109375
-13.73291015625
-18.310546875
-29.296875
-44.86083984375
-58.59375
-66.83349609375
-51.26953125
-31.1279296875
-16.4794921875
-2.74658203125
10.07080078125
15.56396484375
-10.07080078125
-21.97265625
-10.07080078125
21.97265625
20.1416015625
12.8173828125
-3.662109375
2.74658203125
27.4658203125
17.39501953125
10.07080078125
8.23974609375
7.32421875
-5.4931640625
-6.40869140625
2.74658203125
7.32421875
9.1552734375
19.22607421875
33.87451171875
45.7763671875
35.70556640625
16.4794921875
26.55029296875
37.53662109375
49.4384765625
47.607421875
15.56396484375
-9.1552734375
6.40869140625
28.38134765625
49.4384765625
67.7490234375
86.97509765625
94.29931640625
83.31298828125
69.580078125
62.255859375
56.7626953125
66.83349609375
89.7216796875
83.31298828125
68.66455078125
76.904296875
97.96142578125
83.31298828125
66.83349609375
67.7490234375
83.31298828125
108.0322265625
108.94775390625
119.0185546875
130.92041015625
134.58251953125
143.73779296875
151.9775390625
153.80859375
140.9912109375
129.08935546875
122.6806640625
121.76513671875
111.6943359375
116.27197265625
134.58251953125
149.23095703125
162.9638671875
171.20361328125
161.1328125
154.72412109375
133.6669921875
135.498046875
168.45703125
193.17626953125
185.85205078125
151.9775390625
134.58251953125
137.3291015625
146.484375
143.73779296875
149.23095703125
157.470703125
154.72412109375
155.6396484375
160.21728515625
139.16015625
114.44091796875
104.3701171875
99.79248046875
94.29931640625
85.14404296875
65.00244140625
42.1142578125
34.7900390625
34.7900390625
32.958984375
23.8037109375
-10.07080078125
-43.02978515625
-35.70556640625
-32.04345703125
-53.1005859375
-65.00244140625
-61.34033203125
-59.50927734375
-57.67822265625
-32.958984375
-40.283203125
-64.0869140625
-75.0732421875
-80.56640625
-82.3974609375
-73.2421875
-79.65087890625
-86.0595703125
-90.63720703125
-92.46826171875
-80.56640625
-75.0732421875
-68.66455078125
-70.49560546875
-73.2421875
-81.48193359375
-80.56640625
-75.0732421875
-69.580078125
-76.904296875
-96.13037109375
-111.6943359375
-108.94775390625
-110.77880859375
-118.10302734375
-97.96142578125
-75.98876953125
-77.81982421875
-93.3837890625
-104.3701171875
-99.79248046875
-80.56640625
-75.98876953125
-77.81982421875
-88.80615234375
-83.31298828125
-84.228515625
-84.228515625
-71.4111328125
-78.7353515625
-91.552734375
-97.0458984375
-91.552734375
-76.904296875
-66.83349609375
-55.84716796875
-56.7626953125
-58.59375
-58.59375
-73.2421875
-104.3701171875
-105.28564453125
-80.56640625
-54.01611328125
-65.00244140625
-72.32666015625
-64.0869140625
-73.2421875
-80.56640625
-72.32666015625
-78.7353515625
-79.65087890625
-77.81982421875
-72.32666015625
-69.580078125
-62.255859375
-59.50927734375
-60.4248046875
-65.00244140625
-61.34033203125
-56.7626953125
-56.7626953125
-61.34033203125
-73.2421875
-86.0595703125
-95.21484375
-86.0595703125
-86.0595703125
-112.60986328125
-119.0185546875
-117.1875
-108.0322265625
-93.3837890625
-62.255859375
-42.1142578125
-64.0869140625
-77.81982421875
-86.0595703125
-82.3974609375
-98.876953125
-103.45458984375
-97.0458984375
-83.31298828125
-81.48193359375
-90.63720703125
-91.552734375
-90.63720703125
-89.7216796875
-97.96142578125
-98.876953125
-96.13037109375
-97.0458984375
-90.63720703125
-78.7353515625
-76.904296875
-76.904296875
-93.3837890625
-126.3427734375
-136.41357421875
-116.27197265625
-97.96142578125
-90.63720703125
-98.876953125
-108.94775390625
-113.525390625
-126.3427734375
-138.24462890625
-122.6806640625
-97.0458984375
-97.96142578125
-109.86328125
-104.3701171875
-105.28564453125
-108.0322265625
-89.7216796875
-93.3837890625
-104.3701171875
-99.79248046875
-101.62353515625
-97.0458984375
-106.201171875
-116.27197265625
-100.7080078125
-104.3701171875
-118.10302734375
-111.6943359375
-99.79248046875
-96.13037109375
-97.0458984375
-100.7080078125
-108.0322265625
-119.0185546875
-130.92041015625
-142.822265625
-146.484375
-137.3291015625
-113.525390625
-100.7080078125
-97.0458984375
-110.77880859375
-124.51171875
-131.8359375
-124.51171875
-116.27197265625
-88.80615234375
-71.4111328125
-77.81982421875
-97.0458984375
-106.201171875
-101.62353515625
-97.96142578125
-91.552734375
-100.7080078125
-126.3427734375
-103.45458984375
-79.65087890625
-68.66455078125
-38.4521484375
-32.958984375
-33.87451171875
-54.01611328125
-76.904296875
-87.890625
-81.48193359375
-67.7490234375
-58.59375
-38.4521484375
-38.4521484375
-59.50927734375
-45.7763671875
-21.97265625
-10.07080078125
-11.90185546875
-47.607421875
-88.80615234375
-104.3701171875
-86.97509765625
-51.26953125
-32.04345703125
-35.70556640625
-73.2421875
-100.7080078125
-92.46826171875
-52.18505859375
-54.01611328125
-89.7216796875
-109.86328125
-114.44091796875
-96.13037109375
-97.0458984375
-89.7216796875
-87.890625
-104.3701171875
-107.11669921875
-110.77880859375
-107.11669921875
-127.25830078125
-128.173828125
-122.6806640625
-105.28564453125
-100.7080078125
-113.525390625
-117.1875
-116.27197265625
-97.0458984375
-89.7216796875
-75.0732421875
-95.21484375
-147.39990234375
-183.10546875
-177.6123046875
-138.24462890625
-108.94775390625
-78.7353515625
-50.35400390625
-18.310546875
31.1279296875
83.31298828125
122.6806640625
166.6259765625
254.5166015625
370.78857421875
532.8369140625
737.9150390625
955.810546875
1145.32470703125
1300.048828125
1462.09716796875
1610.41259765625
1645.20263671875
1623.22998046875
1563.720703125
1398.01025390625
1137.0849609375
927.42919921875
736.99951171875
525.5126953125
262.75634765625
35.70556640625
-36.62109375
-49.4384765625
-65.00244140625
-58.59375
-54.931640625
-39.36767578125
-30.21240234375
-11.90185546875
-5.4931640625
-10.986328125
-10.986328125
-8.23974609375
-10.07080078125
-10.986328125
-20.1416015625
-37.53662109375
-43.02978515625
-38.4521484375
-11.90185546875
-12.8173828125
-36.62109375
-66.83349609375
-75.0732421875
-57.67822265625
-46.69189453125
-65.91796875
-67.7490234375
-56.7626953125
-47.607421875
-43.9453125
-32.04345703125
-31.1279296875
-32.04345703125
-33.87451171875
-24.71923828125
-32.04345703125
-54.931640625
-73.2421875
-88.80615234375
-74.15771484375
-49.4384765625
-15.56396484375
-24.71923828125
-39.36767578125
-52.18505859375
-68.66455078125
-76.904296875
-63.17138671875
-36.62109375
-10.07080078125
-0.91552734375
3.662109375
1.8310546875
8.23974609375
2.74658203125
-6.40869140625
-32.958984375
-37.53662109375
-25.634765625
9.1552734375
20.1416015625
0
-15.56396484375
-6.40869140625
7.32421875
15.56396484375
12.8173828125
10.07080078125
13.73291015625
17.39501953125
11.90185546875
17.39501953125
23.8037109375
40.283203125
35.70556640625
32.04345703125
32.04345703125
34.7900390625
51.26953125
72.32666015625
80.56640625
33.87451171875
-8.23974609375
-26.55029296875
-6.40869140625
27.4658203125
54.931640625
77.81982421875
96.13037109375
87.890625
91.552734375
108.94775390625
105.28564453125
103.45458984375
100.7080078125
94.29931640625
93.3837890625
83.31298828125
84.228515625
107.11669921875
109.86328125
85.14404296875
109.86328125
133.6669921875
146.484375
148.3154296875
166.6259765625
142.822265625
123.59619140625
136.41357421875
142.822265625
138.24462890625
149.23095703125
146.484375
140.9912109375
136.41357421875
138.24462890625
128.173828125
130.92041015625
128.173828125
135.498046875
140.9912109375
130.92041015625
124.51171875
112.60986328125
108.94775390625
109.86328125
113.525390625
107.11669921875
86.97509765625
66.83349609375
36.62109375
15.56396484375
14.6484375
6.40869140625
2.74658203125
-21.05712890625
-37.53662109375
-36.62109375
-53.1005859375
-62.255859375
-54.01611328125
-41.19873046875
-31.1279296875
-31.1279296875
-43.02978515625
-54.931640625
-55.84716796875
-46.69189453125
-30.21240234375
-50.35400390625
-111.6943359375
-144.6533203125
-128.173828125
-107.11669921875
-97.96142578125
-102.5390625
-87.890625
-80.56640625
-77.81982421875
-69.580078125
-80.56640625
-83.31298828125
-71.4111328125
-72.32666015625
-75.0732421875
-98.876953125
-119.0185546875
-114.44091796875
-81.48193359375
-71.4111328125
-85.14404296875
-100.7080078125
-91.552734375
-88.80615234375
-85.14404296875
-85.14404296875
-86.0595703125
-81.48193359375
-83.31298828125
-81.48193359375
-77.81982421875
-81.48193359375
-71.4111328125
-57.67822265625
-69.580078125
-92.46826171875
-108.94775390625
-110.77880859375
-115.3564453125
-134.58251953125
-135.498046875
-106.201171875
-87.890625
-79.65087890625
-71.4111328125
-71.4111328125
-65.00244140625
-61.34033203125
-66.83349609375
-61.34033203125
-61.34033203125
-67.7490234375
-63.17138671875
-70.49560546875
-91.552734375
-91.552734375
-84.228515625
-76.904296875
-72.32666015625
-71.4111328125
-54.01611328125
-52.18505859375
-69.580078125
-86.97509765625
-97.96142578125
-97.0458984375
-86.97509765625
-85.14404296875
-74.15771484375
-74.15771484375
-89.7216796875
-87.890625
-72.32666015625
-75.0732421875
-87.890625
-108.94775390625
-102.5390625
-89.7216796875
-70.49560546875
-60.4248046875
-59.50927734375
-53.1005859375
-66.83349609375
-73.2421875
-94.29931640625
-108.94775390625
-121.76513671875
-108.0322265625
-87.890625
-75.98876953125
-71.4111328125
-60.4248046875
-57.67822265625
-78.7353515625
-77.81982421875
-85.14404296875
-85.14404296875
-82.3974609375
-91.552734375
-90.63720703125
-90.63720703125
-107.11669921875
-112.60986328125
-95.21484375
-78.7353515625
-73.2421875
-70.49560546875
-94.29931640625
-116.27197265625
-124.51171875
-115.3564453125
-98.876953125
-91.552734375
-87.890625
-84.228515625
-64.0869140625
-65.00244140625
-92.46826171875
-107.11669921875
-108.94775390625
-117.1875
-114.44091796875
-100.7080078125
-104.3701171875
-94.29931640625
-88.80615234375
-91.552734375
-82.3974609375
-69.580078125
-78.7353515625
-99.79248046875
-106.201171875
-92.46826171875
-89.7216796875
-100.7080078125
-108.0322265625
-100.7080078125
-99.79248046875
-104.3701171875
-97.0458984375
-87.890625
-83.31298828125
-91.552734375
-101.62353515625
-89.7216796875
-74.15771484375
-70.49560546875
-78.7353515625
-88.80615234375
-103.45458984375
-107.11669921875
-87.890625
-75.0732421875
-89.7216796875
-107.11669921875
-108.0322265625
-97.0458984375
-102.5390625
-86.97509765625
-76.904296875
-83.31298828125
-79.65087890625
-73.2421875
-89.7216796875
-104.3701171875
-92.46826171875
-88.80615234375
-82.3974609375
-78.7353515625
-82.3974609375
-85.14404296875
-91.552734375
-70.49560546875
-76.904296875
-108.0322265625
-123.59619140625
-114.44091796875
-92.46826171875
-92.46826171875
-93.3837890625
-82.3974609375
-92.46826171875
-101.62353515625
-88.80615234375
-73.2421875
-67.7490234375
-72.32666015625
-70.49560546875
-85.14404296875
-101.62353515625
-96.13037109375
-76.904296875
-65.00244140625
-69.580078125
-43.9453125
-43.9453125
-39.36767578125
-33.87451171875
-29.296875
-21.97265625
-9.1552734375
-17.39501953125
-4.57763671875
7.32421875
4.57763671875
-25.634765625
-34.7900390625
-21.97265625
-11.90185546875
-21.05712890625
-19.22607421875
-2.74658203125
12.8173828125
-5.4931640625
-40.283203125
-62.255859375
-69.580078125
-56.7626953125
-49.4384765625
-43.02978515625
-32.958984375
-25.634765625
-29.296875
-45.7763671875
-68.66455078125
-96.13037109375
-98.876953125
-83.31298828125
-81.48193359375
-66.83349609375
-51.26953125
-52.18505859375
-65.00244140625
-88.80615234375
-98.876953125
-92.46826171875
-81.48193359375
-95.21484375
-84.228515625
-63.17138671875
-59.50927734375
-71.4111328125
-71.4111328125
-82.3974609375
-75.0732421875
-62.255859375
-73.2421875
-103.45458984375
-98.876953125
-74.15771484375
-33.87451171875
4.57763671875
26.55029296875
69.580078125
112.60986328125
170.2880859375
250.8544921875
395.5078125
542.90771484375
692.138671875
867.00439453125
1067.5048828125
1235.04638671875
1392.51708984375
1548.15673828125
1637.87841796875
1658.935546875
1641.54052734375
1572.8759765625
1342.1630859375
1116.943359375
942.9931640625
754.39453125
491.63818359375
238.95263671875
127.25830078125
83.31298828125
32.958984375
-0.91552734375
-21.97265625
-50.35400390625
-55.84716796875
-25.634765625
1.8310546875
21.97265625
24.71923828125
27.4658203125
42.1142578125
47.607421875
18.310546875
-2.74658203125
-2.74658203125
9.1552734375
13.73291015625
16.4794921875
10.986328125
5.4931640625
-16.4794921875
-28.38134765625
-13.73291015625
-13.73291015625
-16.4794921875
-16.4794921875
-9.1552734375
-21.97265625
-40.283203125
-23.8037109375
-4.57763671875
3.662109375
8.23974609375
13.73291015625
24.71923828125
26.55029296875
21.05712890625
31.1279296875
34.7900390625
24.71923828125
6.40869140625
-13.73291015625
-1.8310546875
9.1552734375
9.1552734375
3.662109375
3.662109375
11.90185546875
26.55029296875
32.958984375
24.71923828125
18.310546875
11.90185546875
20.1416015625
25.634765625
62.255859375
72.32666015625
39.36767578125
10.07080078125
-3.662109375
10.986328125
37.53662109375
63.17138671875
92.46826171875
89.7216796875
53.1005859375
43.9453125
40.283203125
32.04345703125
43.9453125
59.50927734375
67.7490234375
52.18505859375
43.02978515625
48.52294921875
65.91796875
86.97509765625
101.62353515625
105.28564453125
107.11669921875
101.62353515625
94.29931640625
80.56640625
86.97509765625
102.5390625
121.76513671875
119.93408203125
115.3564453125
116.27197265625
137.3291015625
142.822265625
112.60986328125
99.79248046875
119.0185546875
116.27197265625
112.60986328125
130.0048828125
147.39990234375
147.39990234375
152.89306640625
180.35888671875
179.443359375
152.89306640625
146.484375
168.45703125
190.4296875
178.52783203125
162.04833984375
151.06201171875
140.9912109375
148.3154296875
172.119140625
184.9365234375
179.443359375
180.35888671875
170.2880859375
182.18994140625
182.18994140625
182.18994140625
176.69677734375
156.55517578125
151.06201171875
143.73779296875
152.89306640625
140.9912109375
127.25830078125
130.92041015625
135.498046875
110.77880859375
100.7080078125
103.45458984375
75.98876953125
32.958984375
17.39501953125
20.1416015625
41.19873046875
48.52294921875
37.53662109375
14.6484375
27.4658203125
38.4521484375
21.97265625
-14.6484375
-35.70556640625
-39.36767578125
-29.296875
-28.38134765625
-28.38134765625
-45.7763671875
-65.00244140625
-48.52294921875
-27.4658203125
-37.53662109375
-56.7626953125
-56.7626953125
-46.69189453125
-58.59375
-57.67822265625
-57.67822265625
-71.4111328125
-62.255859375
-43.9453125
-16.4794921875
-22.88818359375
-50.35400390625
-78.7353515625
-85.14404296875
-68.66455078125
-58.59375
-49.4384765625
-32.04345703125
-27.4658203125
