ECG
-89.7216796875
-88.80615234375
-86.0595703125
-83.31298828125
-86.0595703125
-86.97509765625
-83.31298828125
-83.31298828125
-87.890625
-83.31298828125
-82.3974609375
-87.890625
-89.7216796875
-88.80615234375
-86.97509765625
-90.63720703125
-87.890625
-86.97509765625
-83.31298828125
-84.228515625
-86.0595703125
-85.14404296875
-91.552734375
-90.63720703125
-101.62353515625
-92.46826171875
-87.890625
-86.97509765625
-92.46826171875
-86.97509765625
-87.890625
-87.890625
-93.3837890625
-91.552734375
-92.46826171875
-92.46826171875
-89.7216796875
-86.0595703125
-83.31298828125
-89.7216796875
-91.552734375
-88.80615234375
-88.80615234375
-87.890625
-89.7216796875
-94.29931640625
-88.80615234375
-82.3974609375
-86.0595703125
-85.14404296875
-83.31298828125
-86.97509765625
-86.97509765625
-88.80615234375
-89.7216796875
-81.48193359375
-86.0595703125
-88.80615234375
-81.48193359375
-81.48193359375
-87.890625
-89.7216796875
-89.7216796875
-91.552734375
-91.552734375
-86.97509765625
-87.890625
-91.552734375
-88.80615234375
-91.552734375
-89.7216796875
-86.0595703125
-84.228515625
-88.80615234375
-90.63720703125
-82.3974609375
-83.31298828125
-89.7216796875
-90.63720703125
-83.31298828125
-73.2421875
-68.66455078125
-71.4111328125
-65.91796875
-61.34033203125
-42.1142578125
-39.36767578125
-32.958984375
-37.53662109375
-29.296875
-34.7900390625
-39.36767578125
-39.36767578125
-35.70556640625
-36.62109375
-27.4658203125
-33.87451171875
-41.19873046875
-41.19873046875
-44.86083984375
-41.19873046875
-31.1279296875
-38.4521484375
-44.86083984375
-35.70556640625
-26.55029296875
-11.90185546875
-10.07080078125
-16.4794921875
-17.39501953125
-8.23974609375
2.74658203125
8.23974609375
9.1552734375
10.07080078125
0
-14.6484375
-21.97265625
-32.958984375
-42.1142578125
-45.7763671875
-61.34033203125
-71.4111328125
-77.81982421875
-86.0595703125
-88.80615234375
-92.46826171875
-96.13037109375
-89.7216796875
-87.890625
-87.890625
-92.46826171875
-88.80615234375
-92.46826171875
-87.890625
-89.7216796875
-95.21484375
-96.13037109375
-87.890625
-86.97509765625
-93.3837890625
-104.3701171875
-105.28564453125
-101.62353515625
-103.45458984375
-102.5390625
-99.79248046875
-97.0458984375
-95.21484375
-100.7080078125
-104.3701171875
-118.10302734375
-119.0185546875
-125.42724609375
-136.41357421875
-129.08935546875
-122.6806640625
-118.10302734375
-104.3701171875
-57.67822265625
23.8037109375
138.24462890625
291.1376953125
447.69287109375
606.99462890625
769.95849609375
923.76708984375
1034.5458984375
1035.46142578125
966.796875
809.326171875
613.4033203125
370.78857421875
99.79248046875
-114.44091796875
-303.03955078125
-424.8046875
-472.412109375
-460.51025390625
-424.8046875
-365.29541015625
-317.68798828125
-291.1376953125
-273.74267578125
-249.0234375
-213.31787109375
-184.02099609375
-148.3154296875
-118.10302734375
-100.7080078125
-84.228515625
-75.98876953125
-75.98876953125
-74.15771484375
-75.98876953125
-77.81982421875
-75.98876953125
-67.7490234375
-72.32666015625
-73.2421875
-69.580078125
-69.580078125
-65.00244140625
-57.67822265625
-58.59375
-57.67822265625
-53.1005859375
-55.84716796875
-54.931640625
-49.4384765625
-44.86083984375
-44.86083984375
-44.86083984375
-45.7763671875
-49.4384765625
-45.7763671875
-33.87451171875
-33.87451171875
-32.958984375
-37.53662109375
-34.7900390625
-33.87451171875
-33.87451171875
-39.36767578125
-29.296875
-26.55029296875
-22.88818359375
-21.05712890625
-19.22607421875
-18.310546875
-8.23974609375
-3.662109375
-8.23974609375
-7.32421875
-5.4931640625
-5.4931640625
-2.74658203125
2.74658203125
7.32421875
-4.57763671875
-5.4931640625
-0.91552734375
1.8310546875
10.07080078125
14.6484375
15.56396484375
21.05712890625
24.71923828125
25.634765625
31.1279296875
32.958984375
33.87451171875
29.296875
38.4521484375
41.19873046875
42.1142578125
45.7763671875
51.26953125
54.01611328125
54.01611328125
61.34033203125
60.4248046875
67.7490234375
76.904296875
81.48193359375
86.97509765625
93.3837890625
94.29931640625
98.876953125
108.0322265625
109.86328125
111.6943359375
119.0185546875
124.51171875
126.3427734375
132.75146484375
140.9912109375
139.16015625
142.822265625
153.80859375
157.470703125
164.794921875
170.2880859375
168.45703125
178.52783203125
189.51416015625
197.75390625
205.078125
207.82470703125
212.40234375
214.2333984375
217.8955078125
226.13525390625
234.375
234.375
237.12158203125
237.12158203125
239.8681640625
238.037109375
243.5302734375
243.5302734375
248.10791015625
256.34765625
256.34765625
253.60107421875
258.1787109375
252.685546875
249.0234375
237.12158203125
232.5439453125
229.79736328125
223.388671875
216.064453125
203.2470703125
195.9228515625
184.02099609375
172.119140625
162.04833984375
157.470703125
145.56884765625
130.0048828125
124.51171875
115.3564453125
102.5390625
92.46826171875
82.3974609375
69.580078125
59.50927734375
48.52294921875
43.9453125
33.87451171875
28.38134765625
19.22607421875
10.986328125
3.662109375
1.8310546875
-3.662109375
-16.4794921875
-24.71923828125
-27.4658203125
-23.8037109375
-25.634765625
-22.88818359375
-21.05712890625
-31.1279296875
-34.7900390625
-41.19873046875
-41.19873046875
-37.53662109375
-35.70556640625
-44.86083984375
-46.69189453125
-48.52294921875
-53.1005859375
-50.35400390625
-56.7626953125
-53.1005859375
-50.35400390625
-54.01611328125
-53.1005859375
-41.19873046875
-41.19873046875
-43.9453125
-52.18505859375
-54.01611328125
-55.84716796875
-51.26953125
-52.18505859375
-54.01611328125
-48.52294921875
-48.52294921875
-50.35400390625
-51.26953125
-46.69189453125
-47.607421875
-51.26953125
-53.1005859375
-56.7626953125
-57.67822265625
-54.931640625
-57.67822265625
-55.84716796875
-55.84716796875
-58.59375
-65.00244140625
-67.7490234375
-61.34033203125
-53.1005859375
-56.7626953125
-62.255859375
-63.17138671875
-65.00244140625
-61.34033203125
-63.17138671875
-67.7490234375
-59.50927734375
-64.0869140625
-68.66455078125
-69.580078125
-69.580078125
-63.17138671875
-68.66455078125
-72.32666015625
-71.4111328125
-63.17138671875
-67.7490234375
-67.7490234375
-65.91796875
-64.0869140625
-66.83349609375
-65.00244140625
-73.2421875
-75.0732421875
-72.32666015625
-75.98876953125
-86.0595703125
-83.31298828125
-86.0595703125
-86.97509765625
-89.7216796875
-86.0595703125
-85.14404296875
-86.97509765625
-86.97509765625
-88.80615234375
-85.14404296875
-85.14404296875
-87.890625
-85.14404296875
-82.3974609375
-83.31298828125
-84.228515625
-86.97509765625
-92.46826171875
-96.13037109375
-92.46826171875
-84.228515625
-90.63720703125
-89.7216796875
-93.3837890625
-91.552734375
-94.29931640625
-91.552734375
-93.3837890625
-93.3837890625
-97.0458984375
-92.46826171875
-85.14404296875
-93.3837890625
-91.552734375
-84.228515625
-88.80615234375
-89.7216796875
-89.7216796875
-94.29931640625
-86.97509765625
-87.890625
-86.0595703125
-88.80615234375
-96.13037109375
-99.79248046875
-95.21484375
-93.3837890625
-95.21484375
-99.79248046875
-98.876953125
-96.13037109375
-96.13037109375
-96.13037109375
-97.0458984375
-94.29931640625
-96.13037109375
-97.0458984375
-93.3837890625
-90.63720703125
-92.46826171875
-92.46826171875
-91.552734375
-90.63720703125
-92.46826171875
-94.29931640625
-99.79248046875
-91.552734375
-91.552734375
-97.0458984375
-98.876953125
-98.876953125
-90.63720703125
-95.21484375
-101.62353515625
-99.79248046875
-97.0458984375
-97.0458984375
-97.96142578125
-93.3837890625
-89.7216796875
-88.80615234375
-88.80615234375
-83.31298828125
-100.7080078125
-96.13037109375
-91.552734375
-98.876953125
-95.21484375
-96.13037109375
-102.5390625
-99.79248046875
-93.3837890625
-89.7216796875
-90.63720703125
-92.46826171875
-88.80615234375
-97.0458984375
-95.21484375
-87.890625
-96.13037109375
-101.62353515625
-94.29931640625
-95.21484375
-93.3837890625
-86.0595703125
-91.552734375
-97.0458984375
-101.62353515625
-99.79248046875
-95.21484375
-91.552734375
-95.21484375
-97.96142578125
-98.876953125
-97.96142578125
-97.0458984375
-93.3837890625
-92.46826171875
-91.552734375
-91.552734375
-96.13037109375
-97.96142578125
-96.13037109375
-92.46826171875
-96.13037109375
-93.3837890625
-95.21484375
-98.876953125
-97.96142578125
-97.96142578125
-86.97509765625
-84.228515625
-76.904296875
-70.49560546875
-58.59375
-44.86083984375
-43.9453125
-48.52294921875
-46.69189453125
-40.283203125
-39.36767578125
-45.7763671875
-42.1142578125
-43.9453125
-43.02978515625
-44.86083984375
-51.26953125
-53.1005859375
-57.67822265625
-56.7626953125
-46.69189453125
-35.70556640625
-37.53662109375
-35.70556640625
-27.4658203125
-21.05712890625
-13.73291015625
-20.1416015625
-18.310546875
-20.1416015625
-14.6484375
-4.57763671875
4.57763671875
9.1552734375
11.90185546875
-1.8310546875
-18.310546875
-38.4521484375
-44.86083984375
-47.607421875
-66.83349609375
-80.56640625
-81.48193359375
-86.0595703125
-89.7216796875
-92.46826171875
-96.13037109375
-92.46826171875
-94.29931640625
-97.96142578125
-90.63720703125
-91.552734375
-97.96142578125
-97.0458984375
-93.3837890625
-93.3837890625
-97.96142578125
-99.79248046875
-95.21484375
-99.79248046875
-98.876953125
-97.0458984375
-99.79248046875
-103.45458984375
-106.201171875
-105.28564453125
-102.5390625
-101.62353515625
-99.79248046875
-104.3701171875
-110.77880859375
-119.0185546875
-130.92041015625
-138.24462890625
-137.3291015625
-129.08935546875
-126.3427734375
-118.10302734375
-87.890625
-44.86083984375
48.52294921875
191.34521484375
357.97119140625
513.61083984375
668.3349609375
827.63671875
970.458984375
1018.98193359375
971.37451171875
867.00439453125
704.9560546875
498.96240234375
223.388671875
-16.4794921875
-227.05078125
-381.77490234375
-457.763671875
-466.9189453125
-443.115234375
-385.43701171875
-323.18115234375
-284.72900390625
-268.24951171875
-264.58740234375
-250.8544921875
-214.2333984375
-187.68310546875
-155.6396484375
-124.51171875
-99.79248046875
-86.0595703125
-77.81982421875
-75.98876953125
-76.904296875
-66.83349609375
-70.49560546875
-70.49560546875
-72.32666015625
-70.49560546875
-69.580078125
-63.17138671875
-64.0869140625
-60.4248046875
-58.59375
-65.00244140625
-62.255859375
-54.931640625
-56.7626953125
-50.35400390625
-46.69189453125
-42.1142578125
-39.36767578125
-42.1142578125
-45.7763671875
-45.7763671875
-45.7763671875
-42.1142578125
-38.4521484375
-40.283203125
-41.19873046875
-42.1142578125
-38.4521484375
-32.958984375
-34.7900390625
-34.7900390625
-32.04345703125
-22.88818359375
-23.8037109375
-24.71923828125
-22.88818359375
-18.310546875
-17.39501953125
-16.4794921875
-10.986328125
-8.23974609375
-10.986328125
-13.73291015625
-11.90185546875
-4.57763671875
4.57763671875
6.40869140625
6.40869140625
10.07080078125
11.90185546875
10.07080078125
15.56396484375
16.4794921875
18.310546875
21.05712890625
28.38134765625
33.87451171875
32.958984375
32.958984375
36.62109375
44.86083984375
47.607421875
48.52294921875
46.69189453125
49.4384765625
60.4248046875
58.59375
65.00244140625
74.15771484375
76.904296875
77.81982421875
82.3974609375
88.80615234375
92.46826171875
97.0458984375
98.876953125
100.7080078125
108.94775390625
115.3564453125
120.849609375
126.3427734375
124.51171875
130.0048828125
132.75146484375
140.9912109375
145.56884765625
153.80859375
162.04833984375
171.20361328125
189.51416015625
195.9228515625
194.091796875
193.17626953125
196.83837890625
204.16259765625
213.31787109375
216.064453125
220.64208984375
218.81103515625
225.2197265625
237.12158203125
236.2060546875
230.712890625
238.95263671875
243.5302734375
251.77001953125
249.93896484375
252.685546875
259.09423828125
261.8408203125
264.58740234375
259.09423828125
251.77001953125
249.93896484375
246.27685546875
239.8681640625
227.05078125
223.388671875
225.2197265625
208.740234375
193.17626953125
183.10546875
175.78125
156.55517578125
151.9775390625
144.6533203125
140.07568359375
125.42724609375
119.0185546875
107.11669921875
92.46826171875
86.97509765625
69.580078125
59.50927734375
52.18505859375
42.1142578125
34.7900390625
21.97265625
11.90185546875
2.74658203125
0
-6.40869140625
-11.90185546875
-13.73291015625
-20.1416015625
-23.8037109375
-19.22607421875
-29.296875
-37.53662109375
-35.70556640625
-36.62109375
-45.7763671875
-48.52294921875
-45.7763671875
-47.607421875
-53.1005859375
-54.01611328125
-47.607421875
-50.35400390625
-48.52294921875
-49.4384765625
-54.931640625
-54.931640625
-61.34033203125
-61.34033203125
-52.18505859375
-46.69189453125
-54.931640625
-57.67822265625
-51.26953125
-53.1005859375
-58.59375
-55.84716796875
-54.931640625
-54.931640625
-58.59375
-58.59375
-54.01611328125
-59.50927734375
-63.17138671875
-62.255859375
-63.17138671875
-62.255859375
-62.255859375
-64.0869140625
-67.7490234375
-62.255859375
-58.59375
-59.50927734375
-60.4248046875
-62.255859375
-65.00244140625
-65.00244140625
-67.7490234375
-69.580078125
-69.580078125
-70.49560546875
-68.66455078125
-70.49560546875
-67.7490234375
-68.66455078125
-76.904296875
-76.904296875
-70.49560546875
-62.255859375
-62.255859375
-68.66455078125
-75.0732421875
-74.15771484375
-79.65087890625
-78.7353515625
-76.904296875
-79.65087890625
-80.56640625
-85.14404296875
-86.97509765625
-88.80615234375
-88.80615234375
-83.31298828125
-85.14404296875
-86.97509765625
-86.0595703125
-80.56640625
-95.21484375
-89.7216796875
-85.14404296875
-88.80615234375
-86.97509765625
-85.14404296875
-78.7353515625
-84.228515625
-91.552734375
-92.46826171875
-92.46826171875
-92.46826171875
-89.7216796875
-90.63720703125
-93.3837890625
-95.21484375
-97.0458984375
-96.13037109375
-94.29931640625
-90.63720703125
-88.80615234375
-87.890625
-93.3837890625
-91.552734375
-94.29931640625
-104.3701171875
-102.5390625
-100.7080078125
-102.5390625
-99.79248046875
-103.45458984375
-108.0322265625
-99.79248046875
-95.21484375
-98.876953125
-97.0458984375
-93.3837890625
-95.21484375
-97.96142578125
-89.7216796875
-101.62353515625
-107.11669921875
-103.45458984375
-108.94775390625
-108.94775390625
-106.201171875
-100.7080078125
-101.62353515625
-100.7080078125
-104.3701171875
-105.28564453125
-100.7080078125
-99.79248046875
-93.3837890625
-105.28564453125
-110.77880859375
-111.6943359375
-108.94775390625
-108.94775390625
-107.11669921875
-104.3701171875
-104.3701171875
-99.79248046875
-99.79248046875
-98.876953125
-101.62353515625
-104.3701171875
-108.0322265625
-103.45458984375
-97.0458984375
-101.62353515625
-99.79248046875
-106.201171875
-104.3701171875
-107.11669921875
-104.3701171875
-100.7080078125
-101.62353515625
-102.5390625
-97.0458984375
-103.45458984375
-108.94775390625
-105.28564453125
-104.3701171875
-103.45458984375
-107.11669921875
-105.28564453125
-105.28564453125
-108.94775390625
-106.201171875
-108.0322265625
-112.60986328125
-105.28564453125
-104.3701171875
-104.3701171875
-101.62353515625
-100.7080078125
-107.11669921875
-107.11669921875
-113.525390625
-108.94775390625
-108.0322265625
-106.201171875
-104.3701171875
-105.28564453125
-100.7080078125
-107.11669921875
-111.6943359375
-109.86328125
-110.77880859375
-101.62353515625
-108.94775390625
-110.77880859375
-107.11669921875
-108.0322265625
-109.86328125
-108.0322265625
-104.3701171875
-101.62353515625
-100.7080078125
-99.79248046875
-91.552734375
-87.890625
-83.31298828125
-76.904296875
-73.2421875
-75.98876953125
-73.2421875
-73.2421875
-75.98876953125
-71.4111328125
-69.580078125
-73.2421875
-65.00244140625
-59.50927734375
-58.59375
-62.255859375
-67.7490234375
-67.7490234375
-54.931640625
-53.1005859375
-53.1005859375
-45.7763671875
-43.02978515625
-39.36767578125
-26.55029296875
-25.634765625
-32.04345703125
-24.71923828125
-19.22607421875
-21.05712890625
-16.4794921875
-11.90185546875
-15.56396484375
-26.55029296875
-30.21240234375
-36.62109375
-51.26953125
-63.17138671875
-75.0732421875
-94.29931640625
-103.45458984375
-102.5390625
-100.7080078125
-105.28564453125
-98.876953125
-102.5390625
-102.5390625
-108.0322265625
-106.201171875
-105.28564453125
-105.28564453125
-101.62353515625
-102.5390625
-107.11669921875
-98.876953125
-100.7080078125
-102.5390625
-98.876953125
-108.94775390625
-114.44091796875
-115.3564453125
-118.10302734375
-109.86328125
-108.0322265625
-106.201171875
-105.28564453125
-111.6943359375
-107.11669921875
-118.10302734375
-131.8359375
-138.24462890625
-135.498046875
-128.173828125
-127.25830078125
-130.0048828125
-117.1875
-80.56640625
-14.6484375
107.11669921875
228.8818359375
364.3798828125
529.1748046875
665.58837890625
791.015625
866.0888671875
837.70751953125
739.74609375
587.7685546875
396.42333984375
150.146484375
-71.4111328125
-270.99609375
-412.90283203125
-492.5537109375
-488.8916015625
-461.42578125
-412.90283203125
-347.900390625
-304.87060546875
-283.8134765625
-278.3203125
-270.08056640625
-264.58740234375
-263.671875
-242.61474609375
-216.97998046875
-190.4296875
-163.87939453125
-131.8359375
-110.77880859375
-99.79248046875
-95.21484375
-86.97509765625
-77.81982421875
-74.15771484375
-79.65087890625
-73.2421875
-72.32666015625
-74.15771484375
-69.580078125
-74.15771484375
-72.32666015625
-67.7490234375
-60.4248046875
-55.84716796875
-54.01611328125
-52.18505859375
-49.4384765625
-52.18505859375
-51.26953125
-49.4384765625
-52.18505859375
-53.1005859375
-55.84716796875
-48.52294921875
-45.7763671875
-42.1142578125
-38.4521484375
-38.4521484375
-39.36767578125
-30.21240234375
-30.21240234375
-30.21240234375
-24.71923828125
-32.04345703125
-28.38134765625
-25.634765625
-18.310546875
-13.73291015625
-16.4794921875
-14.6484375
-7.32421875
-6.40869140625
0
0.91552734375
-0.91552734375
7.32421875
11.90185546875
11.90185546875
10.986328125
18.310546875
20.1416015625
13.73291015625
21.05712890625
28.38134765625
28.38134765625
27.4658203125
29.296875
36.62109375
38.4521484375
46.69189453125
42.1142578125
49.4384765625
55.84716796875
54.01611328125
55.84716796875
56.7626953125
62.255859375
71.4111328125
71.4111328125
80.56640625
84.228515625
85.14404296875
86.0595703125
96.13037109375
107.11669921875
112.60986328125
114.44091796875
115.3564453125
119.0185546875
119.0185546875
126.3427734375
139.16015625
146.484375
151.06201171875
153.80859375
157.470703125
165.71044921875
174.86572265625
175.78125
172.119140625
180.35888671875
191.34521484375
195.9228515625
202.33154296875
210.5712890625
214.2333984375
213.31787109375
216.97998046875
230.712890625
232.5439453125
234.375
240.78369140625
246.27685546875
249.93896484375
247.1923828125
260.009765625
266.41845703125
260.92529296875
261.8408203125
264.58740234375
263.671875
260.92529296875
263.671875
256.34765625
260.92529296875
250.8544921875
243.5302734375
236.2060546875
230.712890625
216.97998046875
202.33154296875
198.66943359375
187.68310546875
177.6123046875
161.1328125
152.89306640625
146.484375
130.92041015625
119.0185546875
113.525390625
100.7080078125
87.890625
73.2421875
56.7626953125
59.50927734375
54.931640625
37.53662109375
30.21240234375
20.1416015625
12.8173828125
8.23974609375
0.91552734375
-0.91552734375
-9.1552734375
-16.4794921875
-20.1416015625
-23.8037109375
-28.38134765625
-35.70556640625
-40.283203125
-41.19873046875
-39.36767578125
-36.62109375
-38.4521484375
-46.69189453125
-44.86083984375
-40.283203125
-50.35400390625
-48.52294921875
-45.7763671875
-48.52294921875
-51.26953125
-52.18505859375
-53.1005859375
-60.4248046875
-55.84716796875
-54.931640625
-56.7626953125
-57.67822265625
-52.18505859375
-62.255859375
-64.0869140625
-56.7626953125
-62.255859375
-64.0869140625
-65.00244140625
-63.17138671875
-61.34033203125
-59.50927734375
-65.91796875
-61.34033203125
-54.931640625
-55.84716796875
-58.59375
-56.7626953125
-58.59375
-62.255859375
-64.0869140625
-58.59375
-54.01611328125
-58.59375
-65.00244140625
-65.91796875
-66.83349609375
-62.255859375
-66.83349609375
-67.7490234375
-77.81982421875
-74.15771484375
-75.98876953125
-72.32666015625
-67.7490234375
-68.66455078125
-74.15771484375
-71.4111328125
-69.580078125
-70.49560546875
-79.65087890625
-82.3974609375
-84.228515625
-84.228515625
-81.48193359375
-75.0732421875
-75.98876953125
-83.31298828125
-81.48193359375
-86.0595703125
-85.14404296875
-84.228515625
-85.14404296875
-85.14404296875
-80.56640625
-83.31298828125
-91.552734375
-92.46826171875
-91.552734375
-90.63720703125
-92.46826171875
-96.13037109375
-95.21484375
-86.0595703125
-91.552734375
-93.3837890625
-94.29931640625
-88.80615234375
-93.3837890625
-97.96142578125
-96.13037109375
-93.3837890625
-94.29931640625
-94.29931640625
-97.0458984375
-98.876953125
-99.79248046875
-104.3701171875
-103.45458984375
-98.876953125
-97.96142578125
-101.62353515625
-102.5390625
-97.96142578125
-99.79248046875
-103.45458984375
-101.62353515625
-101.62353515625
-102.5390625
-103.45458984375
-106.201171875
-103.45458984375
-103.45458984375
-101.62353515625
-104.3701171875
-101.62353515625
-97.0458984375
-99.79248046875
-104.3701171875
-106.201171875
-105.28564453125
-106.201171875
-106.201171875
-103.45458984375
-101.62353515625
-103.45458984375
-104.3701171875
-102.5390625
-103.45458984375
-104.3701171875
-107.11669921875
-103.45458984375
-112.60986328125
-117.1875
-114.44091796875
-109.86328125
-104.3701171875
-99.79248046875
-102.5390625
-101.62353515625
-106.201171875
-108.94775390625
-109.86328125
-108.94775390625
-99.79248046875
-100.7080078125
-101.62353515625
-99.79248046875
-97.0458984375
-100.7080078125
-102.5390625
-106.201171875
-111.6943359375
-109.86328125
-104.3701171875
-110.77880859375
-108.94775390625
-102.5390625
-105.28564453125
-107.11669921875
-113.525390625
-105.28564453125
-108.0322265625
-103.45458984375
-106.201171875
-106.201171875
-104.3701171875
-103.45458984375
-110.77880859375
-107.11669921875
-111.6943359375
-112.60986328125
-111.6943359375
-110.77880859375
-107.11669921875
-104.3701171875
-109.86328125
-111.6943359375
-108.0322265625
-104.3701171875
-108.94775390625
-106.201171875
-98.876953125
-109.86328125
-114.44091796875
-106.201171875
-101.62353515625
-101.62353515625
-110.77880859375
-108.0322265625
-105.28564453125
-109.86328125
-110.77880859375
-105.28564453125
-102.5390625
-102.5390625
-97.0458984375
-84.228515625
-83.31298828125
-73.2421875
-63.17138671875
-61.34033203125
-62.255859375
-60.4248046875
-59.50927734375
-56.7626953125
-59.50927734375
-56.7626953125
-50.35400390625
-52.18505859375
-53.1005859375
-59.50927734375
-62.255859375
-62.255859375
-65.00244140625
-58.59375
-55.84716796875
-53.1005859375
-46.69189453125
-42.1142578125
-42.1142578125
-29.296875
-23.8037109375
-28.38134765625
-29.296875
-25.634765625
-23.8037109375
-17.39501953125
-13.73291015625
-17.39501953125
-26.55029296875
-35.70556640625
-43.9453125
-53.1005859375
-59.50927734375
-70.49560546875
-86.0595703125
-95.21484375
-99.79248046875
-105.28564453125
-100.7080078125
-110.77880859375
-108.94775390625
-105.28564453125
-109.86328125
-111.6943359375
-108.94775390625
-106.201171875
-116.27197265625
-113.525390625
-109.86328125
-111.6943359375
-113.525390625
-108.94775390625
-99.79248046875
-109.86328125
-108.0322265625
-108.94775390625
-113.525390625
-112.60986328125
-115.3564453125
-115.3564453125
-112.60986328125
-111.6943359375
-122.6806640625
-138.24462890625
-147.39990234375
-159.3017578125
-147.39990234375
-147.39990234375
-143.73779296875
-118.10302734375
-67.7490234375
4.57763671875
121.76513671875
279.23583984375
433.9599609375
592.34619140625
746.15478515625
899.0478515625
990.6005859375
972.2900390625
895.3857421875
757.14111328125
561.21826171875
305.7861328125
50.35400390625
-156.55517578125
-347.900390625
-453.18603515625
-489.80712890625
-468.75
-417.48046875
-363.46435546875
-327.7587890625
-292.05322265625
-275.57373046875
-263.671875
-248.10791015625
-219.7265625
-192.2607421875
-156.55517578125
-133.6669921875
-114.44091796875
-92.46826171875
-82.3974609375
-77.81982421875
-77.81982421875
-89.7216796875
-88.80615234375
-92.46826171875
-91.552734375
-83.31298828125
-80.56640625
-84.228515625
-79.65087890625
-77.81982421875
-70.49560546875
-68.66455078125
-64.0869140625
-67.7490234375
-74.15771484375
-66.83349609375
-68.66455078125
-74.15771484375
-66.83349609375
-68.66455078125
-63.17138671875
-55.84716796875
-54.931640625
-50.35400390625
-50.35400390625
-46.69189453125
-43.02978515625
-41.19873046875
-39.36767578125
-34.7900390625
-37.53662109375
-30.21240234375
-42.1142578125
-38.4521484375
-34.7900390625
-32.958984375
-29.296875
-24.71923828125
-21.97265625
-19.22607421875
-18.310546875
-12.8173828125
-14.6484375
-14.6484375
-13.73291015625
-13.73291015625
-10.07080078125
-3.662109375
1.8310546875
5.4931640625
0.91552734375
5.4931640625
6.40869140625
7.32421875
9.1552734375
10.986328125
13.73291015625
21.05712890625
21.97265625
21.97265625
31.1279296875
33.87451171875
39.36767578125
32.958984375
42.1142578125
54.931640625
54.01611328125
56.7626953125
65.00244140625
70.49560546875
66.83349609375
78.7353515625
82.3974609375
82.3974609375
89.7216796875
92.46826171875
95.21484375
104.3701171875
104.3701171875
109.86328125
111.6943359375
118.10302734375
118.10302734375
121.76513671875
131.8359375
136.41357421875
142.822265625
156.55517578125
163.87939453125
165.71044921875
175.78125
173.9501953125
184.02099609375
194.091796875
201.416015625
199.5849609375
203.2470703125
210.5712890625
209.65576171875
214.2333984375
220.64208984375
223.388671875
229.79736328125
228.8818359375
233.45947265625
238.95263671875
239.8681640625
238.037109375
238.95263671875
239.8681640625
242.61474609375
247.1923828125
251.77001953125
247.1923828125
243.5302734375
232.5439453125
227.96630859375
222.47314453125
215.14892578125
206.9091796875
197.75390625
180.35888671875
165.71044921875
161.1328125
156.55517578125
140.07568359375
133.6669921875
120.849609375
108.94775390625
101.62353515625
96.13037109375
75.98876953125
61.34033203125
57.67822265625
48.52294921875
36.62109375
24.71923828125
12.8173828125
2.74658203125
-2.74658203125
-7.32421875
-12.8173828125
-16.4794921875
-24.71923828125
-28.38134765625
-28.38134765625
-37.53662109375
-37.53662109375
-42.1142578125
-46.69189453125
-53.1005859375
-53.1005859375
-56.7626953125
-57.67822265625
-54.01611328125
-61.34033203125
-66.83349609375
-68.66455078125
-63.17138671875
-63.17138671875
-64.0869140625
-65.00244140625
-61.34033203125
-68.66455078125
-70.49560546875
-72.32666015625
-69.580078125
-75.0732421875
-73.2421875
-65.91796875
-66.83349609375
-74.15771484375
-69.580078125
-64.0869140625
-65.91796875
-68.66455078125
-70.49560546875
-67.7490234375
-65.00244140625
-68.66455078125
-65.00244140625
-73.2421875
-70.49560546875
-68.66455078125
-63.17138671875
-65.91796875
-68.66455078125
-65.91796875
-76.904296875
-80.56640625
-83.31298828125
-73.2421875
-75.0732421875
-75.0732421875
-71.4111328125
-68.66455078125
-65.00244140625
-71.4111328125
-76.904296875
-71.4111328125
-69.580078125
-71.4111328125
-75.98876953125
-84.228515625
-75.98876953125
-75.98876953125
-82.3974609375
-82.3974609375
-71.4111328125
-78.7353515625
-78.7353515625
-80.56640625
-75.98876953125
-79.65087890625
-84.228515625
-81.48193359375
-86.97509765625
-86.97509765625
-78.7353515625
-86.97509765625
-86.97509765625
-82.3974609375
-71.4111328125
-77.81982421875
-82.3974609375
-82.3974609375
-91.552734375
-99.79248046875
-92.46826171875
-87.890625
-87.890625
-101.62353515625
-101.62353515625
-84.228515625
-77.81982421875
-85.14404296875
-95.21484375
-87.890625
-78.7353515625
-86.0595703125
-79.65087890625
-84.228515625
-95.21484375
-98.876953125
-97.96142578125
-98.876953125
-100.7080078125
-97.0458984375
-97.0458984375
-94.29931640625
-99.79248046875
-107.11669921875
-109.86328125
-105.28564453125
-103.45458984375
-98.876953125
-105.28564453125
-97.96142578125
-94.29931640625
-96.13037109375
-97.96142578125
-94.29931640625
-95.21484375
-99.79248046875
-95.21484375
-91.552734375
-96.13037109375
-100.7080078125
-107.11669921875
-95.21484375
-95.21484375
-98.876953125
-103.45458984375
-108.0322265625
-106.201171875
-106.201171875
-101.62353515625
-97.96142578125
-100.7080078125
-103.45458984375
-102.5390625
-98.876953125
-97.96142578125
-93.3837890625
-94.29931640625
-97.96142578125
-101.62353515625
-100.7080078125
-101.62353515625
-103.45458984375
-102.5390625
-103.45458984375
-104.3701171875
-103.45458984375
-104.3701171875
-101.62353515625
-100.7080078125
-104.3701171875
-101.62353515625
-98.876953125
-97.96142578125
-101.62353515625
-104.3701171875
-102.5390625
-111.6943359375
-118.10302734375
-110.77880859375
-106.201171875
-106.201171875
-107.11669921875
-109.86328125
-102.5390625
-99.79248046875
-108.0322265625
-108.0322265625
-104.3701171875
-100.7080078125
-98.876953125
-94.29931640625
-97.96142578125
-102.5390625
-105.28564453125
-109.86328125
-108.0322265625
-109.86328125
-108.94775390625
-104.3701171875
-107.11669921875
-112.60986328125
-103.45458984375
-98.876953125
-93.3837890625
-87.890625
-71.4111328125
-64.0869140625
-63.17138671875
-56.7626953125
-57.67822265625
-57.67822265625
-68.66455078125
-65.91796875
-52.18505859375
-56.7626953125
-63.17138671875
-61.34033203125
-67.7490234375
-73.2421875
-75.0732421875
-70.49560546875
-69.580078125
-64.0869140625
-59.50927734375
-58.59375
-54.01611328125
-33.87451171875
-21.97265625
-35.70556640625
-35.70556640625
-30.21240234375
-27.4658203125
-21.97265625
-14.6484375
-10.07080078125
-21.97265625
-42.1142578125
-43.9453125
-52.18505859375
-59.50927734375
-71.4111328125
-76.904296875
-93.3837890625
-104.3701171875
-117.1875
-121.76513671875
-118.10302734375
-121.76513671875
-116.27197265625
-113.525390625
-112.60986328125
-109.86328125
-110.77880859375
-113.525390625
-108.94775390625
-116.27197265625
-118.10302734375
-113.525390625
-114.44091796875
-116.27197265625
-116.27197265625
-119.93408203125
-120.849609375
-120.849609375
-120.849609375
-119.93408203125
-119.0185546875
-130.0048828125
-132.75146484375
-135.498046875
-134.58251953125
-148.3154296875
-157.470703125
-152.89306640625
-143.73779296875
-144.6533203125
-140.9912109375
-111.6943359375
-59.50927734375
36.62109375
170.2880859375
326.84326171875
477.9052734375
636.29150390625
791.93115234375
934.75341796875
985.107421875
943.90869140625
845.03173828125
691.22314453125
484.31396484375
225.2197265625
-19.22607421875
-247.1923828125
-404.6630859375
-481.5673828125
-497.13134765625
-468.75
-408.3251953125
-356.14013671875
-320.4345703125
-296.630859375
-292.05322265625
-272.8271484375
-240.78369140625
-208.740234375
-177.6123046875
-144.6533203125
-129.08935546875
-118.10302734375
-102.5390625
-93.3837890625
-91.552734375
-97.96142578125
-100.7080078125
-96.13037109375
-94.29931640625
-96.13037109375
-97.0458984375
-93.3837890625
-84.228515625
-87.890625
-80.56640625
-70.49560546875
-78.7353515625
-80.56640625
-72.32666015625
-72.32666015625
-71.4111328125
-66.83349609375
-66.83349609375
-68.66455078125
-64.0869140625
-62.255859375
-60.4248046875
-61.34033203125
-61.34033203125
-64.0869140625
-65.91796875
-58.59375
-51.26953125
-50.35400390625
-47.607421875
-47.607421875
-45.7763671875
-43.02978515625
-49.4384765625
-46.69189453125
-40.283203125
-41.19873046875
-38.4521484375
-39.36767578125
-31.1279296875
-26.55029296875
-22.88818359375
-24.71923828125
-23.8037109375
-21.97265625
-20.1416015625
-16.4794921875
-13.73291015625
-21.97265625
-25.634765625
-14.6484375
-10.986328125
-0.91552734375
7.32421875
0.91552734375
7.32421875
20.1416015625
19.22607421875
24.71923828125
28.38134765625
33.87451171875
28.38134765625
28.38134765625
28.38134765625
38.4521484375
44.86083984375
42.1142578125
51.26953125
57.67822265625
60.4248046875
71.4111328125
75.98876953125
75.98876953125
73.2421875
80.56640625
82.3974609375
89.7216796875
97.0458984375
93.3837890625
97.0458984375
101.62353515625
112.60986328125
120.849609375
130.92041015625
130.0048828125
132.75146484375
143.73779296875
157.470703125
162.04833984375
164.794921875
167.54150390625
176.69677734375
182.18994140625
190.4296875
196.83837890625
200.50048828125
204.16259765625
200.50048828125
213.31787109375
218.81103515625
218.81103515625
220.64208984375
224.30419921875
223.388671875
223.388671875
234.375
242.61474609375
245.361328125
243.5302734375
249.0234375
252.685546875
247.1923828125
241.69921875
236.2060546875
230.712890625
218.81103515625
205.078125
205.99365234375
201.416015625
187.68310546875
174.86572265625
170.2880859375
166.6259765625
154.72412109375
130.0048828125
119.93408203125
112.60986328125
104.3701171875
91.552734375
83.31298828125
71.4111328125
58.59375
47.607421875
43.02978515625
26.55029296875
13.73291015625
7.32421875
0
-7.32421875
-16.4794921875
-28.38134765625
-34.7900390625
-36.62109375
-43.02978515625
-45.7763671875
-52.18505859375
-54.931640625
-59.50927734375
-66.83349609375
-65.91796875
-61.34033203125
-61.34033203125
-65.91796875
-75.98876953125
-79.65087890625
-81.48193359375
-83.31298828125
-83.31298828125
-75.98876953125
-74.15771484375
-75.98876953125
-80.56640625
-80.56640625
-81.48193359375
-85.14404296875
-83.31298828125
-85.14404296875
-85.14404296875
-85.14404296875
-86.0595703125
-81.48193359375
-86.0595703125
-89.7216796875
-92.46826171875
-94.29931640625
-87.890625
-86.97509765625
-85.14404296875
-86.0595703125
-86.0595703125
-85.14404296875
-88.80615234375
-84.228515625
-84.228515625
-85.14404296875
-91.552734375
-94.29931640625
-93.3837890625
-96.13037109375
-96.13037109375
-89.7216796875
-94.29931640625
-96.13037109375
-93.3837890625
-95.21484375
-97.0458984375
-97.0458984375
-93.3837890625
-90.63720703125
-89.7216796875
-87.890625
-91.552734375
-98.876953125
-100.7080078125
-103.45458984375
-102.5390625
-107.11669921875
-107.11669921875
-110.77880859375
-106.201171875
-103.45458984375
-106.201171875
-97.0458984375
-100.7080078125
-107.11669921875
-104.3701171875
-105.28564453125
-97.0458984375
-106.201171875
-108.94775390625
-113.525390625
-112.60986328125
-111.6943359375
-115.3564453125
-116.27197265625
-113.525390625
-112.60986328125
-120.849609375
-115.3564453125
-114.44091796875
-117.1875
-119.93408203125
-110.77880859375
-108.0322265625
-112.60986328125
-118.10302734375
-120.849609375
-121.76513671875
-115.3564453125
-120.849609375
-120.849609375
-114.44091796875
-119.93408203125
-128.173828125
-135.498046875
-128.173828125
-130.0048828125
-130.92041015625
-130.92041015625
-129.08935546875
-127.25830078125
-122.6806640625
-121.76513671875
-123.59619140625
-128.173828125
-121.76513671875
-122.6806640625
-119.0185546875
-119.93408203125
-119.93408203125
-117.1875
-124.51171875
-127.25830078125
-132.75146484375
-130.92041015625
-127.25830078125
-123.59619140625
-120.849609375
-128.173828125
-123.59619140625
-125.42724609375
-121.76513671875
-119.0185546875
-128.173828125
-130.0048828125
-128.173828125
-129.08935546875
-127.25830078125
-127.25830078125
-123.59619140625
-127.25830078125
-121.76513671875
-119.0185546875
-122.6806640625
-127.25830078125
-130.0048828125
-128.173828125
-124.51171875
-125.42724609375
-129.08935546875
-124.51171875
-127.25830078125
-120.849609375
-127.25830078125
-135.498046875
-125.42724609375
-122.6806640625
-120.849609375
-119.0185546875
-111.6943359375
-120.849609375
-119.93408203125
-110.77880859375
-103.45458984375
-110.77880859375
-106.201171875
-97.96142578125
-97.0458984375
-94.29931640625
-86.0595703125
-86.0595703125
-86.0595703125
-97.96142578125
-93.3837890625
-88.80615234375
-90.63720703125
-84.228515625
-83.31298828125
-72.32666015625
-73.2421875
-70.49560546875
-69.580078125
-65.00244140625
-68.66455078125
-60.4248046875
-53.1005859375
-47.607421875
-54.931640625
-52.18505859375
-50.35400390625
-43.9453125
-34.7900390625
-34.7900390625
-48.52294921875
-55.84716796875
-67.7490234375
-72.32666015625
-70.49560546875
-88.80615234375
-107.11669921875
-110.77880859375
-118.10302734375
-130.0048828125
-131.8359375
-128.173828125
-130.0048828125
-132.75146484375
-133.6669921875
-128.173828125
-132.75146484375
-134.58251953125
-130.0048828125
-118.10302734375
-124.51171875
-133.6669921875
-128.173828125
-128.173828125
-129.08935546875
-123.59619140625
-127.25830078125
-128.173828125
-128.173828125
-126.3427734375
-137.3291015625
-139.16015625
-136.41357421875
-135.498046875
-140.07568359375
-142.822265625
-140.9912109375
-147.39990234375
-155.6396484375
-146.484375
-145.56884765625
-141.90673828125
-131.8359375
-103.45458984375
-38.4521484375
75.0732421875
196.83837890625
314.94140625
474.2431640625
607.91015625
722.35107421875
787.353515625
769.95849609375
680.23681640625
526.42822265625
337.82958984375
109.86328125
-108.94775390625
-309.4482421875
-448.6083984375
-529.1748046875
-524.59716796875
-483.3984375
-450.439453125
-395.5078125
-337.82958984375
-304.87060546875
-300.29296875
-297.54638671875
-290.22216796875
-286.56005859375
-277.40478515625
-255.43212890625
-236.2060546875
-212.40234375
-182.18994140625
-144.6533203125
-126.3427734375
-109.86328125
-100.7080078125
-98.876953125
-94.29931640625
-91.552734375
-92.46826171875
-97.0458984375
-94.29931640625
-91.552734375
-88.80615234375
-89.7216796875
-87.890625
-90.63720703125
-91.552734375
-83.31298828125
-72.32666015625
-74.15771484375
-72.32666015625
-69.580078125
-70.49560546875
-73.2421875
-65.91796875
-68.66455078125
-65.91796875
-65.91796875
-58.59375
-61.34033203125
-59.50927734375
-61.34033203125
-59.50927734375
-52.18505859375
-44.86083984375
-41.19873046875
-39.36767578125
-31.1279296875
-30.21240234375
-31.1279296875
-33.87451171875
-27.4658203125
-25.634765625
-25.634765625
-28.38134765625
-20.1416015625
-11.90185546875
-15.56396484375
-16.4794921875
-13.73291015625
-3.662109375
5.4931640625
4.57763671875
3.662109375
1.8310546875
4.57763671875
9.1552734375
14.6484375
19.22607421875
23.8037109375
21.05712890625
24.71923828125
28.38134765625
32.958984375
41.19873046875
39.36767578125
38.4521484375
41.19873046875
53.1005859375
55.84716796875
55.84716796875
65.91796875
69.580078125
74.15771484375
74.15771484375
72.32666015625
75.98876953125
96.13037109375
99.79248046875
96.13037109375
102.5390625
106.201171875
106.201171875
117.1875
122.6806640625
131.8359375
140.9912109375
150.146484375
157.470703125
161.1328125
162.9638671875
171.20361328125
184.9365234375
191.34521484375
193.17626953125
195.00732421875
201.416015625
205.078125
215.14892578125
220.64208984375
227.05078125
227.05078125
223.388671875
222.47314453125
230.712890625
238.037109375
240.78369140625
248.10791015625
249.0234375
255.43212890625
261.8408203125
262.75634765625
262.75634765625
257.26318359375
250.8544921875
251.77001953125
244.44580078125
226.13525390625
225.2197265625
220.64208984375
210.5712890625
202.33154296875
197.75390625
186.767578125
168.45703125
153.80859375
145.56884765625
141.90673828125
127.25830078125
107.11669921875
90.63720703125
86.0595703125
66.83349609375
53.1005859375
46.69189453125
45.7763671875
37.53662109375
19.22607421875
15.56396484375
-0.91552734375
-20.1416015625
-30.21240234375
-33.87451171875
-43.9453125
-44.86083984375
-52.18505859375
-62.255859375
-65.00244140625
-65.91796875
-60.4248046875
-59.50927734375
-57.67822265625
-65.91796875
-63.17138671875
-62.255859375
-69.580078125
-69.580078125
-73.2421875
-86.97509765625
-85.14404296875
-78.7353515625
-80.56640625
-88.80615234375
-94.29931640625
-94.29931640625
-99.79248046875
-96.13037109375
-91.552734375
-79.65087890625
-75.98876953125
-71.4111328125
-69.580078125
-74.15771484375
-78.7353515625
-76.904296875
-79.65087890625
-80.56640625
-78.7353515625
-86.0595703125
-88.80615234375
-87.890625
-78.7353515625
-76.904296875
-86.0595703125
-92.46826171875
-97.0458984375
-100.7080078125
-97.0458984375
-85.14404296875
-86.0595703125
-82.3974609375
-76.904296875
-75.0732421875
-78.7353515625
-83.31298828125
-86.97509765625
-97.96142578125
-111.6943359375
-112.60986328125
-108.94775390625
-108.0322265625
-119.93408203125
-111.6943359375
-112.60986328125
-115.3564453125
-106.201171875
-96.13037109375
-81.48193359375
-76.904296875
-91.552734375
-88.80615234375
-86.0595703125
-93.3837890625
-98.876953125
-97.96142578125
-97.96142578125
-109.86328125
-108.94775390625
-112.60986328125
-103.45458984375
-101.62353515625
-106.201171875
-110.77880859375
-117.1875
-118.10302734375
-113.525390625
-106.201171875
-102.5390625
-111.6943359375
-114.44091796875
-125.42724609375
-129.08935546875
-124.51171875
-129.08935546875
-124.51171875
-129.08935546875
-140.9912109375
-130.0048828125
-132.75146484375
-130.0048828125
-122.6806640625
-114.44091796875
-123.59619140625
-122.6806640625
-124.51171875
-129.08935546875
-137.3291015625
-146.484375
-151.9775390625
-147.39990234375
-150.146484375
-146.484375
-142.822265625
-137.3291015625
-127.25830078125
-128.173828125
-144.6533203125
-150.146484375
-140.9912109375
-132.75146484375
-137.3291015625
-132.75146484375
-132.75146484375
-129.08935546875
-114.44091796875
-107.11669921875
-112.60986328125
-126.3427734375
-130.92041015625
-123.59619140625
-121.76513671875
-136.41357421875
-143.73779296875
-143.73779296875
-150.146484375
-148.3154296875
-145.56884765625
-143.73779296875
-133.6669921875
-129.08935546875
-127.25830078125
-123.59619140625
-122.6806640625
-121.76513671875
-128.173828125
-130.0048828125
-126.3427734375
-126.3427734375
-132.75146484375
-128.173828125
-134.58251953125
-134.58251953125
-125.42724609375
-120.849609375
-134.58251953125
-133.6669921875
-134.58251953125
-133.6669921875
-139.16015625
-142.822265625
-138.24462890625
-139.16015625
-137.3291015625
-135.498046875
-133.6669921875
-130.0048828125
-119.0185546875
-117.1875
-117.1875
-105.28564453125
-97.96142578125
-91.552734375
-88.80615234375
-82.3974609375
-86.0595703125
-80.56640625
-79.65087890625
-98.876953125
-107.11669921875
-98.876953125
-89.7216796875
-80.56640625
-81.48193359375
-83.31298828125
-68.66455078125
-56.7626953125
-75.0732421875
-82.3974609375
-73.2421875
-55.84716796875
-56.7626953125
-58.59375
-64.0869140625
-48.52294921875
-43.9453125
-56.7626953125
-43.9453125
-44.86083984375
-53.1005859375
-50.35400390625
-52.18505859375
-65.91796875
-85.14404296875
-96.13037109375
-112.60986328125
-121.76513671875
-129.08935546875
-119.93408203125
-119.93408203125
-115.3564453125
-119.93408203125
-123.59619140625
-127.25830078125
-123.59619140625
-130.0048828125
-119.0185546875
-135.498046875
-131.8359375
-123.59619140625
-120.849609375
-128.173828125
-151.06201171875
-153.80859375
-148.3154296875
-142.822265625
-132.75146484375
-138.24462890625
-144.6533203125
-140.07568359375
-120.849609375
-131.8359375
-148.3154296875
-154.72412109375
-151.06201171875
-160.21728515625
-181.2744140625
-180.35888671875
-167.54150390625
-154.72412109375
-148.3154296875
-123.59619140625
-82.3974609375
8.23974609375
130.0048828125
274.658203125
444.03076171875
592.34619140625
739.74609375
892.63916015625
932.0068359375
871.58203125
760.80322265625
604.248046875
398.25439453125
137.3291015625
-97.0458984375
-297.54638671875
-442.19970703125
-512.6953125
-512.6953125
-489.80712890625
-434.87548828125
-373.53515625
-327.7587890625
-309.4482421875
-293.88427734375
-292.05322265625
-277.40478515625
-259.09423828125
-234.375
-220.64208984375
-188.5986328125
-152.89306640625
-135.498046875
-127.25830078125
-124.51171875
-116.27197265625
-110.77880859375
-110.77880859375
-111.6943359375
-109.86328125
-114.44091796875
-115.3564453125
-126.3427734375
-127.25830078125
-111.6943359375
-119.0185546875
-118.10302734375
-108.0322265625
-89.7216796875
-77.81982421875
-77.81982421875
-86.0595703125
-90.63720703125
-82.3974609375
-86.0595703125
-86.97509765625
-91.552734375
-97.0458984375
-78.7353515625
-75.98876953125
-83.31298828125
-80.56640625
-69.580078125
-67.7490234375
-62.255859375
-58.59375
-47.607421875
-39.36767578125
-42.1142578125
-52.18505859375
-56.7626953125
-58.59375
-54.931640625
-41.19873046875
-47.607421875
-48.52294921875
-53.1005859375
-54.931640625
-54.931640625
-54.01611328125
-60.4248046875
-58.59375
-44.86083984375
-43.02978515625
-21.05712890625
-10.986328125
-16.4794921875
4.57763671875
11.90185546875
5.4931640625
-2.74658203125
0.91552734375
-7.32421875
-6.40869140625
13.73291015625
11.90185546875
5.4931640625
8.23974609375
3.662109375
15.56396484375
13.73291015625
20.1416015625
23.8037109375
33.87451171875
33.87451171875
21.97265625
27.4658203125
22.88818359375
38.4521484375
65.00244140625
64.0869140625
80.56640625
77.81982421875
67.7490234375
71.4111328125
82.3974609375
103.45458984375
110.77880859375
115.3564453125
98.876953125
93.3837890625
103.45458984375
128.173828125
152.89306640625
171.20361328125
157.470703125
166.6259765625
178.52783203125
186.767578125
188.5986328125
173.9501953125
185.85205078125
187.68310546875
185.85205078125
204.16259765625
232.5439453125
238.95263671875
247.1923828125
252.685546875
257.26318359375
259.09423828125
250.8544921875
251.77001953125
244.44580078125
232.5439453125
228.8818359375
237.12158203125
232.5439453125
249.0234375
257.26318359375
227.05078125
204.16259765625
183.10546875
169.37255859375
150.146484375
126.3427734375
101.62353515625
106.201171875
103.45458984375
86.0595703125
61.34033203125
43.02978515625
35.70556640625
32.04345703125
35.70556640625
20.1416015625
17.39501953125
19.22607421875
27.4658203125
20.1416015625
17.39501953125
12.8173828125
-0.91552734375
2.74658203125
-1.8310546875
-1.8310546875
-12.8173828125
-38.4521484375
-58.59375
-58.59375
-80.56640625
-74.15771484375
-74.15771484375
-82.3974609375
-65.91796875
-54.931640625
-69.580078125
-77.81982421875
-86.0595703125
-93.3837890625
-96.13037109375
-93.3837890625
-90.63720703125
-91.552734375
-98.876953125
-94.29931640625
-92.46826171875
-90.63720703125
-92.46826171875
-108.94775390625
-97.96142578125
-95.21484375
-100.7080078125
-114.44091796875
-120.849609375
-109.86328125
-98.876953125
-97.96142578125
-97.0458984375
-92.46826171875
-108.94775390625
-123.59619140625
-127.25830078125
-119.0185546875
-109.86328125
-116.27197265625
-104.3701171875
-98.876953125
-99.79248046875
-111.6943359375
-109.86328125
-102.5390625
-86.0595703125
-80.56640625
-86.0595703125
-80.56640625
-82.3974609375
-75.98876953125
-86.97509765625
-113.525390625
-119.0185546875
-113.525390625
-120.849609375
-123.59619140625
-124.51171875
-107.11669921875
-112.60986328125
-105.28564453125
-88.80615234375
-83.31298828125
-85.14404296875
-100.7080078125
-110.77880859375
-118.10302734375
-109.86328125
-105.28564453125
-107.11669921875
-99.79248046875
-96.13037109375
-104.3701171875
-108.0322265625
-108.94775390625
-111.6943359375
-111.6943359375
-101.62353515625
-111.6943359375
-107.11669921875
-109.86328125
-114.44091796875
-116.27197265625
-97.0458984375
-100.7080078125
-112.60986328125
-118.10302734375
-128.173828125
-130.92041015625
-141.90673828125
-140.9912109375
-128.173828125
-134.58251953125
-138.24462890625
-144.6533203125
-141.90673828125
-135.498046875
-139.16015625
-145.56884765625
-121.76513671875
-126.3427734375
-133.6669921875
-122.6806640625
-108.0322265625
-108.0322265625
-111.6943359375
-120.849609375
-124.51171875
-132.75146484375
-133.6669921875
-131.8359375
-130.0048828125
-129.08935546875
-117.1875
-121.76513671875
-123.59619140625
-133.6669921875
-138.24462890625
-133.6669921875
-129.08935546875
-108.0322265625
-120.849609375
-128.173828125
-135.498046875
-150.146484375
-151.06201171875
-151.06201171875
-153.80859375
-148.3154296875
-146.484375
-129.08935546875
-136.41357421875
-137.3291015625
-136.41357421875
-116.27197265625
-103.45458984375
-95.21484375
-108.0322265625
-107.11669921875
-105.28564453125
-104.3701171875
-106.201171875
-120.849609375
-121.76513671875
-121.76513671875
-110.77880859375
-115.3564453125
-119.93408203125
-119.0185546875
-103.45458984375
-103.45458984375
-95.21484375
-85.14404296875
-72.32666015625
-73.2421875
-72.32666015625
-76.904296875
-84.228515625
-73.2421875
-68.66455078125
-57.67822265625
-53.1005859375
-68.66455078125
-67.7490234375
-72.32666015625
-86.97509765625
-101.62353515625
-93.3837890625
-72.32666015625
-67.7490234375
-78.7353515625
-75.98876953125
-66.83349609375
-51.26953125
-49.4384765625
-59.50927734375
-57.67822265625
-57.67822265625
-55.84716796875
-54.931640625
-42.1142578125
-36.62109375
-42.1142578125
-50.35400390625
-72.32666015625
-83.31298828125
-85.14404296875
-96.13037109375
-104.3701171875
-119.0185546875
-123.59619140625
-135.498046875
-134.58251953125
-135.498046875
-130.0048828125
-128.173828125
-125.42724609375
-122.6806640625
-130.0048828125
-140.9912109375
-139.16015625
-143.73779296875
-147.39990234375
-147.39990234375
-142.822265625
-134.58251953125
-129.08935546875
-116.27197265625
-108.0322265625
-115.3564453125
-129.08935546875
-133.6669921875
-124.51171875
-128.173828125
-127.25830078125
-131.8359375
-146.484375
-159.3017578125
-167.54150390625
-178.52783203125
-172.119140625
-170.2880859375
-173.03466796875
-152.89306640625
-126.3427734375
-68.66455078125
38.4521484375
174.86572265625
337.82958984375
484.31396484375
653.6865234375
815.73486328125
970.458984375
1028.13720703125
990.6005859375
873.4130859375
692.138671875
486.14501953125
227.96630859375
-15.56396484375
-233.45947265625
-385.43701171875
-475.15869140625
-487.060546875
-462.34130859375
-412.90283203125
-370.78857421875
-350.64697265625
-325.01220703125
-298.4619140625
-271.91162109375
-251.77001953125
-214.2333984375
-168.45703125
-149.23095703125
-130.0048828125
-108.0322265625
-106.201171875
-101.62353515625
-106.201171875
-108.0322265625
-109.86328125
-115.3564453125
-118.10302734375
-109.86328125
-102.5390625
-103.45458984375
-86.0595703125
-79.65087890625
-86.0595703125
-99.79248046875
-90.63720703125
-85.14404296875
-83.31298828125
-86.97509765625
-81.48193359375
-70.49560546875
-80.56640625
-81.48193359375
-83.31298828125
-76.904296875
-75.98876953125
-70.49560546875
-54.931640625
-48.52294921875
-35.70556640625
-39.36767578125
-32.958984375
-43.02978515625
-39.36767578125
-34.7900390625
-43.9453125
-55.84716796875
-58.59375
-43.9453125
-41.19873046875
-51.26953125
-44.86083984375
-32.04345703125
-31.1279296875
-30.21240234375
-28.38134765625
-23.8037109375
-23.8037109375
-22.88818359375
-10.986328125
-10.986328125
-20.1416015625
-13.73291015625
-14.6484375
-18.310546875
-17.39501953125
-17.39501953125
-12.8173828125
-0.91552734375
8.23974609375
19.22607421875
22.88818359375
18.310546875
10.986328125
21.05712890625
25.634765625
40.283203125
48.52294921875
38.4521484375
54.931640625
59.50927734375
53.1005859375
63.17138671875
68.66455078125
81.48193359375
93.3837890625
87.890625
73.2421875
94.29931640625
96.13037109375
94.29931640625
104.3701171875
113.525390625
117.1875
122.6806640625
132.75146484375
136.41357421875
145.56884765625
147.39990234375
143.73779296875
156.55517578125
166.6259765625
174.86572265625
184.02099609375
197.75390625
200.50048828125
204.16259765625
211.48681640625
208.740234375
216.97998046875
213.31787109375
202.33154296875
213.31787109375
224.30419921875
236.2060546875
229.79736328125
228.8818359375
242.61474609375
251.77001953125
252.685546875
257.26318359375
260.009765625
266.41845703125
261.8408203125
252.685546875
258.1787109375
259.09423828125
249.93896484375
237.12158203125
216.064453125
211.48681640625
205.078125
183.10546875
185.85205078125
190.4296875
175.78125
162.04833984375
140.07568359375
126.3427734375
111.6943359375
94.29931640625
76.904296875
77.81982421875
79.65087890625
65.00244140625
46.69189453125
24.71923828125
4.57763671875
-0.91552734375
-3.662109375
-9.1552734375
-16.4794921875
-13.73291015625
-13.73291015625
-0.91552734375
4.57763671875
-24.71923828125
-36.62109375
-44.86083984375
-50.35400390625
-66.83349609375
-72.32666015625
-63.17138671875
-54.931640625
-54.931640625
-61.34033203125
-54.931640625
-53.1005859375
-67.7490234375
-75.0732421875
-80.56640625
-81.48193359375
-54.01611328125
-34.7900390625
-46.69189453125
-54.01611328125
-43.9453125
-34.7900390625
-52.18505859375
-79.65087890625
-86.97509765625
-97.0458984375
-97.0458984375
-94.29931640625
-84.228515625
-82.3974609375
-92.46826171875
-87.890625
-88.80615234375
-104.3701171875
-97.96142578125
-98.876953125
-88.80615234375
-75.0732421875
-35.70556640625
-31.1279296875
-28.38134765625
-58.59375
-80.56640625
-93.3837890625
-99.79248046875
-82.3974609375
-74.15771484375
-76.904296875
-90.63720703125
-94.29931640625
-96.13037109375
-97.96142578125
-93.3837890625
-90.63720703125
-91.552734375
-98.876953125
-97.0458984375
-95.21484375
-69.580078125
-91.552734375
-90.63720703125
-97.0458984375
-94.29931640625
-90.63720703125
-105.28564453125
-111.6943359375
-106.201171875
-103.45458984375
-107.11669921875
-97.0458984375
-95.21484375
-95.21484375
-94.29931640625
-96.13037109375
-98.876953125
-106.201171875
-106.201171875
-114.44091796875
-119.0185546875
-106.201171875
-92.46826171875
-93.3837890625
-97.0458984375
-110.77880859375
-119.0185546875
-122.6806640625
-126.3427734375
-133.6669921875
-123.59619140625
-110.77880859375
-119.0185546875
-109.86328125
-102.5390625
-100.7080078125
-100.7080078125
-111.6943359375
-108.94775390625
-108.0322265625
-116.27197265625
-117.1875
-114.44091796875
-112.60986328125
-112.60986328125
-120.849609375
-123.59619140625
-124.51171875
-123.59619140625
-129.08935546875
-134.58251953125
-128.173828125
-109.86328125
-93.3837890625
-97.96142578125
-113.525390625
-119.0185546875
-119.93408203125
-116.27197265625
-118.10302734375
-119.0185546875
-121.76513671875
-119.93408203125
-119.0185546875
-110.77880859375
-112.60986328125
-115.3564453125
-108.94775390625
-119.93408203125
-114.44091796875
-121.76513671875
-122.6806640625
-117.1875
-107.11669921875
-102.5390625
-103.45458984375
-103.45458984375
-103.45458984375
-105.28564453125
-121.76513671875
-129.08935546875
-137.3291015625
-128.173828125
-122.6806640625
-118.10302734375
-114.44091796875
-117.1875
-120.849609375
-123.59619140625
-136.41357421875
-138.24462890625
-130.92041015625
-129.08935546875
-134.58251953125
-120.849609375
-112.60986328125
-118.10302734375
-119.0185546875
-95.21484375
-86.97509765625
-75.0732421875
-70.49560546875
-72.32666015625
-77.81982421875
-79.65087890625
-85.14404296875
-91.552734375
-94.29931640625
-91.552734375
-85.14404296875
-82.3974609375
-75.0732421875
-74.15771484375
-67.7490234375
-51.26953125
-66.83349609375
-63.17138671875
-66.83349609375
-67.7490234375
-59.50927734375
-46.69189453125
-53.1005859375
-55.84716796875
-57.67822265625
-59.50927734375
-55.84716796875
-54.01611328125
-41.19873046875
-32.04345703125
-39.36767578125
-47.607421875
-54.01611328125
-44.86083984375
-61.34033203125
-75.98876953125
-104.3701171875
-119.93408203125
-126.3427734375
-125.42724609375
-129.08935546875
-125.42724609375
-129.08935546875
-131.8359375
-123.59619140625
-121.76513671875
-120.849609375
-127.25830078125
-125.42724609375
-134.58251953125
-133.6669921875
-128.173828125
-122.6806640625
-120.849609375
-136.41357421875
-138.24462890625
-133.6669921875
-135.498046875
-135.498046875
-140.07568359375
-138.24462890625
-143.73779296875
-145.56884765625
-145.56884765625
-149.23095703125
-153.80859375
-168.45703125
-171.20361328125
-160.21728515625
-146.484375
-135.498046875
-138.24462890625
-133.6669921875
-105.28564453125
-37.53662109375
74.15771484375
227.05078125
379.94384765625
541.9921875
675.6591796875
808.41064453125
900.87890625
880.7373046875
768.12744140625
599.67041015625
407.40966796875
161.1328125
-93.3837890625
-292.05322265625
-440.36865234375
-501.708984375
-492.5537109375
-469.66552734375
-443.115234375
-385.43701171875
-349.7314453125
-327.7587890625
-300.29296875
-288.39111328125
-294.7998046875
-293.88427734375
-273.74267578125
-241.69921875
-216.064453125
-183.10546875
-144.6533203125
-132.75146484375
-127.25830078125
-108.94775390625
-98.876953125
-108.0322265625
-110.77880859375
-101.62353515625
-87.890625
-88.80615234375
-97.96142578125
-101.62353515625
-93.3837890625
-87.890625
-91.552734375
-89.7216796875
-92.46826171875
-85.14404296875
-84.228515625
-85.14404296875
-75.98876953125
-76.904296875
-81.48193359375
-79.65087890625
-73.2421875
-75.0732421875
-69.580078125
-63.17138671875
-65.00244140625
-61.34033203125
-65.00244140625
-64.0869140625
-64.0869140625
-47.607421875
-46.69189453125
-43.02978515625
-43.9453125
-43.02978515625
-45.7763671875
-43.9453125
-49.4384765625
-37.53662109375
-22.88818359375
-17.39501953125
-24.71923828125
-13.73291015625
-17.39501953125
-26.55029296875
-23.8037109375
-17.39501953125
-11.90185546875
-6.40869140625
-6.40869140625
-13.73291015625
-15.56396484375
-3.662109375
2.74658203125
8.23974609375
6.40869140625
8.23974609375
14.6484375
8.23974609375
14.6484375
21.97265625
33.87451171875
33.87451171875
34.7900390625
39.36767578125
47.607421875
54.01611328125
46.69189453125
48.52294921875
49.4384765625
67.7490234375
68.66455078125
64.0869140625
79.65087890625
91.552734375
95.21484375
104.3701171875
110.77880859375
116.27197265625
131.8359375
138.24462890625
142.822265625
148.3154296875
160.21728515625
163.87939453125
165.71044921875
176.69677734375
188.5986328125
195.00732421875
197.75390625
201.416015625
199.5849609375
207.82470703125
223.388671875
227.96630859375
233.45947265625
245.361328125
247.1923828125
243.5302734375
254.5166015625
265.5029296875
262.75634765625
266.41845703125
273.74267578125
281.06689453125
281.06689453125
269.1650390625
272.8271484375
277.40478515625
282.89794921875
272.8271484375
270.08056640625
270.99609375
270.99609375
260.92529296875
251.77001953125
233.45947265625
237.12158203125
220.64208984375
208.740234375
186.767578125
171.20361328125
162.04833984375
151.9775390625
147.39990234375
145.56884765625
128.173828125
112.60986328125
92.46826171875
87.890625
74.15771484375
54.931640625
43.02978515625
33.87451171875
23.8037109375
17.39501953125
10.07080078125
-2.74658203125
-4.57763671875
-16.4794921875
-24.71923828125
-30.21240234375
-31.1279296875
-39.36767578125
-42.1142578125
-48.52294921875
-54.01611328125
-56.7626953125
-65.91796875
-69.580078125
-71.4111328125
-74.15771484375
-75.98876953125
-76.904296875
-78.7353515625
-82.3974609375
-80.56640625
-74.15771484375
-78.7353515625
-79.65087890625
-80.56640625
-79.65087890625
-78.7353515625
-81.48193359375
-78.7353515625
-78.7353515625
-78.7353515625
-83.31298828125
-88.80615234375
-81.48193359375
-77.81982421875
-85.14404296875
-90.63720703125
-84.228515625
-89.7216796875
-91.552734375
-79.65087890625
-79.65087890625
-77.81982421875
-74.15771484375
-86.97509765625
-93.3837890625
-84.228515625
-83.31298828125
-84.228515625
-79.65087890625
-79.65087890625
-78.7353515625
-75.98876953125
-79.65087890625
-86.97509765625
-86.0595703125
-87.890625
-82.3974609375
-85.14404296875
-83.31298828125
-81.48193359375
-86.0595703125
-78.7353515625
-75.98876953125
-83.31298828125
-86.0595703125
-84.228515625
-81.48193359375
-87.890625
-89.7216796875
-88.80615234375
-86.0595703125
-84.228515625
-87.890625
-80.56640625
-75.98876953125
-88.80615234375
-94.29931640625
-97.0458984375
-103.45458984375
-104.3701171875
-96.13037109375
-101.62353515625
-102.5390625
-101.62353515625
-107.11669921875
-103.45458984375
-99.79248046875
-97.96142578125
-93.3837890625
-103.45458984375
-106.201171875
-104.3701171875
-106.201171875
-110.77880859375
-117.1875
-111.6943359375
-110.77880859375
-107.11669921875
-105.28564453125
-108.0322265625
-106.201171875
-107.11669921875
-108.94775390625
-105.28564453125
-105.28564453125
-117.1875
-110.77880859375
-104.3701171875
-112.60986328125
-113.525390625
-110.77880859375
-114.44091796875
-113.525390625
-110.77880859375
-119.0185546875
-119.93408203125
-115.3564453125
-112.60986328125
-114.44091796875
-114.44091796875
-108.0322265625
-112.60986328125
-117.1875
-111.6943359375
-112.60986328125
-112.60986328125
-119.93408203125
-111.6943359375
-108.94775390625
-106.201171875
-97.96142578125
-97.96142578125
-84.228515625
-81.48193359375
-77.81982421875
-79.65087890625
-70.49560546875
-69.580078125
-72.32666015625
-75.0732421875
-70.49560546875
-66.83349609375
-73.2421875
-68.66455078125
-70.49560546875
-65.91796875
-70.49560546875
-71.4111328125
-65.91796875
-59.50927734375
-58.59375
-55.84716796875
-53.1005859375
-51.26953125
-38.4521484375
-39.36767578125
-46.69189453125
-42.1142578125
-35.70556640625
-38.4521484375
-37.53662109375
-32.958984375
-36.62109375
-49.4384765625
-62.255859375
-62.255859375
-66.83349609375
-76.904296875
-92.46826171875
-100.7080078125
-110.77880859375
-111.6943359375
-108.94775390625
-107.11669921875
-114.44091796875
-119.93408203125
-127.25830078125
-117.1875
-115.3564453125
-119.93408203125
-123.59619140625
-124.51171875
-121.76513671875
-124.51171875
-121.76513671875
-119.93408203125
-122.6806640625
-126.3427734375
-120.849609375
-114.44091796875
-116.27197265625
-121.76513671875
-121.76513671875
-118.10302734375
-117.1875
-125.42724609375
-126.3427734375
-130.92041015625
-141.90673828125
-152.89306640625
-161.1328125
-158.38623046875
-159.3017578125
-145.56884765625
-136.41357421875
-114.44091796875
-68.66455078125
18.310546875
144.6533203125
260.92529296875
410.15625
560.302734375
676.57470703125
790.10009765625
845.03173828125
794.677734375
680.23681640625
503.5400390625
299.37744140625
58.59375
-158.38623046875
-340.576171875
-464.17236328125
-525.5126953125
-506.28662109375
-476.07421875
-433.9599609375
-380.859375
-331.4208984375
-317.68798828125
-310.36376953125
-299.37744140625
-294.7998046875
-281.982421875
-259.09423828125
-236.2060546875
-206.9091796875
-183.10546875
-151.06201171875
-131.8359375
-119.93408203125
-100.7080078125
-97.0458984375
-97.0458984375
-88.80615234375
-88.80615234375
-88.80615234375
-89.7216796875
-86.0595703125
-85.14404296875
-83.31298828125
-83.31298828125
-75.98876953125
-77.81982421875
-81.48193359375
-73.2421875
-70.49560546875
-69.580078125
-71.4111328125
-65.91796875
-69.580078125
-68.66455078125
-63.17138671875
-63.17138671875
-62.255859375
-53.1005859375
-45.7763671875
-53.1005859375
-52.18505859375
-47.607421875
-48.52294921875
-44.86083984375
-43.9453125
-44.86083984375
-51.26953125
-37.53662109375
-32.04345703125
-39.36767578125
-29.296875
-29.296875
-26.55029296875
-28.38134765625
-21.97265625
-17.39501953125
-16.4794921875
-17.39501953125
-7.32421875
-1.8310546875
1.8310546875
-0.91552734375
5.4931640625
10.986328125
13.73291015625
14.6484375
11.90185546875
16.4794921875
24.71923828125
21.05712890625
29.296875
32.958984375
39.36767578125
36.62109375
37.53662109375
37.53662109375
42.1142578125
50.35400390625
56.7626953125
62.255859375
65.91796875
72.32666015625
85.14404296875
91.552734375
93.3837890625
93.3837890625
104.3701171875
110.77880859375
113.525390625
123.59619140625
129.08935546875
128.173828125
138.24462890625
142.822265625
148.3154296875
163.87939453125
165.71044921875
174.86572265625
177.6123046875
185.85205078125
193.17626953125
195.00732421875
206.9091796875
216.064453125
225.2197265625
228.8818359375
235.29052734375
236.2060546875
240.78369140625
250.8544921875
258.1787109375
268.24951171875
270.08056640625
267.333984375
271.91162109375
277.40478515625
275.57373046875
275.57373046875
280.1513671875
278.3203125
283.8134765625
274.658203125
267.333984375
269.1650390625
264.58740234375
257.26318359375
246.27685546875
242.61474609375
233.45947265625
217.8955078125
204.16259765625
195.9228515625
189.51416015625
169.37255859375
156.55517578125
140.07568359375
130.92041015625
129.08935546875
114.44091796875
102.5390625
86.97509765625
70.49560546875
61.34033203125
52.18505859375
46.69189453125
36.62109375
22.88818359375
12.8173828125
-1.8310546875
-10.07080078125
-14.6484375
-15.56396484375
-23.8037109375
-38.4521484375
-36.62109375
-39.36767578125
-50.35400390625
-59.50927734375
-57.67822265625
-60.4248046875
-65.91796875
-63.17138671875
-65.91796875
-71.4111328125
-72.32666015625
-70.49560546875
-72.32666015625
-78.7353515625
-74.15771484375
-73.2421875
-75.98876953125
-88.80615234375
-84.228515625
-82.3974609375
-84.228515625
-78.7353515625
-86.97509765625
-96.13037109375
-95.21484375
-93.3837890625
-89.7216796875
-84.228515625
-83.31298828125
-75.0732421875
-76.904296875
-76.904296875
-75.98876953125
-72.32666015625
-72.32666015625
-75.0732421875
-82.3974609375
-76.904296875
-90.63720703125
-91.552734375
-77.81982421875
-81.48193359375
-78.7353515625
-74.15771484375
-76.904296875
-76.904296875
-78.7353515625
-77.81982421875
-75.0732421875
-75.98876953125
-81.48193359375
-85.14404296875
-86.97509765625
-88.80615234375
-88.80615234375
-85.14404296875
-78.7353515625
-75.98876953125
-82.3974609375
-92.46826171875
-93.3837890625
-87.890625
-91.552734375
-94.29931640625
-94.29931640625
-90.63720703125
-86.97509765625
-93.3837890625
-93.3837890625
-85.14404296875
-88.80615234375
-92.46826171875
-101.62353515625
-91.552734375
-95.21484375
-96.13037109375
-101.62353515625
-103.45458984375
-102.5390625
-101.62353515625
-98.876953125
-102.5390625
-101.62353515625
-111.6943359375
-106.201171875
-106.201171875
-111.6943359375
-104.3701171875
-109.86328125
-109.86328125
-110.77880859375
-112.60986328125
-108.94775390625
-103.45458984375
-104.3701171875
-109.86328125
-108.0322265625
-109.86328125
-109.86328125
-108.94775390625
-104.3701171875
-108.0322265625
-108.0322265625
-107.11669921875
-105.28564453125
-109.86328125
-107.11669921875
-104.3701171875
-108.0322265625
-111.6943359375
-113.525390625
-119.0185546875
-112.60986328125
-109.86328125
-109.86328125
-110.77880859375
-114.44091796875
-118.10302734375
-119.93408203125
-118.10302734375
-111.6943359375
-114.44091796875
-114.44091796875
-113.525390625
-114.44091796875
-119.93408203125
-115.3564453125
-112.60986328125
-118.10302734375
-115.3564453125
-116.27197265625
-118.10302734375
-116.27197265625
-117.1875
-118.10302734375
-121.76513671875
-122.6806640625
-117.1875
-119.93408203125
-122.6806640625
-119.93408203125
-120.849609375
-120.849609375
-121.76513671875
-115.3564453125
-113.525390625
-107.11669921875
-101.62353515625
-109.86328125
-106.201171875
-96.13037109375
-86.0595703125
-82.3974609375
-78.7353515625
-77.81982421875
-78.7353515625
-70.49560546875
-62.255859375
-65.91796875
-64.0869140625
-69.580078125
-72.32666015625
-65.00244140625
-63.17138671875
-68.66455078125
-73.2421875
-70.49560546875
-69.580078125
-61.34033203125
-61.34033203125
-60.4248046875
-61.34033203125
-60.4248046875
-54.01611328125
-44.86083984375
-45.7763671875
-43.9453125
-49.4384765625
-48.52294921875
-36.62109375
-24.71923828125
-24.71923828125
-32.958984375
-41.19873046875
-46.69189453125
-55.84716796875
-65.91796875
-79.65087890625
-93.3837890625
-106.201171875
-113.525390625
-110.77880859375
-109.86328125
-119.0185546875
-122.6806640625
-118.10302734375
-119.93408203125
-119.93408203125
-119.93408203125
-119.93408203125
-124.51171875
-121.76513671875
-122.6806640625
-127.25830078125
-125.42724609375
-121.76513671875
-124.51171875
-127.25830078125
-124.51171875
-122.6806640625
-129.08935546875
-130.0048828125
-134.58251953125
-131.8359375
-129.08935546875
-130.0048828125
-126.3427734375
-127.25830078125
-140.07568359375
-153.80859375
-151.9775390625
-148.3154296875
-144.6533203125
-145.56884765625
-130.92041015625
-92.46826171875
-32.04345703125
64.0869140625
196.83837890625
361.63330078125
516.357421875
663.75732421875
816.650390625
953.9794921875
996.09375
953.06396484375
834.04541015625
665.58837890625
445.86181640625
174.86572265625
-76.904296875
-272.8271484375
-417.48046875
-487.97607421875
-499.8779296875
-471.49658203125
-416.56494140625
-379.0283203125
-339.66064453125
-305.7861328125
-291.1376953125
-281.982421875
-262.75634765625
-244.44580078125
-214.2333984375
-176.69677734375
-157.470703125
-136.41357421875
-115.3564453125
-102.5390625
-103.45458984375
-106.201171875
-99.79248046875
-97.0458984375
-95.21484375
-98.876953125
-95.21484375
-97.0458984375
-97.0458984375
-94.29931640625
-91.552734375
-92.46826171875
-86.0595703125
-85.14404296875
-79.65087890625
-80.56640625
-79.65087890625
-75.0732421875
-81.48193359375
-82.3974609375
-80.56640625
-77.81982421875
-73.2421875
-68.66455078125
-65.00244140625
-56.7626953125
-54.01611328125
-59.50927734375
-55.84716796875
-61.34033203125
-57.67822265625
-54.01611328125
-50.35400390625
-53.1005859375
-46.69189453125
-38.4521484375
-39.36767578125
-37.53662109375
-40.283203125
-33.87451171875
-34.7900390625
-30.21240234375
-27.4658203125
-29.296875
-23.8037109375
-21.05712890625
-21.05712890625
-10.07080078125
-10.986328125
-12.8173828125
-15.56396484375
-13.73291015625
-7.32421875
-6.40869140625
-1.8310546875
2.74658203125
-0.91552734375
6.40869140625
10.986328125
18.310546875
24.71923828125
29.296875
33.87451171875
37.53662109375
34.7900390625
32.04345703125
36.62109375
45.7763671875
50.35400390625
53.1005859375
54.931640625
61.34033203125
67.7490234375
70.49560546875
76.904296875
87.890625
92.46826171875
99.79248046875
108.94775390625
110.77880859375
116.27197265625
119.0185546875
126.3427734375
136.41357421875
143.73779296875
152.89306640625
153.80859375
160.21728515625
166.6259765625
169.37255859375
183.10546875
194.091796875
197.75390625
202.33154296875
213.31787109375
210.5712890625
220.64208984375
228.8818359375
228.8818359375
229.79736328125
239.8681640625
248.10791015625
245.361328125
247.1923828125
250.8544921875
252.685546875
254.5166015625
259.09423828125
269.1650390625
264.58740234375
259.09423828125
253.60107421875
253.60107421875
250.8544921875
240.78369140625
235.29052734375
227.05078125
222.47314453125
211.48681640625
192.2607421875
180.35888671875
176.69677734375
158.38623046875
140.9912109375
132.75146484375
121.76513671875
113.525390625
103.45458984375
92.46826171875
77.81982421875
63.17138671875
51.26953125
37.53662109375
30.21240234375
20.1416015625
12.8173828125
-1.8310546875
-14.6484375
-19.22607421875
-23.8037109375
-31.1279296875
-35.70556640625
-39.36767578125
-44.86083984375
-55.84716796875
-55.84716796875
-54.01611328125
-56.7626953125
-63.17138671875
-64.0869140625
-67.7490234375
-67.7490234375
-65.00244140625
-75.98876953125
-78.7353515625
-75.0732421875
-76.904296875
-78.7353515625
-82.3974609375
-85.14404296875
-93.3837890625
-88.80615234375
-83.31298828125
-81.48193359375
-80.56640625
-83.31298828125
-79.65087890625
-75.98876953125
-82.3974609375
-82.3974609375
-77.81982421875
-82.3974609375
-89.7216796875
-85.14404296875
-84.228515625
-82.3974609375
-83.31298828125
-80.56640625
-79.65087890625
-85.14404296875
-86.97509765625
-84.228515625
-84.228515625
-79.65087890625
-86.0595703125
-85.14404296875
-86.0595703125
-86.0595703125
-88.80615234375
-86.97509765625
-86.0595703125
-86.97509765625
-82.3974609375
-89.7216796875
-90.63720703125
-89.7216796875
-90.63720703125
-90.63720703125
-86.97509765625
-86.0595703125
-86.97509765625
-92.46826171875
-91.552734375
-94.29931640625
-95.21484375
-98.876953125
-97.0458984375
-102.5390625
-97.96142578125
-94.29931640625
-95.21484375
-97.96142578125
-102.5390625
-97.96142578125
-95.21484375
-101.62353515625
-101.62353515625
-105.28564453125
-103.45458984375
-107.11669921875
-103.45458984375
-101.62353515625
-107.11669921875
-109.86328125
-108.94775390625
-109.86328125
-105.28564453125
-108.0322265625
-105.28564453125
-107.11669921875
-112.60986328125
-108.0322265625
-105.28564453125
-107.11669921875
-107.11669921875
-107.11669921875
-107.11669921875
-109.86328125
-114.44091796875
-116.27197265625
-106.201171875
-112.60986328125
-114.44091796875
-117.1875
-113.525390625
-116.27197265625
-116.27197265625
-122.6806640625
-119.0185546875
-117.1875
-116.27197265625
-109.86328125
-114.44091796875
-113.525390625
-116.27197265625
-120.849609375
-121.76513671875
-120.849609375
-112.60986328125
-115.3564453125
-116.27197265625
-114.44091796875
-115.3564453125
-119.93408203125
-121.76513671875
-114.44091796875
-119.93408203125
-127.25830078125
-130.92041015625
-125.42724609375
-121.76513671875
-121.76513671875
-125.42724609375
-121.76513671875
-119.0185546875
-121.76513671875
-118.10302734375
-119.93408203125
-119.0185546875
-119.93408203125
-115.3564453125
-115.3564453125
-119.93408203125
-118.10302734375
-116.27197265625
-117.1875
-117.1875
-112.60986328125
-119.0185546875
-116.27197265625
-116.27197265625
-113.525390625
-113.525390625
-119.0185546875
-121.76513671875
-117.1875
-116.27197265625
-119.93408203125
-117.1875
-119.0185546875
-120.849609375
-117.1875
-117.1875
-123.59619140625
-124.51171875
-119.0185546875
-119.0185546875
-117.1875
-112.60986328125
-115.3564453125
-119.0185546875
-121.76513671875
-126.3427734375
-127.25830078125
-119.93408203125
-123.59619140625
-115.3564453125
-115.3564453125
-123.59619140625
-119.93408203125
-117.1875
-115.3564453125
-122.6806640625
-120.849609375
-119.0185546875
-117.1875
-115.3564453125
-112.60986328125
-114.44091796875
-115.3564453125
-118.10302734375
-115.3564453125
-114.44091796875
-113.525390625
-116.27197265625
-117.1875
-102.5390625
-97.0458984375
-93.3837890625
-92.46826171875
-80.56640625
-79.65087890625
-77.81982421875
-77.81982421875
-73.2421875
-65.00244140625
-66.83349609375
-65.91796875
-62.255859375
-62.255859375
-66.83349609375
-65.91796875
-66.83349609375
-74.15771484375
-86.0595703125
-83.31298828125
-69.580078125
-68.66455078125
-67.7490234375
-67.7490234375
-64.0869140625
-59.50927734375
-46.69189453125
-47.607421875
-54.931640625
-54.931640625
-55.84716796875
-46.69189453125
-37.53662109375
-30.21240234375
-26.55029296875
-28.38134765625
-36.62109375
-54.01611328125
-58.59375
-67.7490234375
-75.98876953125
-85.14404296875
-96.13037109375
-103.45458984375
-113.525390625
-117.1875
-118.10302734375
-125.42724609375
-120.849609375
-111.6943359375
-116.27197265625
-114.44091796875
-114.44091796875
-117.1875
-118.10302734375
-116.27197265625
-119.93408203125
-123.59619140625
-119.93408203125
-119.93408203125
-118.10302734375
-116.27197265625
-115.3564453125
-123.59619140625
-120.849609375
-113.525390625
-123.59619140625
-123.59619140625
-122.6806640625
-123.59619140625
-126.3427734375
-135.498046875
-144.6533203125
-157.470703125
-159.3017578125
-152.89306640625
-137.3291015625
-126.3427734375
-108.0322265625
-65.00244140625
11.90185546875
122.6806640625
274.658203125
437.6220703125
589.599609375
745.2392578125
902.7099609375
1022.64404296875
1057.43408203125
1006.16455078125
867.919921875
687.56103515625
453.18603515625
173.9501953125
-65.91796875
-268.24951171875
-418.39599609375
-485.2294921875
-483.3984375
-453.18603515625
-406.494140625
-353.3935546875
-317.68798828125
-299.37744140625
-269.1650390625
-235.29052734375
-202.33154296875
-167.54150390625
-141.90673828125
-124.51171875
-101.62353515625
-93.3837890625
-93.3837890625
-94.29931640625
-96.13037109375
-98.876953125
-96.13037109375
-97.0458984375
-98.876953125
-96.13037109375
-93.3837890625
-86.97509765625
-91.552734375
-84.228515625
-86.97509765625
-88.80615234375
-77.81982421875
-79.65087890625
-71.4111328125
-74.15771484375
-73.2421875
-73.2421875
-74.15771484375
-70.49560546875
-71.4111328125
-73.2421875
-69.580078125
-65.00244140625
-63.17138671875
-62.255859375
-61.34033203125
-65.91796875
-60.4248046875
-56.7626953125
-54.01611328125
-52.18505859375
-55.84716796875
-57.67822265625
-53.1005859375
-47.607421875
-51.26953125
-49.4384765625
-51.26953125
-43.02978515625
-37.53662109375
-34.7900390625
-32.958984375
-28.38134765625
-23.8037109375
-25.634765625
-20.1416015625
-18.310546875
-13.73291015625
-15.56396484375
-18.310546875
-8.23974609375
-8.23974609375
-6.40869140625
-0.91552734375
0
8.23974609375
10.07080078125
9.1552734375
16.4794921875
20.1416015625
26.55029296875
20.1416015625
21.05712890625
32.958984375
38.4521484375
34.7900390625
36.62109375
46.69189453125
53.1005859375
49.4384765625
49.4384765625
54.01611328125
58.59375
70.49560546875
81.48193359375
86.97509765625
87.890625
88.80615234375
98.876953125
105.28564453125
110.77880859375
117.1875
124.51171875
130.0048828125
135.498046875
145.56884765625
151.06201171875
154.72412109375
160.21728515625
163.87939453125
173.9501953125
183.10546875
192.2607421875
199.5849609375
203.2470703125
206.9091796875
210.5712890625
214.2333984375
219.7265625
220.64208984375
224.30419921875
235.29052734375
235.29052734375
234.375
246.27685546875
246.27685546875
241.69921875
249.0234375
245.361328125
246.27685546875
243.5302734375
239.8681640625
240.78369140625
234.375
234.375
227.05078125
213.31787109375
204.16259765625
195.9228515625
186.767578125
178.52783203125
165.71044921875
155.6396484375
151.06201171875
137.3291015625
127.25830078125
108.0322265625
97.0458984375
91.552734375
73.2421875
55.84716796875
48.52294921875
38.4521484375
32.04345703125
21.97265625
19.22607421875
6.40869140625
0
-9.1552734375
-13.73291015625
-21.97265625
-27.4658203125
-36.62109375
-35.70556640625
-34.7900390625
-34.7900390625
-49.4384765625
-56.7626953125
-62.255859375
-58.59375
-58.59375
-61.34033203125
-67.7490234375
-69.580078125
-69.580078125
-68.66455078125
-67.7490234375
-70.49560546875
-71.4111328125
-67.7490234375
-66.83349609375
-75.0732421875
-84.228515625
-82.3974609375
-78.7353515625
-75.98876953125
-74.15771484375
-73.2421875
-81.48193359375
-81.48193359375
-72.32666015625
-70.49560546875
-74.15771484375
-75.98876953125
-79.65087890625
-78.7353515625
-76.904296875
-79.65087890625
-82.3974609375
-80.56640625
-81.48193359375
-84.228515625
-87.890625
-85.14404296875
-82.3974609375
-86.97509765625
-88.80615234375
-88.80615234375
-86.0595703125
-83.31298828125
-82.3974609375
-83.31298828125
-83.31298828125
-81.48193359375
-85.14404296875
-81.48193359375
-84.228515625
-87.890625
-94.29931640625
-95.21484375
-85.14404296875
-83.31298828125
-86.97509765625
-89.7216796875
-86.0595703125
-88.80615234375
-93.3837890625
-90.63720703125
-88.80615234375
-86.97509765625
-86.97509765625
-92.46826171875
-93.3837890625
-97.0458984375
-94.29931640625
-92.46826171875
-100.7080078125
-92.46826171875
-95.21484375
-97.0458984375
-95.21484375
-101.62353515625
-98.876953125
-99.79248046875
-97.0458984375
-97.96142578125
-95.21484375
-99.79248046875
-96.13037109375
-99.79248046875
-112.60986328125
-108.0322265625
-106.201171875
-104.3701171875
-102.5390625
-99.79248046875
-101.62353515625
-108.94775390625
-105.28564453125
-107.11669921875
-112.60986328125
-116.27197265625
-112.60986328125
-108.94775390625
-105.28564453125
-103.45458984375
-102.5390625
-106.201171875
-114.44091796875
-114.44091796875
-108.94775390625
-112.60986328125
-116.27197265625
-114.44091796875
-110.77880859375
-104.3701171875
-108.94775390625
-108.0322265625
-111.6943359375
-110.77880859375
-115.3564453125
-113.525390625
-111.6943359375
-109.86328125
-107.11669921875
-106.201171875
-107.11669921875
-108.0322265625
-113.525390625
-110.77880859375
-116.27197265625
-112.60986328125
-109.86328125
-109.86328125
-106.201171875
-113.525390625
-110.77880859375
-108.0322265625
-113.525390625
-117.1875
-116.27197265625
-116.27197265625
-113.525390625
-114.44091796875
-117.1875
-117.1875
-113.525390625
-118.10302734375
-118.10302734375
-118.10302734375
-120.849609375
-124.51171875
-119.93408203125
-112.60986328125
-117.1875
-119.93408203125
-120.849609375
-124.51171875
-120.849609375
-118.10302734375
-119.0185546875
-123.59619140625
-116.27197265625
-119.93408203125
-123.59619140625
-118.10302734375
-109.86328125
-111.6943359375
-114.44091796875
-116.27197265625
-116.27197265625
-112.60986328125
-115.3564453125
-121.76513671875
-119.0185546875
-114.44091796875
-117.1875
-119.0185546875
-119.93408203125
-119.93408203125
-121.76513671875
-119.0185546875
-119.93408203125
-123.59619140625
-119.93408203125
-116.27197265625
-114.44091796875
-111.6943359375
-118.10302734375
-122.6806640625
-116.27197265625
-114.44091796875
-114.44091796875
-113.525390625
-115.3564453125
-117.1875
-121.76513671875
-119.0185546875
-119.0185546875
-125.42724609375
-117.1875
-112.60986328125
-121.76513671875
-121.76513671875
-118.10302734375
-116.27197265625
-111.6943359375
-109.86328125
-118.10302734375
-117.1875
-116.27197265625
-121.76513671875
-119.93408203125
-115.3564453125
-114.44091796875
-114.44091796875
-112.60986328125
-114.44091796875
-115.3564453125
-119.93408203125
-118.10302734375
-116.27197265625
-119.93408203125
-119.0185546875
-117.1875
-117.1875
-119.93408203125
-118.10302734375
-118.10302734375
-119.0185546875
-123.59619140625
-126.3427734375
-122.6806640625
-122.6806640625
-123.59619140625
-126.3427734375
-121.76513671875
-123.59619140625
-123.59619140625
-117.1875
-113.525390625
-111.6943359375
-105.28564453125
-107.11669921875
-108.94775390625
-108.0322265625
-108.0322265625
-97.0458984375
-97.96142578125
-94.29931640625
-86.97509765625
-85.14404296875
-82.3974609375
-68.66455078125
-66.83349609375
-74.15771484375
-71.4111328125
-66.83349609375
-60.4248046875
-65.00244140625
-67.7490234375
-66.83349609375
-72.32666015625
-79.65087890625
-79.65087890625
-75.98876953125
-70.49560546875
-65.91796875
-62.255859375
-60.4248046875
-60.4248046875
-60.4248046875
-46.69189453125
-41.19873046875
-42.1142578125
-39.36767578125
-36.62109375
-40.283203125
-31.1279296875
-22.88818359375
-16.4794921875
-30.21240234375
-43.9453125
-52.18505859375
-60.4248046875
-69.580078125
-76.904296875
-86.97509765625
-104.3701171875
-111.6943359375
-114.44091796875
-114.44091796875
-112.60986328125
-115.3564453125
-113.525390625
-118.10302734375
-123.59619140625
-118.10302734375
-115.3564453125
-119.93408203125
-114.44091796875
-119.0185546875
-123.59619140625
-119.93408203125
-119.0185546875
-114.44091796875
-119.93408203125
-126.3427734375
-121.76513671875
-120.849609375
-115.3564453125
-120.849609375
-121.76513671875
-119.0185546875
-123.59619140625
-123.59619140625
-120.849609375
-130.92041015625
-140.07568359375
-147.39990234375
-152.89306640625
-145.56884765625
-137.3291015625
-131.8359375
-119.93408203125
-95.21484375
-38.4521484375
60.4248046875
200.50048828125
368.0419921875
517.27294921875
671.9970703125
832.21435546875
979.6142578125
1021.728515625
980.52978515625
855.1025390625
681.15234375
469.66552734375
194.091796875
-54.931640625
-261.8408203125
-411.9873046875
-476.07421875
-477.9052734375
-440.36865234375
-393.6767578125
-350.64697265625
-320.4345703125
-293.88427734375
-278.3203125
-267.333984375
-245.361328125
-217.8955078125
-188.5986328125
-159.3017578125
-135.498046875
-120.849609375
-110.77880859375
-103.45458984375
-103.45458984375
-102.5390625
-105.28564453125
-101.62353515625
-97.96142578125
-100.7080078125
-100.7080078125
-99.79248046875
-93.3837890625
-93.3837890625
-89.7216796875
-88.80615234375
-86.97509765625
-85.14404296875
-85.14404296875
-77.81982421875
-73.2421875
-73.2421875
-78.7353515625
-74.15771484375
-76.904296875
-78.7353515625
-64.0869140625
-58.59375
-62.255859375
-60.4248046875
-58.59375
-64.0869140625
-53.1005859375
-50.35400390625
-54.01611328125
-56.7626953125
-47.607421875
-47.607421875
-43.9453125
-39.36767578125
-38.4521484375
-36.62109375
-29.296875
-22.88818359375
-29.296875
-32.04345703125
-28.38134765625
-29.296875
-26.55029296875
-24.71923828125
-23.8037109375
-22.88818359375
-17.39501953125
-16.4794921875
-16.4794921875
-15.56396484375
-10.07080078125
0.91552734375
3.662109375
0
7.32421875
10.07080078125
13.73291015625
19.22607421875
21.97265625
20.1416015625
21.97265625
26.55029296875
32.04345703125
33.87451171875
33.87451171875
41.19873046875
43.9453125
49.4384765625
54.931640625
55.84716796875
61.34033203125
70.49560546875
72.32666015625
76.904296875
81.48193359375
82.3974609375
89.7216796875
100.7080078125
109.86328125
109.86328125
116.27197265625
126.3427734375
136.41357421875
139.16015625
151.9775390625
157.470703125
159.3017578125
162.9638671875
172.119140625
180.35888671875
184.02099609375
192.2607421875
202.33154296875
204.16259765625
204.16259765625
208.740234375
215.14892578125
224.30419921875
227.96630859375
226.13525390625
231.62841796875
234.375
242.61474609375
250.8544921875
251.77001953125
251.77001953125
253.60107421875
254.5166015625
257.26318359375
255.43212890625
260.92529296875
260.92529296875
260.92529296875
259.09423828125
251.77001953125
243.5302734375
235.29052734375
226.13525390625
220.64208984375
212.40234375
197.75390625
188.5986328125
176.69677734375
170.2880859375
152.89306640625
140.07568359375
131.8359375
127.25830078125
110.77880859375
101.62353515625
86.97509765625
70.49560546875
66.83349609375
61.34033203125
51.26953125
34.7900390625
23.8037109375
11.90185546875
2.74658203125
-9.1552734375
-23.8037109375
-26.55029296875
-27.4658203125
-33.87451171875
-43.9453125
-43.9453125
-52.18505859375
-51.26953125
-48.52294921875
-45.7763671875
-47.607421875
-55.84716796875
-58.59375
-59.50927734375
-57.67822265625
-61.34033203125
-67.7490234375
-73.2421875
-72.32666015625
-73.2421875
-75.98876953125
-75.98876953125
-75.0732421875
-66.83349609375
-70.49560546875
-68.66455078125
-71.4111328125
-73.2421875
-70.49560546875
-77.81982421875
-69.580078125
-63.17138671875
-65.00244140625
-75.98876953125
-73.2421875
-68.66455078125
-69.580078125
-76.904296875
-75.0732421875
-78.7353515625
-77.81982421875
-78.7353515625
-78.7353515625
-72.32666015625
-74.15771484375
-76.904296875
-78.7353515625
-79.65087890625
-85.14404296875
-86.0595703125
-82.3974609375
-79.65087890625
-79.65087890625
-77.81982421875
-76.904296875
-77.81982421875
-81.48193359375
-82.3974609375
-83.31298828125
-86.0595703125
-84.228515625
-87.890625
-84.228515625
-76.904296875
-81.48193359375
-86.97509765625
-84.228515625
-86.0595703125
-86.0595703125
-85.14404296875
-84.228515625
-86.0595703125
-88.80615234375
-85.14404296875
-87.890625
-93.3837890625
-92.46826171875
-91.552734375
-97.0458984375
-96.13037109375
-88.80615234375
-89.7216796875
-88.80615234375
-90.63720703125
-90.63720703125
-93.3837890625
-96.13037109375
-100.7080078125
-101.62353515625
-100.7080078125
-104.3701171875
-99.79248046875
-102.5390625
-105.28564453125
-99.79248046875
-103.45458984375
-109.86328125
-106.201171875
-105.28564453125
-110.77880859375
-108.94775390625
-114.44091796875
-103.45458984375
-104.3701171875
-108.0322265625
-107.11669921875
-101.62353515625
-107.11669921875
-109.86328125
-106.201171875
-106.201171875
-104.3701171875
-101.62353515625
-97.96142578125
-107.11669921875
-115.3564453125
-110.77880859375
-113.525390625
-111.6943359375
-112.60986328125
-115.3564453125
-115.3564453125
-108.0322265625
-104.3701171875
-110.77880859375
-123.59619140625
-118.10302734375
-119.0185546875
-116.27197265625
-120.849609375
-127.25830078125
-121.76513671875
-121.76513671875
-119.93408203125
-117.1875
-119.93408203125
-115.3564453125
-114.44091796875
-111.6943359375
-112.60986328125
-113.525390625
-118.10302734375
-113.525390625
-114.44091796875
-118.10302734375
-115.3564453125
-109.86328125
-111.6943359375
-117.1875
-119.93408203125
-116.27197265625
-121.76513671875
-118.10302734375
-109.86328125
-110.77880859375
-117.1875
-114.44091796875
-113.525390625
-108.94775390625
-112.60986328125
-112.60986328125
-113.525390625
-112.60986328125
-112.60986328125
-114.44091796875
-113.525390625
-116.27197265625
-119.0185546875
-117.1875
-116.27197265625
-113.525390625
-111.6943359375
-113.525390625
-116.27197265625
-117.1875
-112.60986328125
-115.3564453125
-110.77880859375
-108.94775390625
-114.44091796875
-117.1875
-114.44091796875
-111.6943359375
-115.3564453125
-115.3564453125
-114.44091796875
-118.10302734375
-118.10302734375
-112.60986328125
-105.28564453125
-94.29931640625
-89.7216796875
-83.31298828125
-85.14404296875
-86.0595703125
-85.14404296875
-83.31298828125
-81.48193359375
-75.98876953125
-74.15771484375
-77.81982421875
-81.48193359375
-75.98876953125
-66.83349609375
-67.7490234375
-70.49560546875
-75.98876953125
-75.98876953125
-65.00244140625
-58.59375
-56.7626953125
-59.50927734375
-48.52294921875
-39.36767578125
-38.4521484375
-37.53662109375
-38.4521484375
-38.4521484375
-41.19873046875
-38.4521484375
-28.38134765625
-27.4658203125
-25.634765625
-28.38134765625
-42.1142578125
-56.7626953125
-62.255859375
-66.83349609375
-88.80615234375
-103.45458984375
-109.86328125
-112.60986328125
-112.60986328125
-110.77880859375
-107.11669921875
-111.6943359375
-119.93408203125
-119.0185546875
-122.6806640625
-120.849609375
-116.27197265625
-115.3564453125
-115.3564453125
-110.77880859375
-113.525390625
-116.27197265625
-116.27197265625
-114.44091796875
-113.525390625
-120.849609375
-117.1875
-115.3564453125
-118.10302734375
-116.27197265625
-111.6943359375
-118.10302734375
-123.59619140625
-118.10302734375
-123.59619140625
-122.6806640625
-130.0048828125
-141.90673828125
-149.23095703125
-145.56884765625
-140.07568359375
-139.16015625
-134.58251953125
-126.3427734375
-86.97509765625
-11.90185546875
105.28564453125
249.93896484375
408.3251953125
572.20458984375
712.2802734375
857.84912109375
957.6416015625
932.92236328125
838.623046875
683.89892578125
488.8916015625
241.69921875
-13.73291015625
-216.97998046875
-389.09912109375
-476.07421875
-493.46923828125
-469.66552734375
-423.88916015625
-363.46435546875
-320.4345703125
-295.71533203125
-275.57373046875
-269.1650390625
-264.58740234375
-243.5302734375
-227.05078125
-200.50048828125
-173.9501953125
-144.6533203125
-128.173828125
-115.3564453125
-103.45458984375
-97.0458984375
-88.80615234375
-86.0595703125
-88.80615234375
-89.7216796875
-83.31298828125
-77.81982421875
-79.65087890625
-80.56640625
-73.2421875
-72.32666015625
-75.0732421875
-70.49560546875
-65.91796875
-68.66455078125
-64.0869140625
-65.91796875
-65.00244140625
-60.4248046875
-59.50927734375
-54.931640625
-52.18505859375
-50.35400390625
-52.18505859375
-48.52294921875
-43.02978515625
-46.69189453125
-48.52294921875
-50.35400390625
-43.02978515625
-39.36767578125
-41.19873046875
-32.958984375
-31.1279296875
-22.88818359375
-23.8037109375
-27.4658203125
-19.22607421875
-22.88818359375
-23.8037109375
-20.1416015625
-20.1416015625
-17.39501953125
-10.07080078125
-9.1552734375
-13.73291015625
-10.07080078125
-10.986328125
-0.91552734375
1.8310546875
8.23974609375
3.662109375
8.23974609375
12.8173828125
11.90185546875
15.56396484375
15.56396484375
21.05712890625
27.4658203125
32.958984375
41.19873046875
39.36767578125
38.4521484375
41.19873046875
44.86083984375
49.4384765625
50.35400390625
62.255859375
70.49560546875
69.580078125
70.49560546875
74.15771484375
78.7353515625
85.14404296875
92.46826171875
102.5390625
104.3701171875
110.77880859375
117.1875
118.10302734375
128.173828125
134.58251953125
139.16015625
150.146484375
155.6396484375
162.9638671875
171.20361328125
181.2744140625
184.02099609375
189.51416015625
195.00732421875
200.50048828125
205.078125
210.5712890625
218.81103515625
217.8955078125
223.388671875
227.96630859375
234.375
233.45947265625
247.1923828125
254.5166015625
254.5166015625
262.75634765625
260.92529296875
264.58740234375
268.24951171875
270.08056640625
272.8271484375
277.40478515625
274.658203125
270.08056640625
265.5029296875
260.92529296875
253.60107421875
246.27685546875
236.2060546875
232.5439453125
227.96630859375
217.8955078125
207.82470703125
200.50048828125
186.767578125
170.2880859375
156.55517578125
146.484375
131.8359375
120.849609375
108.0322265625
95.21484375
82.3974609375
73.2421875
52.18505859375
41.19873046875
27.4658203125
20.1416015625
15.56396484375
8.23974609375
-0.91552734375
0
-6.40869140625
-16.4794921875
-17.39501953125
-23.8037109375
-34.7900390625
-43.9453125
-52.18505859375
-51.26953125
-50.35400390625
-50.35400390625
-55.84716796875
-56.7626953125
-60.4248046875
-64.0869140625
-65.00244140625
-69.580078125
-78.7353515625
-76.904296875
-74.15771484375
-74.15771484375
-67.7490234375
-70.49560546875
-74.15771484375
-75.0732421875
-72.32666015625
-74.15771484375
-75.98876953125
-81.48193359375
-77.81982421875
-79.65087890625
-77.81982421875
-77.81982421875
-78.7353515625
-74.15771484375
-79.65087890625
-85.14404296875
-86.97509765625
-82.3974609375
-83.31298828125
-83.31298828125
-81.48193359375
-80.56640625
-81.48193359375
-81.48193359375
-77.81982421875
-80.56640625
-75.0732421875
-76.904296875
-79.65087890625
-80.56640625
-82.3974609375
-79.65087890625
-78.7353515625
-77.81982421875
-85.14404296875
-87.890625
-87.890625
-85.14404296875
-85.14404296875
-83.31298828125
-80.56640625
-83.31298828125
-84.228515625
-79.65087890625
-81.48193359375
-86.97509765625
-87.890625
-93.3837890625
-95.21484375
-86.97509765625
-88.80615234375
-94.29931640625
-97.96142578125
-98.876953125
-95.21484375
-97.0458984375
-98.876953125
-99.79248046875
-94.29931640625
-95.21484375
-103.45458984375
-106.201171875
-94.29931640625
-93.3837890625
-96.13037109375
-95.21484375
-101.62353515625
-102.5390625
-100.7080078125
-97.0458984375
-97.96142578125
-103.45458984375
-101.62353515625
-101.62353515625
-108.0322265625
-111.6943359375
-115.3564453125
-114.44091796875
-111.6943359375
-108.94775390625
-108.0322265625
-104.3701171875
-103.45458984375
-103.45458984375
-102.5390625
-99.79248046875
-106.201171875
-113.525390625
-110.77880859375
-111.6943359375
-109.86328125
-111.6943359375
-106.201171875
-107.11669921875
-107.11669921875
-115.3564453125
-114.44091796875
-115.3564453125
-119.0185546875
-115.3564453125
-111.6943359375
-111.6943359375
-112.60986328125
-108.94775390625
-108.94775390625
-113.525390625
-110.77880859375
-112.60986328125
-112.60986328125
-112.60986328125
-114.44091796875
-108.94775390625
-110.77880859375
-114.44091796875
-110.77880859375
-108.94775390625
-109.86328125
-118.10302734375
-115.3564453125
-114.44091796875
-112.60986328125
-112.60986328125
-114.44091796875
-120.849609375
-119.93408203125
-116.27197265625
-118.10302734375
-116.27197265625
-115.3564453125
-112.60986328125
-110.77880859375
-106.201171875
-106.201171875
-109.86328125
-107.11669921875
-104.3701171875
-119.93408203125
-120.849609375
-114.44091796875
-113.525390625
-116.27197265625
-111.6943359375
-112.60986328125
-113.525390625
-110.77880859375
-110.77880859375
-113.525390625
-109.86328125
-108.94775390625
-112.60986328125
-113.525390625
-108.94775390625
-106.201171875
-112.60986328125
-113.525390625
-114.44091796875
-120.849609375
-117.1875
-112.60986328125
-112.60986328125
-107.11669921875
-98.876953125
-101.62353515625
-113.525390625
-113.525390625
-113.525390625
-115.3564453125
-115.3564453125
-116.27197265625
-112.60986328125
-112.60986328125
-112.60986328125
-108.94775390625
-113.525390625
-113.525390625
-112.60986328125
-113.525390625
-109.86328125
-116.27197265625
-117.1875
-118.10302734375
-112.60986328125
-111.6943359375
-113.525390625
-115.3564453125
-112.60986328125
-120.849609375
-116.27197265625
-111.6943359375
-111.6943359375
-112.60986328125
-118.10302734375
-107.11669921875
-108.94775390625
-108.94775390625
-112.60986328125
-108.94775390625
-108.94775390625
-107.11669921875
-110.77880859375
-110.77880859375
-112.60986328125
-112.60986328125
-108.94775390625
-112.60986328125
-115.3564453125
-109.86328125
-111.6943359375
-111.6943359375
-106.201171875
-102.5390625
-107.11669921875
-106.201171875
-112.60986328125
-119.0185546875
-110.77880859375
-108.0322265625
-108.0322265625
-111.6943359375
-114.44091796875
-114.44091796875
-112.60986328125
-110.77880859375
-105.28564453125
-112.60986328125
-115.3564453125
-107.11669921875
-101.62353515625
-94.29931640625
-93.3837890625
-81.48193359375
-74.15771484375
-69.580078125
-65.91796875
-65.00244140625
-67.7490234375
-66.83349609375
-67.7490234375
-65.00244140625
-57.67822265625
-55.84716796875
-54.931640625
-54.931640625
-55.84716796875
-65.00244140625
-73.2421875
-76.904296875
-68.66455078125
-60.4248046875
-50.35400390625
-43.9453125
-46.69189453125
-47.607421875
-35.70556640625
-34.7900390625
-37.53662109375
-37.53662109375
-34.7900390625
-41.19873046875
-33.87451171875
-22.88818359375
-18.310546875
-22.88818359375
-32.958984375
-37.53662109375
-42.1142578125
-55.84716796875
-66.83349609375
-79.65087890625
-90.63720703125
-95.21484375
-99.79248046875
-104.3701171875
-108.0322265625
-111.6943359375
-110.77880859375
-106.201171875
-106.201171875
-108.0322265625
-108.0322265625
-108.94775390625
-106.201171875
-101.62353515625
-100.7080078125
-105.28564453125
-108.0322265625
-111.6943359375
-109.86328125
-110.77880859375
-111.6943359375
-112.60986328125
-110.77880859375
-110.77880859375
-109.86328125
-109.86328125
-101.62353515625
-108.94775390625
-125.42724609375
-133.6669921875
-138.24462890625
-138.24462890625
-139.16015625
-137.3291015625
-130.0048828125
-109.86328125
-72.32666015625
-6.40869140625
104.3701171875
249.93896484375
416.56494140625
571.2890625
734.2529296875
896.30126953125
1025.390625
1056.5185546875
1007.99560546875
887.14599609375
710.44921875
479.736328125
192.2607421875
-46.69189453125
-249.0234375
-389.09912109375
-459.5947265625
-455.9326171875
-414.73388671875
-368.95751953125
-328.67431640625
-295.71533203125
-273.74267578125
-264.58740234375
-245.361328125
-215.14892578125
-183.10546875
-152.89306640625
-130.92041015625
-106.201171875
-87.890625
-77.81982421875
-77.81982421875
-78.7353515625
-79.65087890625
-78.7353515625
-78.7353515625
-81.48193359375
-86.0595703125
-86.0595703125
-83.31298828125
-87.890625
-79.65087890625
-76.904296875
-74.15771484375
-70.49560546875
-69.580078125
-66.83349609375
-62.255859375
-58.59375
-57.67822265625
-54.01611328125
-57.67822265625
-54.931640625
-53.1005859375
-54.01611328125
-54.01611328125
-57.67822265625
-57.67822265625
-47.607421875
-49.4384765625
-45.7763671875
-39.36767578125
-43.9453125
-42.1142578125
-34.7900390625
-32.958984375
-34.7900390625
-30.21240234375
-29.296875
-28.38134765625
-23.8037109375
-22.88818359375
-22.88818359375
-21.05712890625
-22.88818359375
-17.39501953125
-6.40869140625
0.91552734375
-1.8310546875
-11.90185546875
-10.986328125
-4.57763671875
2.74658203125
10.07080078125
9.1552734375
7.32421875
8.23974609375
11.90185546875
17.39501953125
21.97265625
18.310546875
23.8037109375
24.71923828125
27.4658203125
29.296875
36.62109375
38.4521484375
42.1142578125
46.69189453125
54.01611328125
56.7626953125
63.17138671875
65.00244140625
63.17138671875
67.7490234375
80.56640625
81.48193359375
81.48193359375
85.14404296875
86.0595703125
97.0458984375
104.3701171875
109.86328125
117.1875
123.59619140625
129.08935546875
139.16015625
141.90673828125
152.89306640625
158.38623046875
163.87939453125
166.6259765625
169.37255859375
174.86572265625
175.78125
183.10546875
184.9365234375
196.83837890625
205.99365234375
206.9091796875
212.40234375
221.5576171875
234.375
230.712890625
235.29052734375
240.78369140625
241.69921875
240.78369140625
246.27685546875
251.77001953125
251.77001953125
252.685546875
263.671875
265.5029296875
269.1650390625
263.671875
252.685546875
252.685546875
254.5166015625
245.361328125
238.95263671875
228.8818359375
223.388671875
216.97998046875
205.078125
194.091796875
185.85205078125
169.37255859375
154.72412109375
143.73779296875
136.41357421875
118.10302734375
109.86328125
105.28564453125
93.3837890625
80.56640625
75.0732421875
67.7490234375
62.255859375
50.35400390625
43.02978515625
27.4658203125
22.88818359375
16.4794921875
7.32421875
5.4931640625
-10.07080078125
-18.310546875
-19.22607421875
-25.634765625
-32.04345703125
-32.04345703125
-26.55029296875
-32.958984375
-32.04345703125
-44.86083984375
-48.52294921875
-43.9453125
-39.36767578125
-46.69189453125
-50.35400390625
-52.18505859375
-50.35400390625
-54.01611328125
-54.931640625
-52.18505859375
-54.931640625
-54.01611328125
-58.59375
-57.67822265625
-60.4248046875
-54.931640625
-61.34033203125
-69.580078125
-59.50927734375
-58.59375
-62.255859375
-64.0869140625
-63.17138671875
-65.00244140625
-63.17138671875
-60.4248046875
-62.255859375
-64.0869140625
-59.50927734375
-58.59375
-60.4248046875
-61.34033203125
-66.83349609375
-69.580078125
-64.0869140625
-63.17138671875
-65.00244140625
-59.50927734375
-65.00244140625
-64.0869140625
-65.00244140625
-58.59375
-64.0869140625
-70.49560546875
-69.580078125
-65.91796875
-65.91796875
-75.98876953125
-70.49560546875
-65.91796875
-66.83349609375
-70.49560546875
-77.81982421875
-73.2421875
-73.2421875
-75.0732421875
-75.0732421875
-77.81982421875
-74.15771484375
-74.15771484375
-77.81982421875
-82.3974609375
-81.48193359375
-80.56640625
-79.65087890625
-79.65087890625
-84.228515625
-84.228515625
-85.14404296875
-80.56640625
-81.48193359375
-87.890625
-84.228515625
-81.48193359375
-84.228515625
-86.97509765625
-85.14404296875
-86.0595703125
-80.56640625
-82.3974609375
-83.31298828125
-87.890625
-88.80615234375
-95.21484375
-91.552734375
-86.0595703125
-83.31298828125
-86.0595703125
-92.46826171875
-91.552734375
-93.3837890625
-97.96142578125
-99.79248046875
-93.3837890625
-93.3837890625
-91.552734375
-93.3837890625
-96.13037109375
-97.0458984375
-97.0458984375
-94.29931640625
-97.96142578125
-97.0458984375
-101.62353515625
-102.5390625
-98.876953125
-97.96142578125
-97.96142578125
-98.876953125
-94.29931640625
-93.3837890625
-97.96142578125
-99.79248046875
-94.29931640625
-102.5390625
-103.45458984375
-97.0458984375
-96.13037109375
-92.46826171875
-99.79248046875
-97.96142578125
-95.21484375
-97.96142578125
-103.45458984375
-100.7080078125
-99.79248046875
-98.876953125
-101.62353515625
-104.3701171875
-102.5390625
-98.876953125
-97.0458984375
-101.62353515625
-103.45458984375
-103.45458984375
-97.96142578125
-97.96142578125
-95.21484375
-96.13037109375
-98.876953125
-100.7080078125
-107.11669921875
-107.11669921875
-100.7080078125
-98.876953125
-94.29931640625
-97.96142578125
-100.7080078125
-101.62353515625
-104.3701171875
-102.5390625
-103.45458984375
-97.96142578125
-97.0458984375
-100.7080078125
-104.3701171875
-98.876953125
-101.62353515625
-102.5390625
-105.28564453125
-108.0322265625
-102.5390625
-106.201171875
-101.62353515625
-92.46826171875
-97.0458984375
-97.96142578125
-95.21484375
-98.876953125
-98.876953125
-103.45458984375
-104.3701171875
-101.62353515625
-96.13037109375
-103.45458984375
-108.0322265625
-105.28564453125
-96.13037109375
-96.13037109375
-97.0458984375
-97.0458984375
-95.21484375
-99.79248046875
-106.201171875
-106.201171875
-98.876953125
-96.13037109375
-98.876953125
-94.29931640625
-102.5390625
-103.45458984375
-102.5390625
-111.6943359375
-105.28564453125
-103.45458984375
-104.3701171875
-102.5390625
-97.0458984375
-97.0458984375
-97.96142578125
-100.7080078125
-96.13037109375
-102.5390625
-106.201171875
-106.201171875
-98.876953125
-100.7080078125
-101.62353515625
-96.13037109375
-97.96142578125
-96.13037109375
-106.201171875
-108.0322265625
-108.0322265625
-102.5390625
-100.7080078125
-97.0458984375
-95.21484375
-98.876953125
-94.29931640625
-97.96142578125
-98.876953125
-97.0458984375
-100.7080078125
-101.62353515625
-101.62353515625
-101.62353515625
-101.62353515625
-102.5390625
-98.876953125
-97.96142578125
-97.96142578125
-104.3701171875
-104.3701171875
-97.96142578125
-97.96142578125
-94.29931640625
-85.14404296875
-86.97509765625
-87.890625
-86.97509765625
-79.65087890625
-67.7490234375
-61.34033203125
-56.7626953125
-54.931640625
-57.67822265625
-50.35400390625
-52.18505859375
-58.59375
-56.7626953125
-54.931640625
-54.931640625
-57.67822265625
-58.59375
-62.255859375
-63.17138671875
-63.17138671875
-54.01611328125
-51.26953125
-51.26953125
-46.69189453125
-48.52294921875
-35.70556640625
-24.71923828125
-24.71923828125
-28.38134765625
-36.62109375
-32.04345703125
-22.88818359375
-14.6484375
-10.07080078125
-9.1552734375
-23.8037109375
-28.38134765625
-35.70556640625
-49.4384765625
-57.67822265625
-69.580078125
-84.228515625
-95.21484375
-102.5390625
-107.11669921875
-103.45458984375
-97.0458984375
-97.0458984375
-100.7080078125
-102.5390625
-97.96142578125
-97.0458984375
-100.7080078125
-104.3701171875
-103.45458984375
-105.28564453125
-104.3701171875
-106.201171875
-101.62353515625
-101.62353515625
-104.3701171875
-108.0322265625
-105.28564453125
-106.201171875
-108.0322265625
-110.77880859375
-113.525390625
-108.94775390625
-106.201171875
-114.44091796875
-132.75146484375
-151.06201171875
-147.39990234375
-150.146484375
-138.24462890625
-135.498046875
-122.6806640625
-97.96142578125
-40.283203125
47.607421875
173.9501953125
333.251953125
489.80712890625
644.53125
797.42431640625
948.486328125
1022.64404296875
997.9248046875
901.79443359375
752.5634765625
552.06298828125
280.1513671875
22.88818359375
-196.83837890625
-368.95751953125
-444.03076171875
-459.5947265625
-432.12890625
-379.0283203125
-324.0966796875
-288.39111328125
-274.658203125
-266.41845703125
-253.60107421875
-229.79736328125
-206.9091796875
-180.35888671875
-151.9775390625
-127.25830078125
-108.94775390625
-93.3837890625
-83.31298828125
-83.31298828125
-83.31298828125
-82.3974609375
-83.31298828125
-80.56640625
-81.48193359375
-80.56640625
-75.0732421875
-66.83349609375
-67.7490234375
-70.49560546875
-71.4111328125
-67.7490234375
-65.00244140625
-60.4248046875
-54.01611328125
-53.1005859375
-53.1005859375
-50.35400390625
-53.1005859375
-55.84716796875
-54.01611328125
-54.01611328125
-53.1005859375
-54.931640625
-50.35400390625
-55.84716796875
-50.35400390625
-47.607421875
-42.1142578125
-42.1142578125
-45.7763671875
-43.9453125
-38.4521484375
-32.04345703125
-27.4658203125
-21.97265625
-28.38134765625
-28.38134765625
-27.4658203125
-26.55029296875
-21.05712890625
-23.8037109375
-22.88818359375
-15.56396484375
-11.90185546875
-10.986328125
-9.1552734375
-5.4931640625
-3.662109375
-0.91552734375
7.32421875
12.8173828125
8.23974609375
4.57763671875
9.1552734375
14.6484375
21.97265625
22.88818359375
22.88818359375
27.4658203125
34.7900390625
34.7900390625
37.53662109375
43.02978515625
46.69189453125
42.1142578125
48.52294921875
47.607421875
47.607421875
54.01611328125
59.50927734375
67.7490234375
74.15771484375
80.56640625
84.228515625
87.890625
92.46826171875
98.876953125
103.45458984375
103.45458984375
109.86328125
119.93408203125
117.1875
120.849609375
131.8359375
138.24462890625
149.23095703125
151.06201171875
151.9775390625
162.04833984375
169.37255859375
170.2880859375
173.03466796875
183.10546875
188.5986328125
200.50048828125
206.9091796875
215.14892578125
218.81103515625
223.388671875
226.13525390625
227.05078125
230.712890625
237.12158203125
238.037109375
241.69921875
246.27685546875
247.1923828125
252.685546875
254.5166015625
250.8544921875
250.8544921875
251.77001953125
249.93896484375
250.8544921875
249.93896484375
245.361328125
243.5302734375
239.8681640625
229.79736328125
216.064453125
205.078125
195.9228515625
181.2744140625
174.86572265625
171.20361328125
161.1328125
141.90673828125
129.08935546875
120.849609375
108.0322265625
90.63720703125
85.14404296875
69.580078125
64.0869140625
50.35400390625
40.283203125
27.4658203125
17.39501953125
10.07080078125
3.662109375
2.74658203125
-5.4931640625
-15.56396484375
-16.4794921875
-18.310546875
-23.8037109375
-35.70556640625
-41.19873046875
-42.1142578125
-49.4384765625
-51.26953125
-53.1005859375
-52.18505859375
-51.26953125
-54.01611328125
-69.580078125
-66.83349609375
-73.2421875
-68.66455078125
-68.66455078125
-68.66455078125
-68.66455078125
-68.66455078125
-65.91796875
-67.7490234375
-66.83349609375
-65.91796875
-65.00244140625
-66.83349609375
-65.00244140625
-71.4111328125
-75.98876953125
-75.98876953125
-73.2421875
-67.7490234375
-68.66455078125
-71.4111328125
-69.580078125
-68.66455078125
-65.91796875
-68.66455078125
-71.4111328125
-70.49560546875
-70.49560546875
-76.904296875
-68.66455078125
-65.91796875
-77.81982421875
-82.3974609375
-76.904296875
-78.7353515625
-81.48193359375
-79.65087890625
-73.2421875
-78.7353515625
-76.904296875
-72.32666015625
-80.56640625
-79.65087890625
-77.81982421875
-80.56640625
-80.56640625
-81.48193359375
-83.31298828125
-86.0595703125
-85.14404296875
-77.81982421875
-84.228515625
-86.97509765625
-88.80615234375
-84.228515625
-79.65087890625
-77.81982421875
-84.228515625
-85.14404296875
-87.890625
-92.46826171875
-93.3837890625
-97.0458984375
-96.13037109375
-97.0458984375
-105.28564453125
-102.5390625
-100.7080078125
-97.0458984375
-98.876953125
-102.5390625
-97.0458984375
-91.552734375
-93.3837890625
-91.552734375
-96.13037109375
-101.62353515625
-104.3701171875
-103.45458984375
-98.876953125
-106.201171875
-108.0322265625
-108.0322265625
-105.28564453125
-103.45458984375
-106.201171875
-106.201171875
-108.0322265625
-107.11669921875
-108.0322265625
-108.0322265625
-108.94775390625
-103.45458984375
-106.201171875
-106.201171875
-108.94775390625
-107.11669921875
-109.86328125
-113.525390625
-109.86328125
-107.11669921875
-111.6943359375
-112.60986328125
-112.60986328125
-117.1875
-118.10302734375
-119.0185546875
-114.44091796875
-116.27197265625
-117.1875
-117.1875
-116.27197265625
-119.93408203125
-120.849609375
-117.1875
-119.93408203125
-116.27197265625
-116.27197265625
-123.59619140625
-120.849609375
-115.3564453125
-116.27197265625
-112.60986328125
-110.77880859375
-111.6943359375
-113.525390625
-114.44091796875
-112.60986328125
-111.6943359375
-114.44091796875
-118.10302734375
-121.76513671875
-117.1875
-115.3564453125
-115.3564453125
-116.27197265625
-114.44091796875
-113.525390625
-112.60986328125
-111.6943359375
-111.6943359375
-112.60986328125
-118.10302734375
-118.10302734375
-118.10302734375
-119.0185546875
-119.93408203125
-117.1875
-111.6943359375
-113.525390625
-110.77880859375
-109.86328125
-114.44091796875
-118.10302734375
-122.6806640625
-116.27197265625
-119.93408203125
-114.44091796875
-112.60986328125
-114.44091796875
-110.77880859375
-109.86328125
-114.44091796875
-117.1875
-116.27197265625
-119.0185546875
-120.849609375
-116.27197265625
-113.525390625
-113.525390625
-112.60986328125
-119.0185546875
-111.6943359375
-111.6943359375
-110.77880859375
-114.44091796875
-116.27197265625
-113.525390625
-114.44091796875
-110.77880859375
-105.28564453125
-116.27197265625
-115.3564453125
-110.77880859375
-112.60986328125
-114.44091796875
-114.44091796875
-112.60986328125
-111.6943359375
-109.86328125
-108.94775390625
-113.525390625
-110.77880859375
-109.86328125
-107.11669921875
-105.28564453125
-101.62353515625
-97.96142578125
-99.79248046875
-91.552734375
-86.97509765625
-82.3974609375
-80.56640625
-80.56640625
-74.15771484375
-76.904296875
-77.81982421875
-64.0869140625
-68.66455078125
-69.580078125
-65.00244140625
-64.0869140625
-67.7490234375
-67.7490234375
-62.255859375
-66.83349609375
-59.50927734375
-62.255859375
-55.84716796875
-53.1005859375
-40.283203125
-32.04345703125
-33.87451171875
-37.53662109375
-32.04345703125
-36.62109375
-35.70556640625
-23.8037109375
-16.4794921875
-20.1416015625
-32.958984375
-43.9453125
-50.35400390625
-58.59375
-66.83349609375
-82.3974609375
-97.0458984375
-105.28564453125
-109.86328125
-108.0322265625
-108.94775390625
-107.11669921875
-105.28564453125
-106.201171875
-106.201171875
-111.6943359375
-113.525390625
-111.6943359375
-111.6943359375
-111.6943359375
-108.94775390625
-109.86328125
-115.3564453125
-113.525390625
-115.3564453125
-111.6943359375
-114.44091796875
-110.77880859375
-111.6943359375
-119.93408203125
-110.77880859375
-110.77880859375
-116.27197265625
-115.3564453125
-126.3427734375
-136.41357421875
-144.6533203125
-149.23095703125
-150.146484375
-150.146484375
-146.484375
-139.16015625
-108.94775390625
-48.52294921875
53.1005859375
193.17626953125
334.16748046875
492.5537109375
635.3759765625
765.380859375
888.0615234375
910.94970703125
847.7783203125
719.6044921875
547.4853515625
329.58984375
71.4111328125
-143.73779296875
-335.0830078125
-451.35498046875
-491.63818359375
-474.2431640625
-440.36865234375
-380.859375
-325.927734375
-292.05322265625
-278.3203125
-264.58740234375
-264.58740234375
-263.671875
-238.95263671875
-216.97998046875
-195.00732421875
-163.87939453125
-143.73779296875
-127.25830078125
-104.3701171875
-92.46826171875
-86.97509765625
-87.890625
-88.80615234375
-88.80615234375
-85.14404296875
-84.228515625
-81.48193359375
-80.56640625
-76.904296875
-82.3974609375
-84.228515625
-81.48193359375
-77.81982421875
-71.4111328125
-73.2421875
-70.49560546875
-65.91796875
-61.34033203125
-61.34033203125
-60.4248046875
-57.67822265625
-50.35400390625
-45.7763671875
-52.18505859375
-52.18505859375
-52.18505859375
-52.18505859375
-57.67822265625
-51.26953125
-52.18505859375
-47.607421875
-33.87451171875
-31.1279296875
-32.958984375
-28.38134765625
-26.55029296875
-25.634765625
-30.21240234375
-26.55029296875
-27.4658203125
-23.8037109375
-23.8037109375
-15.56396484375
-14.6484375
-21.05712890625
-9.1552734375
-2.74658203125
-5.4931640625
-1.8310546875
3.662109375
6.40869140625
7.32421875
8.23974609375
12.8173828125
16.4794921875
14.6484375
21.05712890625
17.39501953125
21.97265625
26.55029296875
33.87451171875
36.62109375
32.04345703125
36.62109375
42.1142578125
44.86083984375
46.69189453125
46.69189453125
53.1005859375
53.1005859375
54.931640625
65.00244140625
73.2421875
75.98876953125
85.14404296875
88.80615234375
93.3837890625
97.0458984375
101.62353515625
114.44091796875
115.3564453125
121.76513671875
128.173828125
132.75146484375
138.24462890625
141.90673828125
147.39990234375
157.470703125
162.04833984375
170.2880859375
173.9501953125
178.52783203125
187.68310546875
194.091796875
200.50048828125
208.740234375
211.48681640625
215.14892578125
220.64208984375
222.47314453125
234.375
233.45947265625
237.12158203125
243.5302734375
242.61474609375
240.78369140625
240.78369140625
248.10791015625
248.10791015625
255.43212890625
260.92529296875
260.92529296875
259.09423828125
261.8408203125
258.1787109375
245.361328125
236.2060546875
227.96630859375
220.64208984375
211.48681640625
203.2470703125
189.51416015625
182.18994140625
182.18994140625
166.6259765625
151.9775390625
138.24462890625
132.75146484375
122.6806640625
108.0322265625
98.876953125
86.0595703125
71.4111328125
52.18505859375
45.7763671875
38.4521484375
29.296875
20.1416015625
11.90185546875
1.8310546875
-4.57763671875
-8.23974609375
-16.4794921875
-26.55029296875
-34.7900390625
-33.87451171875
-39.36767578125
-44.86083984375
-43.02978515625
-36.62109375
-39.36767578125
-57.67822265625
-56.7626953125
-58.59375
-65.00244140625
-66.83349609375
-70.49560546875
-66.83349609375
-66.83349609375
-64.0869140625
-64.0869140625
-68.66455078125
-67.7490234375
-65.91796875
-69.580078125
-68.66455078125
-70.49560546875
-79.65087890625
-79.65087890625
-80.56640625
-77.81982421875
-75.98876953125
-71.4111328125
-71.4111328125
-70.49560546875
-73.2421875
-75.98876953125
-73.2421875
-72.32666015625
-78.7353515625
-76.904296875
-80.56640625
-83.31298828125
-80.56640625
-75.98876953125
-82.3974609375
-76.904296875
-76.904296875
-77.81982421875
-78.7353515625
-82.3974609375
-78.7353515625
-78.7353515625
-80.56640625
-83.31298828125
-86.97509765625
-84.228515625
-82.3974609375
-79.65087890625
-84.228515625
-81.48193359375
-82.3974609375
-86.0595703125
-86.97509765625
-87.890625
-93.3837890625
-89.7216796875
-87.890625
-93.3837890625
-93.3837890625
-90.63720703125
-89.7216796875
-93.3837890625
-95.21484375
-94.29931640625
-100.7080078125
-103.45458984375
-101.62353515625
-96.13037109375
-94.29931640625
-96.13037109375
-102.5390625
-103.45458984375
-99.79248046875
-98.876953125
-104.3701171875
-107.11669921875
-109.86328125
-108.94775390625
-105.28564453125
-108.0322265625
-105.28564453125
-110.77880859375
-115.3564453125
-113.525390625
-108.94775390625
-108.0322265625
-111.6943359375
-104.3701171875
-106.201171875
-108.0322265625
-109.86328125
-105.28564453125
-108.94775390625
-111.6943359375
-111.6943359375
-111.6943359375
-114.44091796875
-118.10302734375
-116.27197265625
-112.60986328125
-114.44091796875
-119.0185546875
-118.10302734375
-113.525390625
-116.27197265625
-119.93408203125
-119.0185546875
-114.44091796875
-116.27197265625
-113.525390625
-110.77880859375
-108.0322265625
-115.3564453125
-124.51171875
-127.25830078125
-114.44091796875
-117.1875
-118.10302734375
-119.0185546875
-119.0185546875
-119.0185546875
-116.27197265625
-113.525390625
-111.6943359375
-115.3564453125
-119.0185546875
-119.0185546875
-123.59619140625
-119.93408203125
-114.44091796875
-121.76513671875
-122.6806640625
-114.44091796875
-117.1875
-120.849609375
-118.10302734375
-119.93408203125
-122.6806640625
-117.1875
-119.0185546875
-124.51171875
-124.51171875
-119.0185546875
-115.3564453125
-115.3564453125
-120.849609375
-124.51171875
-125.42724609375
-125.42724609375
-126.3427734375
-120.849609375
-117.1875
-119.0185546875
-119.93408203125
-122.6806640625
-118.10302734375
-116.27197265625
-117.1875
-114.44091796875
-119.93408203125
-119.93408203125
-119.93408203125
-117.1875
-114.44091796875
-117.1875
-116.27197265625
-113.525390625
-113.525390625
-115.3564453125
-117.1875
-118.10302734375
-122.6806640625
-120.849609375
-119.93408203125
-119.0185546875
-120.849609375
-123.59619140625
-123.59619140625
-121.76513671875
-121.76513671875
-118.10302734375
-114.44091796875
-112.60986328125
-127.25830078125
-136.41357421875
-126.3427734375
-124.51171875
-119.93408203125
-119.0185546875
-116.27197265625
-112.60986328125
-112.60986328125
-117.1875
-119.0185546875
-121.76513671875
-120.849609375
-119.93408203125
-123.59619140625
-119.0185546875
-113.525390625
-120.849609375
-116.27197265625
-116.27197265625
-115.3564453125
-111.6943359375
-114.44091796875
-113.525390625
-113.525390625
-108.94775390625
-108.0322265625
-105.28564453125
-102.5390625
-101.62353515625
-94.29931640625
-88.80615234375
-78.7353515625
-71.4111328125
-66.83349609375
-65.00244140625
-70.49560546875
-66.83349609375
-65.00244140625
-64.0869140625
-65.91796875
-69.580078125
-67.7490234375
-73.2421875
-71.4111328125
-74.15771484375
-75.0732421875
-80.56640625
-71.4111328125
-65.91796875
-60.4248046875
-58.59375
-56.7626953125
-44.86083984375
-39.36767578125
-43.9453125
-43.02978515625
-39.36767578125
-36.62109375
-26.55029296875
-25.634765625
-30.21240234375
-32.04345703125
-43.9453125
-59.50927734375
-65.91796875
-69.580078125
-81.48193359375
-94.29931640625
-107.11669921875
-111.6943359375
-119.0185546875
-117.1875
-117.1875
-114.44091796875
-119.0185546875
-119.0185546875
-113.525390625
-113.525390625
-108.94775390625
-113.525390625
-119.0185546875
-119.93408203125
-115.3564453125
-111.6943359375
-112.60986328125
-109.86328125
-105.28564453125
-109.86328125
-112.60986328125
-115.3564453125
-118.10302734375
-117.1875
-118.10302734375
-119.93408203125
-119.0185546875
-128.173828125
-140.9912109375
-144.6533203125
-151.06201171875
-151.06201171875
-151.06201171875
-147.39990234375
-131.8359375
-90.63720703125
-29.296875
81.48193359375
236.2060546875
391.845703125
544.73876953125
695.80078125
853.271484375
990.6005859375
1009.82666015625
952.1484375
828.55224609375
656.43310546875
418.39599609375
143.73779296875
-83.31298828125
-290.22216796875
-421.142578125
-485.2294921875
-479.736328125
-443.115234375
-379.94384765625
-327.7587890625
-290.22216796875
-275.57373046875
-276.4892578125
-263.671875
-234.375
-203.2470703125
-177.6123046875
-146.484375
-126.3427734375
-111.6943359375
-102.5390625
-99.79248046875
-96.13037109375
-94.29931640625
-94.29931640625
-98.876953125
-95.21484375
-89.7216796875
-87.890625
-86.97509765625
-79.65087890625
-84.228515625
-81.48193359375
-77.81982421875
-75.0732421875
-73.2421875
-76.904296875
-75.98876953125
-79.65087890625
-76.904296875
-74.15771484375
-73.2421875
-69.580078125
-63.17138671875
-61.34033203125
-63.17138671875
-62.255859375
-65.91796875
-54.01611328125
-46.69189453125
-54.931640625
-50.35400390625
-48.52294921875
-48.52294921875
-39.36767578125
-39.36767578125
-47.607421875
-50.35400390625
-41.19873046875
-32.958984375
-34.7900390625
-34.7900390625
-32.04345703125
-32.04345703125
-32.04345703125
-30.21240234375
-20.1416015625
-13.73291015625
-16.4794921875
-13.73291015625
-11.90185546875
-8.23974609375
-10.986328125
-4.57763671875
-1.8310546875
-3.662109375
1.8310546875
7.32421875
5.4931640625
11.90185546875
13.73291015625
17.39501953125
17.39501953125
25.634765625
32.04345703125
27.4658203125
31.1279296875
28.38134765625
27.4658203125
36.62109375
43.02978515625
49.4384765625
49.4384765625
53.1005859375
53.1005859375
60.4248046875
64.0869140625
61.34033203125
65.00244140625
70.49560546875
76.904296875
80.56640625
88.80615234375
102.5390625
105.28564453125
111.6943359375
126.3427734375
131.8359375
131.8359375
135.498046875
143.73779296875
148.3154296875
151.9775390625
158.38623046875
163.87939453125
167.54150390625
177.6123046875
181.2744140625
184.02099609375
190.4296875
197.75390625
203.2470703125
203.2470703125
205.078125
214.2333984375
213.31787109375
218.81103515625
219.7265625
223.388671875
225.2197265625
225.2197265625
231.62841796875
236.2060546875
237.12158203125
237.12158203125
227.96630859375
227.96630859375
231.62841796875
230.712890625
226.13525390625
215.14892578125
210.5712890625
205.99365234375
194.091796875
