ECG
-66.83349609375
-63.17138671875
-49.4384765625
-43.02978515625
-41.19873046875
-46.69189453125
-53.1005859375
-64.0869140625
-58.59375
-43.02978515625
-35.70556640625
-31.1279296875
-26.55029296875
-36.62109375
-42.1142578125
-43.02978515625
-52.18505859375
-53.1005859375
-41.19873046875
-28.38134765625
-21.05712890625
-25.634765625
-30.21240234375
-22.88818359375
-19.22607421875
-27.4658203125
-24.71923828125
-21.97265625
-27.4658203125
-23.8037109375
-15.56396484375
-9.1552734375
-2.74658203125
-12.8173828125
-17.39501953125
-25.634765625
-32.958984375
-37.53662109375
-43.9453125
-63.17138671875
-78.7353515625
-79.65087890625
-84.228515625
-86.0595703125
-82.3974609375
-87.890625
-91.552734375
-90.63720703125
-95.21484375
-104.3701171875
-95.21484375
-95.21484375
-104.3701171875
-92.46826171875
-80.56640625
-83.31298828125
-77.81982421875
-75.0732421875
-89.7216796875
-86.97509765625
-86.0595703125
-85.14404296875
-86.0595703125
-86.0595703125
-84.228515625
-89.7216796875
-98.876953125
-88.80615234375
-94.29931640625
-109.86328125
-132.75146484375
-142.822265625
-132.75146484375
-119.0185546875
-105.28564453125
-88.80615234375
-59.50927734375
8.23974609375
119.93408203125
275.57373046875
444.9462890625
617.98095703125
791.93115234375
964.05029296875
1101.37939453125
1128.84521484375
1073.91357421875
933.837890625
743.408203125
496.2158203125
190.4296875
-60.4248046875
-254.5166015625
-390.0146484375
-449.52392578125
-425.72021484375
-394.59228515625
-363.46435546875
-311.279296875
-273.74267578125
-270.08056640625
-254.5166015625
-223.388671875
-192.2607421875
-158.38623046875
-126.3427734375
-102.5390625
-86.0595703125
-71.4111328125
-69.580078125
-75.0732421875
-82.3974609375
-80.56640625
-69.580078125
-61.34033203125
-54.931640625
-49.4384765625
-50.35400390625
-54.931640625
-49.4384765625
-54.01611328125
-56.7626953125
-56.7626953125
-50.35400390625
-43.02978515625
-43.9453125
-43.9453125
-45.7763671875
-54.931640625
-49.4384765625
-40.283203125
-25.634765625
-14.6484375
-16.4794921875
-24.71923828125
-29.296875
-31.1279296875
-32.04345703125
-23.8037109375
-18.310546875
-23.8037109375
-13.73291015625
-9.1552734375
-16.4794921875
-20.1416015625
-15.56396484375
-10.986328125
-6.40869140625
-1.8310546875
-3.662109375
9.1552734375
13.73291015625
11.90185546875
12.8173828125
17.39501953125
8.23974609375
7.32421875
17.39501953125
19.22607421875
15.56396484375
8.23974609375
12.8173828125
20.1416015625
30.21240234375
36.62109375
42.1142578125
43.02978515625
37.53662109375
36.62109375
44.86083984375
50.35400390625
54.01611328125
53.1005859375
70.49560546875
68.66455078125
55.84716796875
64.0869140625
75.98876953125
77.81982421875
83.31298828125
80.56640625
83.31298828125
92.46826171875
100.7080078125
111.6943359375
124.51171875
132.75146484375
132.75146484375
133.6669921875
138.24462890625
140.07568359375
128.173828125
138.24462890625
151.06201171875
160.21728515625
171.20361328125
173.9501953125
186.767578125
199.5849609375
209.65576171875
216.064453125
216.97998046875
219.7265625
222.47314453125
217.8955078125
216.064453125
223.388671875
224.30419921875
232.5439453125
234.375
239.8681640625
241.69921875
259.09423828125
259.09423828125
254.5166015625
252.685546875
240.78369140625
254.5166015625
261.8408203125
254.5166015625
265.5029296875
266.41845703125
253.60107421875
250.8544921875
248.10791015625
250.8544921875
233.45947265625
213.31787109375
207.82470703125
199.5849609375
193.17626953125
187.68310546875
185.85205078125
173.03466796875
157.470703125
142.822265625
126.3427734375
118.10302734375
117.1875
104.3701171875
87.890625
73.2421875
65.91796875
57.67822265625
49.4384765625
43.02978515625
35.70556640625
20.1416015625
14.6484375
8.23974609375
10.07080078125
0
0.91552734375
3.662109375
-17.39501953125
-37.53662109375
-31.1279296875
-19.22607421875
-15.56396484375
-39.36767578125
-45.7763671875
-33.87451171875
-27.4658203125
-21.97265625
-35.70556640625
-32.04345703125
-32.958984375
-39.36767578125
-48.52294921875
-45.7763671875
-51.26953125
-47.607421875
-42.1142578125
-47.607421875
-57.67822265625
-54.931640625
-56.7626953125
-50.35400390625
-48.52294921875
-43.02978515625
-40.283203125
-43.9453125
-45.7763671875
-49.4384765625
-57.67822265625
-44.86083984375
-43.02978515625
-52.18505859375
-46.69189453125
-53.1005859375
-52.18505859375
-55.84716796875
-55.84716796875
-54.01611328125
-46.69189453125
-41.19873046875
-49.4384765625
-51.26953125
-49.4384765625
-49.4384765625
-43.02978515625
-37.53662109375
-32.04345703125
-46.69189453125
-79.65087890625
-85.14404296875
-67.7490234375
-51.26953125
-56.7626953125
-51.26953125
-49.4384765625
-51.26953125
-59.50927734375
-52.18505859375
-45.7763671875
-52.18505859375
-57.67822265625
-63.17138671875
-59.50927734375
-72.32666015625
-75.98876953125
-69.580078125
-71.4111328125
-64.0869140625
-63.17138671875
-60.4248046875
-73.2421875
-70.49560546875
-67.7490234375
-62.255859375
-66.83349609375
-70.49560546875
-72.32666015625
-83.31298828125
-89.7216796875
-85.14404296875
-75.0732421875
-75.98876953125
-82.3974609375
-84.228515625
-79.65087890625
-74.15771484375
-67.7490234375
-69.580078125
-84.228515625
-89.7216796875
-81.48193359375
-61.34033203125
-65.00244140625
-71.4111328125
-88.80615234375
-90.63720703125
-81.48193359375
-78.7353515625
-86.0595703125
-78.7353515625
-71.4111328125
-82.3974609375
-93.3837890625
-92.46826171875
-98.876953125
-82.3974609375
-81.48193359375
-79.65087890625
-75.98876953125
-73.2421875
-76.904296875
-74.15771484375
-71.4111328125
-86.0595703125
-91.552734375
-88.80615234375
-90.63720703125
-86.97509765625
-84.228515625
-86.97509765625
-97.0458984375
-99.79248046875
-98.876953125
-93.3837890625
-94.29931640625
-97.0458984375
-101.62353515625
-85.14404296875
-84.228515625
-82.3974609375
-80.56640625
-99.79248046875
-118.10302734375
-97.96142578125
-88.80615234375
-93.3837890625
-92.46826171875
-94.29931640625
-96.13037109375
-82.3974609375
-72.32666015625
-67.7490234375
-81.48193359375
-109.86328125
-119.0185546875
-108.0322265625
-98.876953125
-94.29931640625
-86.97509765625
-81.48193359375
-76.904296875
-66.83349609375
-65.00244140625
-54.931640625
-48.52294921875
-52.18505859375
-53.1005859375
-48.52294921875
-40.283203125
-38.4521484375
-41.19873046875
-42.1142578125
-43.9453125
-43.9453125
-46.69189453125
-40.283203125
-48.52294921875
-58.59375
-50.35400390625
-47.607421875
-30.21240234375
-23.8037109375
-22.88818359375
-27.4658203125
-25.634765625
-27.4658203125
-31.1279296875
-32.04345703125
-35.70556640625
-30.21240234375
-9.1552734375
3.662109375
11.90185546875
-7.32421875
-30.21240234375
-44.86083984375
-54.01611328125
-36.62109375
-41.19873046875
-55.84716796875
-71.4111328125
-73.2421875
-86.0595703125
-86.97509765625
-80.56640625
-84.228515625
-95.21484375
-94.29931640625
-103.45458984375
-100.7080078125
-103.45458984375
-103.45458984375
-83.31298828125
-92.46826171875
-105.28564453125
-118.10302734375
-114.44091796875
-106.201171875
-96.13037109375
-85.14404296875
-78.7353515625
-86.97509765625
-95.21484375
-94.29931640625
-91.552734375
-86.0595703125
-83.31298828125
-86.97509765625
-93.3837890625
-100.7080078125
-110.77880859375
-120.849609375
-127.25830078125
-119.93408203125
-103.45458984375
-102.5390625
-93.3837890625
-74.15771484375
-32.04345703125
60.4248046875
202.33154296875
373.53515625
559.38720703125
723.2666015625
885.31494140625
1018.06640625
1045.5322265625
976.86767578125
854.18701171875
680.23681640625
454.1015625
176.69677734375
-80.56640625
-288.39111328125
-424.8046875
-476.98974609375
-452.2705078125
-422.9736328125
-359.80224609375
-310.36376953125
-276.4892578125
-257.26318359375
-236.2060546875
-242.61474609375
-242.61474609375
-223.388671875
-195.00732421875
-159.3017578125
-130.92041015625
-105.28564453125
-95.21484375
-79.65087890625
-70.49560546875
-65.00244140625
-67.7490234375
-63.17138671875
-60.4248046875
-61.34033203125
-58.59375
-65.91796875
-65.00244140625
-63.17138671875
-53.1005859375
-54.931640625
-63.17138671875
-62.255859375
-53.1005859375
-40.283203125
-49.4384765625
-53.1005859375
-55.84716796875
-47.607421875
-45.7763671875
-38.4521484375
-40.283203125
-32.04345703125
-32.04345703125
-38.4521484375
-32.958984375
-40.283203125
-32.04345703125
-23.8037109375
-32.958984375
-27.4658203125
-26.55029296875
-18.310546875
-18.310546875
-21.05712890625
-21.05712890625
-11.90185546875
1.8310546875
-6.40869140625
-3.662109375
1.8310546875
3.662109375
3.662109375
13.73291015625
16.4794921875
23.8037109375
20.1416015625
9.1552734375
-13.73291015625
-3.662109375
18.310546875
35.70556640625
43.02978515625
42.1142578125
40.283203125
20.1416015625
33.87451171875
45.7763671875
56.7626953125
58.59375
62.255859375
65.91796875
62.255859375
61.34033203125
62.255859375
69.580078125
75.0732421875
80.56640625
74.15771484375
84.228515625
94.29931640625
97.96142578125
112.60986328125
120.849609375
122.6806640625
130.92041015625
137.3291015625
140.9912109375
145.56884765625
140.9912109375
136.41357421875
151.06201171875
164.794921875
174.86572265625
184.9365234375
183.10546875
189.51416015625
175.78125
169.37255859375
191.34521484375
213.31787109375
205.078125
205.99365234375
225.2197265625
237.12158203125
236.2060546875
240.78369140625
245.361328125
248.10791015625
255.43212890625
261.8408203125
261.8408203125
263.671875
265.5029296875
271.91162109375
272.8271484375
270.08056640625
269.1650390625
272.8271484375
270.08056640625
262.75634765625
254.5166015625
253.60107421875
249.0234375
240.78369140625
215.14892578125
206.9091796875
209.65576171875
207.82470703125
197.75390625
182.18994140625
172.119140625
162.04833984375
149.23095703125
139.16015625
140.9912109375
127.25830078125
109.86328125
75.0732421875
62.255859375
51.26953125
37.53662109375
41.19873046875
33.87451171875
20.1416015625
13.73291015625
7.32421875
3.662109375
0
-10.07080078125
-13.73291015625
-12.8173828125
-22.88818359375
-18.310546875
-28.38134765625
-32.958984375
-34.7900390625
-34.7900390625
-37.53662109375
-52.18505859375
-59.50927734375
-47.607421875
-41.19873046875
-41.19873046875
-38.4521484375
-39.36767578125
-47.607421875
-55.84716796875
-67.7490234375
-76.904296875
-65.00244140625
-54.931640625
-64.0869140625
-55.84716796875
-50.35400390625
-55.84716796875
-54.931640625
-61.34033203125
-80.56640625
-76.904296875
-72.32666015625
-64.0869140625
-44.86083984375
-54.931640625
-73.2421875
-67.7490234375
-62.255859375
-64.0869140625
-63.17138671875
-57.67822265625
-54.01611328125
-58.59375
-66.83349609375
-65.91796875
-66.83349609375
-66.83349609375
-52.18505859375
-46.69189453125
-56.7626953125
-59.50927734375
-59.50927734375
-57.67822265625
-64.0869140625
-64.0869140625
-60.4248046875
-56.7626953125
-59.50927734375
-65.00244140625
-62.255859375
-60.4248046875
-71.4111328125
-75.0732421875
-81.48193359375
-69.580078125
-63.17138671875
-70.49560546875
-75.0732421875
-80.56640625
-76.904296875
-59.50927734375
-64.0869140625
-68.66455078125
-88.80615234375
-95.21484375
-93.3837890625
-77.81982421875
-74.15771484375
-74.15771484375
-92.46826171875
-97.96142578125
-88.80615234375
-89.7216796875
-80.56640625
-83.31298828125
-88.80615234375
-89.7216796875
-73.2421875
-67.7490234375
-75.98876953125
-83.31298828125
-86.0595703125
-99.79248046875
-106.201171875
-100.7080078125
-86.97509765625
-82.3974609375
-86.97509765625
-90.63720703125
-94.29931640625
-100.7080078125
-95.21484375
-94.29931640625
-99.79248046875
-99.79248046875
-103.45458984375
-95.21484375
-76.904296875
-69.580078125
-75.0732421875
-82.3974609375
-102.5390625
-112.60986328125
-120.849609375
-119.0185546875
-104.3701171875
-90.63720703125
-77.81982421875
-74.15771484375
-73.2421875
-85.14404296875
-91.552734375
-103.45458984375
-115.3564453125
-120.849609375
-110.77880859375
-93.3837890625
-95.21484375
-89.7216796875
-83.31298828125
-95.21484375
-91.552734375
-92.46826171875
-101.62353515625
-106.201171875
-101.62353515625
-96.13037109375
-90.63720703125
-97.96142578125
-103.45458984375
-101.62353515625
-103.45458984375
-97.0458984375
-91.552734375
-89.7216796875
-86.0595703125
-77.81982421875
-72.32666015625
-65.00244140625
-66.83349609375
-55.84716796875
-45.7763671875
-44.86083984375
-51.26953125
-64.0869140625
-61.34033203125
-54.931640625
-51.26953125
-46.69189453125
-48.52294921875
-78.7353515625
-103.45458984375
-82.3974609375
-63.17138671875
-51.26953125
-28.38134765625
-26.55029296875
-33.87451171875
-46.69189453125
-47.607421875
-35.70556640625
-26.55029296875
-33.87451171875
-35.70556640625
-40.283203125
-39.36767578125
-32.958984375
-14.6484375
-8.23974609375
-20.1416015625
-28.38134765625
-31.1279296875
-39.36767578125
-42.1142578125
-54.931640625
-79.65087890625
-98.876953125
-97.96142578125
-95.21484375
-90.63720703125
-90.63720703125
-97.96142578125
-101.62353515625
-103.45458984375
-104.3701171875
-103.45458984375
-105.28564453125
-103.45458984375
-100.7080078125
-104.3701171875
-103.45458984375
-103.45458984375
-100.7080078125
-106.201171875
-114.44091796875
-109.86328125
-102.5390625
-98.876953125
-98.876953125
-97.0458984375
-107.11669921875
-104.3701171875
-105.28564453125
-108.0322265625
-123.59619140625
-148.3154296875
-155.6396484375
-152.89306640625
-147.39990234375
-140.07568359375
-135.498046875
-108.94775390625
-86.97509765625
-45.7763671875
40.283203125
173.03466796875
346.98486328125
516.357421875
676.57470703125
837.70751953125
1002.50244140625
1080.322265625
1054.6875
953.06396484375
791.93115234375
572.20458984375
290.22216796875
10.986328125
-216.97998046875
-382.6904296875
-466.9189453125
-473.32763671875
-436.70654296875
-386.3525390625
-345.15380859375
-313.1103515625
-291.1376953125
-285.64453125
-272.8271484375
-239.8681640625
-204.16259765625
-175.78125
-138.24462890625
-129.08935546875
-121.76513671875
-95.21484375
-86.0595703125
-88.80615234375
-84.228515625
-75.98876953125
-75.98876953125
-71.4111328125
-63.17138671875
-66.83349609375
-75.0732421875
-78.7353515625
-75.0732421875
-75.98876953125
-65.00244140625
-59.50927734375
-62.255859375
-65.91796875
-54.01611328125
-59.50927734375
-65.00244140625
-51.26953125
-42.1142578125
-50.35400390625
-52.18505859375
-48.52294921875
-54.01611328125
-54.931640625
-60.4248046875
-53.1005859375
-38.4521484375
-33.87451171875
-43.02978515625
-39.36767578125
-17.39501953125
-16.4794921875
-18.310546875
-28.38134765625
-37.53662109375
-40.283203125
-51.26953125
-55.84716796875
-32.958984375
-11.90185546875
-11.90185546875
-4.57763671875
-4.57763671875
-7.32421875
-11.90185546875
-7.32421875
-6.40869140625
2.74658203125
2.74658203125
2.74658203125
7.32421875
11.90185546875
7.32421875
10.986328125
2.74658203125
7.32421875
21.97265625
33.87451171875
39.36767578125
48.52294921875
54.01611328125
50.35400390625
38.4521484375
29.296875
44.86083984375
62.255859375
63.17138671875
73.2421875
70.49560546875
82.3974609375
97.0458984375
99.79248046875
97.96142578125
96.13037109375
101.62353515625
85.14404296875
85.14404296875
109.86328125
130.92041015625
139.16015625
145.56884765625
151.9775390625
146.484375
149.23095703125
151.9775390625
157.470703125
168.45703125
172.119140625
172.119140625
176.69677734375
185.85205078125
193.17626953125
200.50048828125
205.99365234375
206.9091796875
209.65576171875
205.99365234375
209.65576171875
215.14892578125
221.5576171875
227.05078125
241.69921875
250.8544921875
249.0234375
247.1923828125
238.037109375
242.61474609375
247.1923828125
249.0234375
252.685546875
235.29052734375
214.2333984375
213.31787109375
231.62841796875
236.2060546875
225.2197265625
210.5712890625
187.68310546875
155.6396484375
139.16015625
133.6669921875
139.16015625
137.3291015625
136.41357421875
119.93408203125
117.1875
108.0322265625
106.201171875
85.14404296875
74.15771484375
59.50927734375
46.69189453125
32.958984375
22.88818359375
13.73291015625
1.8310546875
-11.90185546875
-8.23974609375
-15.56396484375
-18.310546875
-25.634765625
-36.62109375
-39.36767578125
-37.53662109375
-42.1142578125
-48.52294921875
-49.4384765625
-49.4384765625
-53.1005859375
-58.59375
-56.7626953125
-55.84716796875
-57.67822265625
-54.01611328125
-51.26953125
-49.4384765625
-55.84716796875
-73.2421875
-83.31298828125
-72.32666015625
-57.67822265625
-54.01611328125
-57.67822265625
-54.01611328125
-63.17138671875
-79.65087890625
-89.7216796875
-84.228515625
-75.98876953125
-72.32666015625
-68.66455078125
-59.50927734375
-51.26953125
-51.26953125
-60.4248046875
-62.255859375
-74.15771484375
-73.2421875
-74.15771484375
-73.2421875
-74.15771484375
-75.98876953125
-72.32666015625
-66.83349609375
-60.4248046875
-50.35400390625
-49.4384765625
-60.4248046875
-73.2421875
-104.3701171875
-110.77880859375
-98.876953125
-89.7216796875
-81.48193359375
-62.255859375
-60.4248046875
-65.91796875
-74.15771484375
-86.97509765625
-89.7216796875
-82.3974609375
-79.65087890625
-73.2421875
-66.83349609375
-65.00244140625
-75.98876953125
-83.31298828125
-81.48193359375
-85.14404296875
-76.904296875
-78.7353515625
-79.65087890625
-86.97509765625
-86.0595703125
-85.14404296875
-86.97509765625
-86.0595703125
-88.80615234375
-86.97509765625
-86.0595703125
-83.31298828125
-79.65087890625
-80.56640625
-86.0595703125
-93.3837890625
-97.0458984375
-101.62353515625
-95.21484375
-97.0458984375
-101.62353515625
-91.552734375
-86.0595703125
-97.96142578125
-94.29931640625
-89.7216796875
-99.79248046875
-123.59619140625
-135.498046875
-122.6806640625
-109.86328125
-108.0322265625
-108.94775390625
-109.86328125
-114.44091796875
-109.86328125
-96.13037109375
-78.7353515625
-65.91796875
-70.49560546875
-75.0732421875
-77.81982421875
-84.228515625
-100.7080078125
-110.77880859375
-107.11669921875
-108.0322265625
-103.45458984375
-104.3701171875
-104.3701171875
-102.5390625
-106.201171875
-97.96142578125
-89.7216796875
-86.0595703125
-90.63720703125
-104.3701171875
-113.525390625
-110.77880859375
-115.3564453125
-107.11669921875
-105.28564453125
-120.849609375
-121.76513671875
-107.11669921875
-102.5390625
-98.876953125
-92.46826171875
-101.62353515625
-119.0185546875
-118.10302734375
-105.28564453125
-101.62353515625
-100.7080078125
-108.94775390625
-115.3564453125
-135.498046875
-114.44091796875
-97.96142578125
-90.63720703125
-86.97509765625
-81.48193359375
-79.65087890625
-89.7216796875
-83.31298828125
-84.228515625
-83.31298828125
-77.81982421875
-75.0732421875
-72.32666015625
-67.7490234375
-66.83349609375
-67.7490234375
-54.931640625
-59.50927734375
-64.0869140625
-58.59375
-54.931640625
-59.50927734375
-62.255859375
-57.67822265625
-59.50927734375
-74.15771484375
-73.2421875
-56.7626953125
-59.50927734375
-69.580078125
-68.66455078125
-61.34033203125
-43.9453125
-42.1142578125
-34.7900390625
-35.70556640625
-35.70556640625
-31.1279296875
-34.7900390625
-47.607421875
-28.38134765625
-16.4794921875
-31.1279296875
-42.1142578125
-38.4521484375
-47.607421875
-66.83349609375
-104.3701171875
-114.44091796875
-121.76513671875
-106.201171875
-83.31298828125
-86.0595703125
-95.21484375
-102.5390625
-98.876953125
-99.79248046875
-95.21484375
-97.96142578125
-105.28564453125
-112.60986328125
-116.27197265625
-114.44091796875
-112.60986328125
-105.28564453125
-102.5390625
-100.7080078125
-102.5390625
-108.0322265625
-104.3701171875
-104.3701171875
-104.3701171875
-107.11669921875
-95.21484375
-97.96142578125
-112.60986328125
-122.6806640625
-126.3427734375
-136.41357421875
-160.21728515625
-166.6259765625
-174.86572265625
-150.146484375
-128.173828125
-95.21484375
-43.9453125
45.7763671875
160.21728515625
322.265625
490.72265625
649.10888671875
807.4951171875
966.796875
1077.57568359375
1086.73095703125
1016.2353515625
874.32861328125
668.3349609375
390.93017578125
87.890625
-155.6396484375
-348.81591796875
-461.42578125
-474.2431640625
-430.2978515625
-381.77490234375
-335.99853515625
-307.6171875
-285.64453125
-279.23583984375
-262.75634765625
-227.05078125
-196.83837890625
-163.87939453125
-137.3291015625
-138.24462890625
-128.173828125
-99.79248046875
-85.14404296875
-70.49560546875
-68.66455078125
-69.580078125
-83.31298828125
-78.7353515625
-82.3974609375
-80.56640625
-80.56640625
-82.3974609375
-73.2421875
-73.2421875
-72.32666015625
-75.0732421875
-67.7490234375
-69.580078125
-58.59375
-51.26953125
-52.18505859375
-56.7626953125
-59.50927734375
-62.255859375
-51.26953125
-43.02978515625
-44.86083984375
-51.26953125
-57.67822265625
-64.0869140625
-52.18505859375
-46.69189453125
-35.70556640625
-31.1279296875
-41.19873046875
-53.1005859375
-46.69189453125
-41.19873046875
-31.1279296875
-26.55029296875
-14.6484375
-10.986328125
-6.40869140625
-21.05712890625
-43.02978515625
-40.283203125
-31.1279296875
-24.71923828125
-2.74658203125
0.91552734375
-2.74658203125
0
10.986328125
8.23974609375
16.4794921875
21.05712890625
10.07080078125
9.1552734375
10.07080078125
16.4794921875
18.310546875
21.05712890625
23.8037109375
22.88818359375
26.55029296875
29.296875
43.02978515625
54.931640625
54.01611328125
54.931640625
59.50927734375
65.91796875
74.15771484375
75.0732421875
75.0732421875
56.7626953125
49.4384765625
65.91796875
82.3974609375
90.63720703125
107.11669921875
114.44091796875
118.10302734375
111.6943359375
114.44091796875
116.27197265625
100.7080078125
114.44091796875
140.9912109375
161.1328125
162.04833984375
165.71044921875
173.03466796875
169.37255859375
170.2880859375
179.443359375
195.9228515625
203.2470703125
203.2470703125
205.99365234375
205.078125
202.33154296875
206.9091796875
217.8955078125
230.712890625
238.95263671875
238.037109375
234.375
224.30419921875
222.47314453125
232.5439453125
240.78369140625
248.10791015625
252.685546875
235.29052734375
227.05078125
227.05078125
206.9091796875
195.00732421875
208.740234375
205.078125
194.091796875
177.6123046875
168.45703125
162.04833984375
150.146484375
146.484375
125.42724609375
105.28564453125
105.28564453125
102.5390625
90.63720703125
79.65087890625
65.00244140625
49.4384765625
47.607421875
33.87451171875
18.310546875
12.8173828125
7.32421875
-9.1552734375
-11.90185546875
-17.39501953125
-24.71923828125
-36.62109375
-32.04345703125
-34.7900390625
-40.283203125
-46.69189453125
-49.4384765625
-43.02978515625
-53.1005859375
-63.17138671875
-61.34033203125
-60.4248046875
-59.50927734375
-60.4248046875
-63.17138671875
-51.26953125
-59.50927734375
-64.0869140625
-61.34033203125
-55.84716796875
-55.84716796875
-53.1005859375
-75.98876953125
-98.876953125
-98.876953125
-71.4111328125
-60.4248046875
-67.7490234375
-60.4248046875
-59.50927734375
-73.2421875
-83.31298828125
-77.81982421875
-66.83349609375
-65.00244140625
-65.00244140625
-70.49560546875
-65.00244140625
-70.49560546875
-73.2421875
-73.2421875
-79.65087890625
-86.97509765625
-78.7353515625
-80.56640625
-77.81982421875
-78.7353515625
-82.3974609375
-78.7353515625
-72.32666015625
-82.3974609375
-89.7216796875
-91.552734375
-79.65087890625
-78.7353515625
-84.228515625
-78.7353515625
-75.98876953125
-84.228515625
-88.80615234375
-79.65087890625
-75.98876953125
-82.3974609375
-83.31298828125
-86.0595703125
-84.228515625
-75.98876953125
-77.81982421875
-95.21484375
-105.28564453125
-103.45458984375
-104.3701171875
-101.62353515625
-98.876953125
-86.0595703125
-84.228515625
-77.81982421875
-82.3974609375
-89.7216796875
-93.3837890625
-92.46826171875
-91.552734375
-91.552734375
-85.14404296875
-97.96142578125
-107.11669921875
-102.5390625
-103.45458984375
-108.94775390625
-102.5390625
-104.3701171875
-98.876953125
-104.3701171875
-95.21484375
-97.0458984375
-102.5390625
-101.62353515625
-102.5390625
-98.876953125
-91.552734375
-93.3837890625
-108.0322265625
-111.6943359375
-112.60986328125
-128.173828125
-123.59619140625
-100.7080078125
-86.0595703125
-91.552734375
-97.96142578125
-103.45458984375
-110.77880859375
-119.0185546875
-105.28564453125
-111.6943359375
-108.94775390625
-98.876953125
-103.45458984375
-101.62353515625
-100.7080078125
-100.7080078125
-96.13037109375
-102.5390625
-109.86328125
-113.525390625
-116.27197265625
-119.0185546875
-115.3564453125
-95.21484375
-79.65087890625
-75.98876953125
-95.21484375
-118.10302734375
-140.07568359375
-151.06201171875
-151.06201171875
-122.6806640625
-97.96142578125
-84.228515625
-81.48193359375
-78.7353515625
-81.48193359375
-72.32666015625
-65.91796875
-70.49560546875
-70.49560546875
-75.0732421875
-68.66455078125
-63.17138671875
-73.2421875
-78.7353515625
-78.7353515625
-77.81982421875
-75.0732421875
-71.4111328125
-74.15771484375
-67.7490234375
-71.4111328125
-68.66455078125
-53.1005859375
-52.18505859375
-54.01611328125
-46.69189453125
-44.86083984375
-54.01611328125
-58.59375
-48.52294921875
-40.283203125
-50.35400390625
-40.283203125
-31.1279296875
-30.21240234375
-23.8037109375
-26.55029296875
-25.634765625
-39.36767578125
-39.36767578125
-44.86083984375
-66.83349609375
-83.31298828125
-98.876953125
-114.44091796875
-118.10302734375
-109.86328125
-117.1875
-109.86328125
-106.201171875
-105.28564453125
-112.60986328125
-121.76513671875
-119.0185546875
-130.0048828125
-138.24462890625
-126.3427734375
-117.1875
-110.77880859375
-111.6943359375
-113.525390625
-110.77880859375
-111.6943359375
-108.94775390625
-99.79248046875
-103.45458984375
-109.86328125
-111.6943359375
-117.1875
-118.10302734375
-111.6943359375
-110.77880859375
-123.59619140625
-140.07568359375
-149.23095703125
-158.38623046875
-150.146484375
-150.146484375
-145.56884765625
-118.10302734375
-82.3974609375
-34.7900390625
61.34033203125
196.83837890625
357.97119140625
548.40087890625
694.88525390625
842.28515625
975.9521484375
999.755859375
923.76708984375
767.2119140625
588.68408203125
360.7177734375
85.14404296875
-154.72412109375
-370.78857421875
-475.15869140625
-497.13134765625
-462.34130859375
-420.22705078125
-368.95751953125
-321.35009765625
-293.88427734375
-268.24951171875
-250.8544921875
-246.27685546875
-249.93896484375
-237.12158203125
-221.5576171875
-197.75390625
-172.119140625
-147.39990234375
-150.146484375
-136.41357421875
-102.5390625
-79.65087890625
-76.904296875
-80.56640625
-86.0595703125
-74.15771484375
-66.83349609375
-75.98876953125
-75.98876953125
-66.83349609375
-77.81982421875
-86.97509765625
-96.13037109375
-86.0595703125
-74.15771484375
-61.34033203125
-57.67822265625
-53.1005859375
-54.01611328125
-54.01611328125
-60.4248046875
-65.91796875
-74.15771484375
-63.17138671875
-50.35400390625
-43.9453125
-47.607421875
-37.53662109375
-36.62109375
-42.1142578125
-43.9453125
-43.02978515625
-39.36767578125
-44.86083984375
-46.69189453125
-38.4521484375
-26.55029296875
-17.39501953125
-21.05712890625
-22.88818359375
-21.97265625
-11.90185546875
-17.39501953125
-10.07080078125
-1.8310546875
-3.662109375
-2.74658203125
-2.74658203125
7.32421875
13.73291015625
19.22607421875
20.1416015625
14.6484375
1.8310546875
-6.40869140625
11.90185546875
39.36767578125
43.02978515625
27.4658203125
6.40869140625
19.22607421875
40.283203125
44.86083984375
59.50927734375
67.7490234375
66.83349609375
70.49560546875
72.32666015625
77.81982421875
69.580078125
67.7490234375
78.7353515625
81.48193359375
86.97509765625
93.3837890625
102.5390625
106.201171875
107.11669921875
111.6943359375
134.58251953125
134.58251953125
141.90673828125
143.73779296875
148.3154296875
151.9775390625
159.3017578125
161.1328125
165.71044921875
175.78125
179.443359375
182.18994140625
173.9501953125
189.51416015625
203.2470703125
214.2333984375
216.064453125
220.64208984375
215.14892578125
195.9228515625
203.2470703125
227.96630859375
242.61474609375
243.5302734375
256.34765625
256.34765625
250.8544921875
256.34765625
250.8544921875
247.1923828125
241.69921875
245.361328125
246.27685546875
238.037109375
226.13525390625
223.388671875
222.47314453125
201.416015625
189.51416015625
189.51416015625
175.78125
155.6396484375
141.90673828125
133.6669921875
123.59619140625
109.86328125
98.876953125
97.0458984375
86.0595703125
70.49560546875
57.67822265625
48.52294921875
47.607421875
36.62109375
32.04345703125
25.634765625
13.73291015625
-1.8310546875
-3.662109375
-10.07080078125
-14.6484375
-27.4658203125
-32.958984375
-38.4521484375
-46.69189453125
-43.02978515625
-39.36767578125
-51.26953125
-56.7626953125
-58.59375
-57.67822265625
-46.69189453125
-48.52294921875
-64.0869140625
-81.48193359375
-78.7353515625
-80.56640625
-82.3974609375
-74.15771484375
-78.7353515625
-71.4111328125
-75.98876953125
-86.0595703125
-99.79248046875
-90.63720703125
-71.4111328125
-63.17138671875
-68.66455078125
-69.580078125
-68.66455078125
-73.2421875
-78.7353515625
-74.15771484375
-75.0732421875
-66.83349609375
-62.255859375
-78.7353515625
-81.48193359375
-83.31298828125
-76.904296875
-68.66455078125
-72.32666015625
-75.0732421875
-76.904296875
-82.3974609375
-83.31298828125
-78.7353515625
-75.0732421875
-69.580078125
-73.2421875
-75.0732421875
-74.15771484375
-79.65087890625
-81.48193359375
-80.56640625
-75.98876953125
-75.98876953125
-73.2421875
-65.91796875
-82.3974609375
-94.29931640625
-103.45458984375
-121.76513671875
-119.0185546875
-113.525390625
-86.0595703125
-66.83349609375
-64.0869140625
-74.15771484375
-83.31298828125
-108.0322265625
-118.10302734375
-97.96142578125
-87.890625
-90.63720703125
-88.80615234375
-86.0595703125
-94.29931640625
-105.28564453125
-106.201171875
-92.46826171875
-88.80615234375
-89.7216796875
-90.63720703125
-98.876953125
-107.11669921875
-115.3564453125
-113.525390625
-104.3701171875
-100.7080078125
-102.5390625
-93.3837890625
-91.552734375
-87.890625
-89.7216796875
-97.0458984375
-111.6943359375
-134.58251953125
-128.173828125
-123.59619140625
-120.849609375
-104.3701171875
-107.11669921875
-105.28564453125
-105.28564453125
-106.201171875
-98.876953125
-106.201171875
-105.28564453125
-107.11669921875
-105.28564453125
-112.60986328125
-123.59619140625
-129.08935546875
-122.6806640625
-112.60986328125
-102.5390625
-99.79248046875
-103.45458984375
-109.86328125
-119.93408203125
-129.08935546875
-120.849609375
-106.201171875
-98.876953125
-95.21484375
-106.201171875
-102.5390625
-102.5390625
-97.96142578125
-98.876953125
-108.0322265625
-112.60986328125
-111.6943359375
-108.0322265625
-103.45458984375
-112.60986328125
-130.92041015625
-121.76513671875
-117.1875
-119.93408203125
-112.60986328125
-108.94775390625
-118.10302734375
-106.201171875
-93.3837890625
-97.96142578125
-97.0458984375
-97.0458984375
-97.0458984375
-94.29931640625
-85.14404296875
-69.580078125
-62.255859375
-55.84716796875
-57.67822265625
-55.84716796875
-63.17138671875
-81.48193359375
-80.56640625
-68.66455078125
-65.91796875
-65.00244140625
-64.0869140625
-64.0869140625
-78.7353515625
-86.0595703125
-75.98876953125
-65.00244140625
-51.26953125
-52.18505859375
-45.7763671875
-62.255859375
-75.0732421875
-65.91796875
-49.4384765625
-47.607421875
-41.19873046875
-38.4521484375
-32.958984375
-26.55029296875
-18.310546875
-22.88818359375
-34.7900390625
-33.87451171875
-42.1142578125
-63.17138671875
-79.65087890625
-84.228515625
-111.6943359375
-114.44091796875
-118.10302734375
-108.94775390625
-108.94775390625
-111.6943359375
-108.0322265625
-115.3564453125
-117.1875
-119.0185546875
-115.3564453125
-120.849609375
-119.93408203125
-115.3564453125
-110.77880859375
-128.173828125
-136.41357421875
-129.08935546875
-124.51171875
-131.8359375
-126.3427734375
-124.51171875
-114.44091796875
-111.6943359375
-111.6943359375
-119.0185546875
-120.849609375
-129.08935546875
-148.3154296875
-148.3154296875
-147.39990234375
-147.39990234375
-151.9775390625
-139.16015625
-134.58251953125
-120.849609375
-91.552734375
-38.4521484375
58.59375
209.65576171875
391.845703125
560.302734375
723.2666015625
894.47021484375
1041.8701171875
1092.22412109375
1049.1943359375
924.6826171875
740.66162109375
500.79345703125
210.5712890625
-56.7626953125
-267.333984375
-407.40966796875
-470.5810546875
-458.67919921875
-422.05810546875
-375.3662109375
-340.576171875
-326.84326171875
-311.279296875
-269.1650390625
-246.27685546875
-224.30419921875
-195.9228515625
-165.71044921875
-137.3291015625
-127.25830078125
-101.62353515625
-89.7216796875
-87.890625
-85.14404296875
-89.7216796875
-92.46826171875
-101.62353515625
-102.5390625
-86.97509765625
-83.31298828125
-85.14404296875
-91.552734375
-86.0595703125
-84.228515625
-82.3974609375
-70.49560546875
-73.2421875
-70.49560546875
-62.255859375
-66.83349609375
-64.0869140625
-61.34033203125
-63.17138671875
-71.4111328125
-70.49560546875
-56.7626953125
-51.26953125
-54.01611328125
-50.35400390625
-49.4384765625
-47.607421875
-63.17138671875
-60.4248046875
-51.26953125
-48.52294921875
-33.87451171875
-30.21240234375
-36.62109375
-32.04345703125
-28.38134765625
-36.62109375
-55.84716796875
-43.02978515625
-36.62109375
-32.04345703125
-27.4658203125
-21.05712890625
-9.1552734375
1.8310546875
-2.74658203125
-5.4931640625
-13.73291015625
-13.73291015625
-4.57763671875
-2.74658203125
-4.57763671875
-3.662109375
7.32421875
10.986328125
17.39501953125
27.4658203125
20.1416015625
22.88818359375
25.634765625
26.55029296875
36.62109375
45.7763671875
47.607421875
50.35400390625
62.255859375
71.4111328125
65.91796875
60.4248046875
52.18505859375
44.86083984375
49.4384765625
79.65087890625
96.13037109375
78.7353515625
79.65087890625
80.56640625
76.904296875
86.0595703125
105.28564453125
112.60986328125
120.849609375
130.92041015625
140.07568359375
146.484375
145.56884765625
146.484375
150.146484375
156.55517578125
164.794921875
174.86572265625
173.9501953125
175.78125
180.35888671875
185.85205078125
181.2744140625
188.5986328125
196.83837890625
210.5712890625
213.31787109375
212.40234375
218.81103515625
227.96630859375
237.12158203125
238.037109375
228.8818359375
223.388671875
213.31787109375
207.82470703125
209.65576171875
213.31787109375
227.96630859375
234.375
217.8955078125
188.5986328125
157.470703125
156.55517578125
165.71044921875
157.470703125
141.90673828125
130.92041015625
124.51171875
122.6806640625
106.201171875
98.876953125
91.552734375
84.228515625
65.91796875
41.19873046875
38.4521484375
32.958984375
26.55029296875
21.97265625
16.4794921875
15.56396484375
5.4931640625
-7.32421875
-15.56396484375
-26.55029296875
-43.9453125
-46.69189453125
-47.607421875
-33.87451171875
-35.70556640625
-45.7763671875
-46.69189453125
-47.607421875
-52.18505859375
-54.01611328125
-56.7626953125
-66.83349609375
-73.2421875
-65.91796875
-62.255859375
-66.83349609375
-79.65087890625
-97.0458984375
-97.96142578125
-100.7080078125
-99.79248046875
-85.14404296875
-73.2421875
-65.00244140625
-65.91796875
-61.34033203125
-59.50927734375
-60.4248046875
-68.66455078125
-76.904296875
-81.48193359375
-66.83349609375
-71.4111328125
-77.81982421875
-80.56640625
-82.3974609375
-78.7353515625
-79.65087890625
-82.3974609375
-82.3974609375
-79.65087890625
-76.904296875
-85.14404296875
-75.0732421875
-73.2421875
-78.7353515625
-75.98876953125
-67.7490234375
-63.17138671875
-58.59375
-64.0869140625
-74.15771484375
-94.29931640625
-115.3564453125
-99.79248046875
-92.46826171875
-81.48193359375
-85.14404296875
-78.7353515625
-71.4111328125
-79.65087890625
-95.21484375
-88.80615234375
-84.228515625
-89.7216796875
-84.228515625
-82.3974609375
-99.79248046875
-108.94775390625
-98.876953125
-97.0458984375
-100.7080078125
-86.97509765625
-84.228515625
-86.97509765625
-83.31298828125
-87.890625
-98.876953125
-94.29931640625
-98.876953125
-99.79248046875
-102.5390625
-97.96142578125
-96.13037109375
-90.63720703125
-90.63720703125
-97.96142578125
-104.3701171875
-93.3837890625
-99.79248046875
-115.3564453125
-119.93408203125
-104.3701171875
-86.97509765625
-79.65087890625
-97.0458984375
-106.201171875
-112.60986328125
-118.10302734375
-124.51171875
-127.25830078125
-116.27197265625
-104.3701171875
-93.3837890625
-101.62353515625
-96.13037109375
-104.3701171875
-117.1875
-116.27197265625
-107.11669921875
-101.62353515625
-99.79248046875
-120.849609375
-126.3427734375
-108.0322265625
-98.876953125
-100.7080078125
-108.0322265625
-93.3837890625
-92.46826171875
-108.0322265625
-105.28564453125
-105.28564453125
-112.60986328125
-111.6943359375
-100.7080078125
-97.0458984375
-92.46826171875
-105.28564453125
-112.60986328125
-113.525390625
-108.94775390625
-115.3564453125
-124.51171875
-110.77880859375
-95.21484375
-88.80615234375
-92.46826171875
-97.0458984375
-99.79248046875
-105.28564453125
-109.86328125
-100.7080078125
-97.96142578125
-102.5390625
-98.876953125
-96.13037109375
-86.0595703125
-82.3974609375
-72.32666015625
-69.580078125
-81.48193359375
-67.7490234375
-62.255859375
-71.4111328125
-70.49560546875
-53.1005859375
-56.7626953125
-59.50927734375
-58.59375
-49.4384765625
-54.931640625
-66.83349609375
-86.0595703125
-78.7353515625
-60.4248046875
-52.18505859375
-61.34033203125
-52.18505859375
-37.53662109375
-41.19873046875
-36.62109375
-44.86083984375
-41.19873046875
-29.296875
-26.55029296875
-17.39501953125
-21.05712890625
-31.1279296875
-46.69189453125
-45.7763671875
-53.1005859375
-63.17138671875
-67.7490234375
-79.65087890625
-98.876953125
-115.3564453125
-120.849609375
-116.27197265625
-114.44091796875
-119.93408203125
-120.849609375
-108.0322265625
-105.28564453125
-108.0322265625
-114.44091796875
-114.44091796875
-125.42724609375
-133.6669921875
-130.0048828125
-120.849609375
-115.3564453125
-115.3564453125
-112.60986328125
-109.86328125
-117.1875
-119.93408203125
-112.60986328125
-125.42724609375
-136.41357421875
-154.72412109375
-150.146484375
-137.3291015625
-134.58251953125
-139.16015625
-131.8359375
-137.3291015625
-140.07568359375
-126.3427734375
-113.525390625
-99.79248046875
-66.83349609375
-3.662109375
100.7080078125
229.79736328125
398.25439453125
582.275390625
740.66162109375
924.6826171875
1051.025390625
1057.43408203125
974.12109375
831.298828125
662.841796875
413.818359375
121.76513671875
-124.51171875
-336.9140625
-455.9326171875
-487.060546875
-461.42578125
-412.90283203125
-349.7314453125
-300.29296875
-280.1513671875
-260.92529296875
-266.41845703125
-278.3203125
-269.1650390625
-227.96630859375
-187.68310546875
-162.04833984375
-130.92041015625
-107.11669921875
-100.7080078125
-99.79248046875
-97.0458984375
-95.21484375
-88.80615234375
-96.13037109375
-93.3837890625
-86.97509765625
-75.0732421875
-65.00244140625
-74.15771484375
-88.80615234375
-82.3974609375
-85.14404296875
-88.80615234375
-88.80615234375
-82.3974609375
-75.98876953125
-72.32666015625
-66.83349609375
-61.34033203125
-56.7626953125
-54.01611328125
-54.931640625
-49.4384765625
-51.26953125
-59.50927734375
-57.67822265625
-55.84716796875
-47.607421875
-49.4384765625
-46.69189453125
-50.35400390625
-63.17138671875
-52.18505859375
-36.62109375
-40.283203125
-34.7900390625
-21.97265625
-20.1416015625
-28.38134765625
-43.9453125
-48.52294921875
-20.1416015625
-10.986328125
-7.32421875
-8.23974609375
-8.23974609375
-9.1552734375
-10.986328125
-10.986328125
-4.57763671875
-4.57763671875
4.57763671875
0
4.57763671875
12.8173828125
27.4658203125
22.88818359375
11.90185546875
21.97265625
33.87451171875
34.7900390625
38.4521484375
36.62109375
38.4521484375
56.7626953125
55.84716796875
62.255859375
70.49560546875
65.91796875
66.83349609375
45.7763671875
43.9453125
71.4111328125
85.14404296875
86.97509765625
100.7080078125
100.7080078125
107.11669921875
110.77880859375
116.27197265625
126.3427734375
152.89306640625
144.6533203125
133.6669921875
128.173828125
148.3154296875
157.470703125
167.54150390625
171.20361328125
182.18994140625
178.52783203125
183.10546875
194.091796875
197.75390625
192.2607421875
209.65576171875
216.97998046875
215.14892578125
217.8955078125
222.47314453125
236.2060546875
226.13525390625
228.8818359375
236.2060546875
234.375
238.037109375
234.375
239.8681640625
234.375
215.14892578125
222.47314453125
232.5439453125
227.96630859375
218.81103515625
222.47314453125
211.48681640625
191.34521484375
179.443359375
175.78125
173.03466796875
167.54150390625
150.146484375
136.41357421875
120.849609375
104.3701171875
90.63720703125
87.890625
75.98876953125
78.7353515625
66.83349609375
54.931640625
51.26953125
31.1279296875
6.40869140625
-2.74658203125
0.91552734375
-2.74658203125
-4.57763671875
-8.23974609375
-32.958984375
-32.958984375
-22.88818359375
-29.296875
-36.62109375
-39.36767578125
-61.34033203125
-74.15771484375
-76.904296875
-72.32666015625
-56.7626953125
-55.84716796875
-54.01611328125
-63.17138671875
-74.15771484375
-90.63720703125
-83.31298828125
-73.2421875
-80.56640625
-74.15771484375
-65.00244140625
-59.50927734375
-65.91796875
-68.66455078125
-83.31298828125
-93.3837890625
-91.552734375
-67.7490234375
-68.66455078125
-77.81982421875
-78.7353515625
-78.7353515625
-88.80615234375
-76.904296875
-93.3837890625
-87.890625
-79.65087890625
-71.4111328125
-75.0732421875
-73.2421875
-63.17138671875
-72.32666015625
-96.13037109375
-107.11669921875
-99.79248046875
-80.56640625
-76.904296875
-77.81982421875
-85.14404296875
-80.56640625
-79.65087890625
-79.65087890625
-83.31298828125
-72.32666015625
-70.49560546875
-79.65087890625
-81.48193359375
-90.63720703125
-110.77880859375
-100.7080078125
-86.0595703125
-75.98876953125
-80.56640625
-84.228515625
-92.46826171875
-89.7216796875
-83.31298828125
-86.0595703125
-88.80615234375
-85.14404296875
-92.46826171875
-94.29931640625
-98.876953125
-97.96142578125
-97.0458984375
-86.97509765625
-95.21484375
-104.3701171875
-105.28564453125
-107.11669921875
-90.63720703125
-89.7216796875
-97.0458984375
-91.552734375
-92.46826171875
-100.7080078125
-105.28564453125
-115.3564453125
-108.0322265625
-100.7080078125
-97.0458984375
-115.3564453125
-124.51171875
-124.51171875
-123.59619140625
-110.77880859375
-108.0322265625
-119.93408203125
-116.27197265625
-109.86328125
-91.552734375
-103.45458984375
-110.77880859375
-113.525390625
-111.6943359375
-104.3701171875
-114.44091796875
-116.27197265625
-114.44091796875
-108.94775390625
-105.28564453125
-107.11669921875
-109.86328125
-110.77880859375
-101.62353515625
-105.28564453125
-123.59619140625
-129.08935546875
-117.1875
-104.3701171875
-105.28564453125
-108.0322265625
-102.5390625
-102.5390625
-127.25830078125
-132.75146484375
-107.11669921875
-84.228515625
-87.890625
-93.3837890625
-97.96142578125
-100.7080078125
-96.13037109375
-80.56640625
-76.904296875
-75.0732421875
-82.3974609375
-72.32666015625
-71.4111328125
-65.91796875
-62.255859375
-61.34033203125
-52.18505859375
-58.59375
-65.00244140625
-76.904296875
-77.81982421875
-73.2421875
-64.0869140625
-63.17138671875
-60.4248046875
-54.931640625
-49.4384765625
-42.1142578125
-40.283203125
-46.69189453125
-56.7626953125
-60.4248046875
-51.26953125
-33.87451171875
-20.1416015625
-10.07080078125
-30.21240234375
-69.580078125
-81.48193359375
-65.00244140625
-54.01611328125
-49.4384765625
-65.00244140625
-83.31298828125
-92.46826171875
-98.876953125
-112.60986328125
-108.94775390625
-117.1875
-124.51171875
-134.58251953125
-131.8359375
-122.6806640625
-111.6943359375
-111.6943359375
-117.1875
-115.3564453125
-119.0185546875
-132.75146484375
-130.0048828125
-126.3427734375
-118.10302734375
-127.25830078125
-123.59619140625
-121.76513671875
-131.8359375
-130.0048828125
-122.6806640625
-128.173828125
-125.42724609375
-119.0185546875
-121.76513671875
-135.498046875
-150.146484375
-155.6396484375
-155.6396484375
-146.484375
-135.498046875
-126.3427734375
-98.876953125
-51.26953125
-9.1552734375
96.13037109375
233.45947265625
390.93017578125
582.275390625
735.16845703125
899.96337890625
1011.65771484375
994.2626953125
900.87890625
733.33740234375
536.4990234375
287.4755859375
6.40869140625
-221.5576171875
-395.5078125
-483.3984375
-500.79345703125
-463.2568359375
-422.9736328125
-353.3935546875
-292.96875
-284.72900390625
-280.1513671875
-270.99609375
-281.982421875
-276.4892578125
-247.1923828125
-206.9091796875
-176.69677734375
-150.146484375
-120.849609375
-104.3701171875
-118.10302734375
-132.75146484375
-117.1875
-105.28564453125
-108.94775390625
-92.46826171875
-84.228515625
-82.3974609375
-80.56640625
-78.7353515625
-68.66455078125
-73.2421875
-67.7490234375
-64.0869140625
-68.66455078125
-76.904296875
-86.97509765625
-86.97509765625
-71.4111328125
-66.83349609375
-57.67822265625
-48.52294921875
-40.283203125
-50.35400390625
-66.83349609375
-64.0869140625
-55.84716796875
-50.35400390625
-42.1142578125
-32.958984375
-33.87451171875
-39.36767578125
-40.283203125
-30.21240234375
-31.1279296875
-30.21240234375
-19.22607421875
-29.296875
-37.53662109375
-34.7900390625
-32.04345703125
-25.634765625
-13.73291015625
3.662109375
7.32421875
0
7.32421875
0.91552734375
0.91552734375
-5.4931640625
-11.90185546875
-0.91552734375
5.4931640625
10.986328125
6.40869140625
16.4794921875
26.55029296875
28.38134765625
43.02978515625
41.19873046875
43.02978515625
43.02978515625
35.70556640625
21.97265625
29.296875
35.70556640625
46.69189453125
59.50927734375
76.904296875
92.46826171875
94.29931640625
93.3837890625
85.14404296875
64.0869140625
71.4111328125
92.46826171875
93.3837890625
102.5390625
115.3564453125
125.42724609375
129.08935546875
135.498046875
145.56884765625
158.38623046875
156.55517578125
162.04833984375
175.78125
173.9501953125
173.9501953125
172.119140625
180.35888671875
174.86572265625
179.443359375
201.416015625
222.47314453125
226.13525390625
222.47314453125
208.740234375
213.31787109375
217.8955078125
225.2197265625
248.10791015625
262.75634765625
257.26318359375
245.361328125
243.5302734375
248.10791015625
251.77001953125
255.43212890625
252.685546875
254.5166015625
247.1923828125
242.61474609375
226.13525390625
220.64208984375
214.2333984375
206.9091796875
201.416015625
187.68310546875
167.54150390625
160.21728515625
157.470703125
149.23095703125
127.25830078125
105.28564453125
103.45458984375
99.79248046875
86.0595703125
79.65087890625
70.49560546875
56.7626953125
44.86083984375
34.7900390625
19.22607421875
6.40869140625
-6.40869140625
-7.32421875
-9.1552734375
-10.07080078125
-3.662109375
-10.07080078125
-7.32421875
-16.4794921875
-45.7763671875
-82.3974609375
-71.4111328125
-57.67822265625
-48.52294921875
-54.01611328125
-55.84716796875
-71.4111328125
-75.0732421875
-69.580078125
-65.91796875
-64.0869140625
-66.83349609375
-75.98876953125
-69.580078125
-74.15771484375
-78.7353515625
-76.904296875
-68.66455078125
-61.34033203125
-65.00244140625
-63.17138671875
-66.83349609375
-83.31298828125
-93.3837890625
-92.46826171875
-80.56640625
-78.7353515625
-74.15771484375
-69.580078125
-69.580078125
-77.81982421875
-74.15771484375
-71.4111328125
-65.00244140625
-69.580078125
-61.34033203125
-56.7626953125
-56.7626953125
-68.66455078125
-67.7490234375
-77.81982421875
-93.3837890625
-89.7216796875
-94.29931640625
-86.0595703125
-75.98876953125
-69.580078125
-78.7353515625
-72.32666015625
-72.32666015625
-81.48193359375
-100.7080078125
-104.3701171875
-96.13037109375
-92.46826171875
-83.31298828125
-75.98876953125
-71.4111328125
-77.81982421875
-84.228515625
-88.80615234375
-86.0595703125
-80.56640625
-81.48193359375
-76.904296875
-84.228515625
-94.29931640625
-88.80615234375
-90.63720703125
-89.7216796875
-87.890625
-86.97509765625
-94.29931640625
-113.525390625
-111.6943359375
-95.21484375
-85.14404296875
-85.14404296875
-87.890625
-84.228515625
-97.96142578125
-96.13037109375
-91.552734375
-108.94775390625
-123.59619140625
-116.27197265625
-106.201171875
-96.13037109375
-98.876953125
-116.27197265625
-122.6806640625
-118.10302734375
-108.94775390625
-107.11669921875
-114.44091796875
-103.45458984375
-95.21484375
-97.96142578125
-103.45458984375
-109.86328125
-99.79248046875
-100.7080078125
-119.93408203125
-119.0185546875
-107.11669921875
-98.876953125
-106.201171875
-119.0185546875
-134.58251953125
-136.41357421875
-112.60986328125
-100.7080078125
-104.3701171875
-106.201171875
-103.45458984375
-99.79248046875
-106.201171875
-104.3701171875
-102.5390625
-99.79248046875
-106.201171875
-105.28564453125
-117.1875
-114.44091796875
-109.86328125
-110.77880859375
-110.77880859375
-108.94775390625
-102.5390625
-102.5390625
-109.86328125
-119.93408203125
-138.24462890625
-140.07568359375
-116.27197265625
-108.94775390625
-104.3701171875
-106.201171875
-108.94775390625
-106.201171875
-91.552734375
-88.80615234375
-70.49560546875
-54.01611328125
-50.35400390625
-44.86083984375
-43.9453125
-48.52294921875
-53.1005859375
-68.66455078125
-64.0869140625
-60.4248046875
-64.0869140625
-64.0869140625
-66.83349609375
-75.98876953125
-92.46826171875
-86.0595703125
-68.66455078125
-61.34033203125
-59.50927734375
-55.84716796875
-53.1005859375
-46.69189453125
-59.50927734375
-63.17138671875
-62.255859375
-60.4248046875
-43.9453125
-35.70556640625
-32.04345703125
-23.8037109375
-31.1279296875
-38.4521484375
-39.36767578125
-43.9453125
-56.7626953125
-71.4111328125
-89.7216796875
-113.525390625
-127.25830078125
-132.75146484375
-132.75146484375
-125.42724609375
-127.25830078125
-118.10302734375
-123.59619140625
-124.51171875
-117.1875
-108.0322265625
-118.10302734375
-139.16015625
-142.822265625
-136.41357421875
-139.16015625
-119.0185546875
-109.86328125
-113.525390625
-112.60986328125
-113.525390625
-118.10302734375
-133.6669921875
-155.6396484375
-152.89306640625
-139.16015625
-132.75146484375
-128.173828125
-130.0048828125
-130.92041015625
-146.484375
-173.9501953125
-180.35888671875
-159.3017578125
-150.146484375
-126.3427734375
-78.7353515625
-3.662109375
101.62353515625
255.43212890625
434.87548828125
595.0927734375
747.0703125
927.42919921875
1061.09619140625
1072.08251953125
1016.2353515625
883.48388671875
704.04052734375
455.9326171875
151.06201171875
-108.0322265625
-307.6171875
-437.6220703125
-493.46923828125
-463.2568359375
-422.9736328125
-384.521484375
-344.23828125
-304.87060546875
-293.88427734375
-271.91162109375
-245.361328125
-225.2197265625
-197.75390625
-169.37255859375
-140.9912109375
-125.42724609375
-111.6943359375
-107.11669921875
-109.86328125
-105.28564453125
-101.62353515625
-96.13037109375
-86.97509765625
-86.97509765625
-81.48193359375
-88.80615234375
-93.3837890625
-88.80615234375
-75.98876953125
-71.4111328125
-68.66455078125
-68.66455078125
-75.98876953125
-77.81982421875
-77.81982421875
-94.29931640625
-98.876953125
-79.65087890625
-72.32666015625
-65.91796875
-61.34033203125
-61.34033203125
-64.0869140625
-57.67822265625
-56.7626953125
-54.01611328125
-46.69189453125
-52.18505859375
-51.26953125
-49.4384765625
-43.02978515625
-43.02978515625
-42.1142578125
-43.02978515625
-42.1142578125
-38.4521484375
-54.931640625
-47.607421875
-40.283203125
-42.1142578125
-25.634765625
-9.1552734375
-21.97265625
-26.55029296875
-14.6484375
-10.07080078125
0
5.4931640625
1.8310546875
-0.91552734375
-3.662109375
2.74658203125
1.8310546875
6.40869140625
8.23974609375
19.22607421875
13.73291015625
7.32421875
20.1416015625
25.634765625
30.21240234375
37.53662109375
34.7900390625
28.38134765625
36.62109375
47.607421875
45.7763671875
52.18505859375
58.59375
59.50927734375
67.7490234375
65.00244140625
57.67822265625
71.4111328125
91.552734375
99.79248046875
101.62353515625
108.0322265625
105.28564453125
107.11669921875
115.3564453125
129.08935546875
129.08935546875
114.44091796875
118.10302734375
143.73779296875
162.04833984375
176.69677734375
184.02099609375
179.443359375
179.443359375
173.03466796875
175.78125
195.00732421875
203.2470703125
199.5849609375
193.17626953125
198.66943359375
207.82470703125
208.740234375
211.48681640625
221.5576171875
224.30419921875
229.79736328125
226.13525390625
227.96630859375
232.5439453125
230.712890625
226.13525390625
226.13525390625
215.14892578125
205.078125
204.16259765625
205.078125
199.5849609375
188.5986328125
177.6123046875
173.9501953125
162.04833984375
145.56884765625
130.92041015625
120.849609375
108.0322265625
81.48193359375
69.580078125
68.66455078125
71.4111328125
69.580078125
71.4111328125
58.59375
42.1142578125
37.53662109375
22.88818359375
-7.32421875
-33.87451171875
-29.296875
-21.05712890625
-17.39501953125
-24.71923828125
-32.04345703125
-38.4521484375
-44.86083984375
-59.50927734375
-65.00244140625
-60.4248046875
-64.0869140625
-57.67822265625
-52.18505859375
-55.84716796875
-62.255859375
-68.66455078125
-68.66455078125
-65.00244140625
-74.15771484375
-81.48193359375
-79.65087890625
-80.56640625
-75.98876953125
-73.2421875
-75.0732421875
-78.7353515625
-78.7353515625
-75.0732421875
-76.904296875
-77.81982421875
-86.97509765625
-100.7080078125
-103.45458984375
-95.21484375
-87.890625
-78.7353515625
-78.7353515625
-82.3974609375
-78.7353515625
-71.4111328125
-75.0732421875
-75.98876953125
-90.63720703125
-107.11669921875
-102.5390625
-98.876953125
-89.7216796875
-83.31298828125
-73.2421875
-74.15771484375
-77.81982421875
-80.56640625
-83.31298828125
-81.48193359375
-76.904296875
-75.0732421875
-71.4111328125
-78.7353515625
-86.97509765625
-87.890625
-85.14404296875
-83.31298828125
-86.97509765625
-93.3837890625
-95.21484375
-97.96142578125
-94.29931640625
-97.0458984375
-96.13037109375
-98.876953125
-99.79248046875
-95.21484375
-96.13037109375
-96.13037109375
-96.13037109375
-88.80615234375
-109.86328125
-127.25830078125
-114.44091796875
-105.28564453125
-86.97509765625
-83.31298828125
-75.98876953125
-76.904296875
-90.63720703125
-116.27197265625
-132.75146484375
-123.59619140625
-113.525390625
-102.5390625
-110.77880859375
-114.44091796875
-102.5390625
-96.13037109375
-98.876953125
-103.45458984375
-101.62353515625
-107.11669921875
-104.3701171875
-112.60986328125
-108.94775390625
-106.201171875
-118.10302734375
-116.27197265625
-114.44091796875
-111.6943359375
-108.94775390625
-108.0322265625
-112.60986328125
-101.62353515625
-108.94775390625
-114.44091796875
-109.86328125
-108.94775390625
-112.60986328125
-119.93408203125
-119.93408203125
-115.3564453125
-117.1875
-114.44091796875
-119.93408203125
-121.76513671875
-119.0185546875
-107.11669921875
-115.3564453125
-119.0185546875
-140.07568359375
-138.24462890625
-121.76513671875
-101.62353515625
-99.79248046875
-106.201171875
-111.6943359375
-123.59619140625
-133.6669921875
-128.173828125
-119.0185546875
-117.1875
-112.60986328125
-107.11669921875
-105.28564453125
-109.86328125
-116.27197265625
-115.3564453125
-111.6943359375
-98.876953125
-96.13037109375
-91.552734375
-80.56640625
-68.66455078125
-70.49560546875
-70.49560546875
-65.00244140625
-60.4248046875
-57.67822265625
-58.59375
-70.49560546875
-81.48193359375
-94.29931640625
-95.21484375
-75.98876953125
-58.59375
-71.4111328125
-75.98876953125
-55.84716796875
-68.66455078125
-72.32666015625
-58.59375
-50.35400390625
-41.19873046875
-38.4521484375
-54.931640625
-64.0869140625
-63.17138671875
-74.15771484375
-63.17138671875
-41.19873046875
-32.04345703125
-36.62109375
-38.4521484375
-34.7900390625
-35.70556640625
-47.607421875
-64.0869140625
-84.228515625
-102.5390625
-110.77880859375
-114.44091796875
-124.51171875
-119.0185546875
-123.59619140625
-119.93408203125
-108.94775390625
-98.876953125
-96.13037109375
-98.876953125
-108.0322265625
-126.3427734375
-130.0048828125
-135.498046875
-126.3427734375
-119.93408203125
-120.849609375
-132.75146484375
-141.90673828125
-137.3291015625
-125.42724609375
-119.0185546875
-118.10302734375
-110.77880859375
-109.86328125
-109.86328125
-116.27197265625
-118.10302734375
-123.59619140625
-142.822265625
-150.146484375
-150.146484375
-153.80859375
-152.89306640625
-133.6669921875
-131.8359375
-109.86328125
-62.255859375
42.1142578125
176.69677734375
351.5625
521.8505859375
677.490234375
833.1298828125
995.17822265625
1088.56201171875
1084.89990234375
971.37451171875
803.8330078125
561.21826171875
267.333984375
-10.07080078125
-231.62841796875
-399.169921875
-477.9052734375
-481.5673828125
-440.36865234375
-390.0146484375
-351.5625
-312.19482421875
-281.982421875
-269.1650390625
-259.09423828125
-258.1787109375
-208.740234375
-166.6259765625
-142.822265625
-124.51171875
-117.1875
-106.201171875
-107.11669921875
-102.5390625
-88.80615234375
-87.890625
-87.890625
-88.80615234375
-75.0732421875
-80.56640625
-82.3974609375
-75.98876953125
-79.65087890625
-93.3837890625
-96.13037109375
-94.29931640625
-84.228515625
-75.98876953125
-68.66455078125
-73.2421875
-75.98876953125
-65.00244140625
-54.931640625
-51.26953125
-43.9453125
-51.26953125
-54.931640625
-66.83349609375
-77.81982421875
-73.2421875
-54.01611328125
-46.69189453125
-53.1005859375
-70.49560546875
-53.1005859375
-44.86083984375
-35.70556640625
-30.21240234375
-34.7900390625
-28.38134765625
-32.958984375
-31.1279296875
-30.21240234375
-25.634765625
-25.634765625
-32.958984375
-22.88818359375
-18.310546875
-14.6484375
-10.07080078125
-7.32421875
-15.56396484375
-23.8037109375
-17.39501953125
-10.986328125
-1.8310546875
0.91552734375
4.57763671875
12.8173828125
3.662109375
21.97265625
18.310546875
9.1552734375
15.56396484375
27.4658203125
39.36767578125
51.26953125
38.4521484375
28.38134765625
28.38134765625
40.283203125
53.1005859375
58.59375
76.904296875
77.81982421875
73.2421875
82.3974609375
97.0458984375
104.3701171875
102.5390625
88.80615234375
77.81982421875
88.80615234375
101.62353515625
115.3564453125
127.25830078125
125.42724609375
135.498046875
150.146484375
145.56884765625
159.3017578125
166.6259765625
164.794921875
173.9501953125
180.35888671875
185.85205078125
195.00732421875
196.83837890625
201.416015625
197.75390625
198.66943359375
209.65576171875
210.5712890625
216.97998046875
218.81103515625
226.13525390625
216.97998046875
222.47314453125
224.30419921875
225.2197265625
226.13525390625
232.5439453125
227.96630859375
216.064453125
228.8818359375
224.30419921875
223.388671875
221.5576171875
222.47314453125
215.14892578125
192.2607421875
162.9638671875
145.56884765625
140.07568359375
129.08935546875
113.525390625
117.1875
119.93408203125
97.96142578125
85.14404296875
70.49560546875
65.00244140625
57.67822265625
44.86083984375
27.4658203125
12.8173828125
4.57763671875
1.8310546875
-11.90185546875
-22.88818359375
-22.88818359375
-32.958984375
-31.1279296875
-31.1279296875
-43.02978515625
-48.52294921875
-38.4521484375
-43.02978515625
-59.50927734375
-63.17138671875
-73.2421875
-73.2421875
-80.56640625
-77.81982421875
-70.49560546875
-65.91796875
-73.2421875
-69.580078125
-73.2421875
-88.80615234375
-103.45458984375
-77.81982421875
-81.48193359375
-87.890625
-78.7353515625
-73.2421875
-77.81982421875
-74.15771484375
-78.7353515625
-79.65087890625
-82.3974609375
-82.3974609375
-80.56640625
-80.56640625
-84.228515625
-85.14404296875
-85.14404296875
-85.14404296875
-79.65087890625
-75.98876953125
-81.48193359375
-94.29931640625
-100.7080078125
-95.21484375
-97.96142578125
-98.876953125
-93.3837890625
-87.890625
-86.97509765625
-83.31298828125
-83.31298828125
-90.63720703125
-105.28564453125
-99.79248046875
-89.7216796875
-87.890625
-87.890625
-86.0595703125
-106.201171875
-114.44091796875
-99.79248046875
-98.876953125
-96.13037109375
-83.31298828125
-75.0732421875
-92.46826171875
-99.79248046875
-86.0595703125
-85.14404296875
-85.14404296875
-88.80615234375
-91.552734375
-94.29931640625
-115.3564453125
-114.44091796875
-97.96142578125
-95.21484375
-99.79248046875
-97.96142578125
-103.45458984375
-106.201171875
-90.63720703125
-97.96142578125
-97.96142578125
-100.7080078125
-105.28564453125
-111.6943359375
-108.94775390625
-97.0458984375
-101.62353515625
-111.6943359375
-109.86328125
-96.13037109375
-97.96142578125
-105.28564453125
-108.94775390625
-103.45458984375
-106.201171875
-128.173828125
-122.6806640625
-114.44091796875
-115.3564453125
-124.51171875
-123.59619140625
-122.6806640625
-115.3564453125
-119.0185546875
-122.6806640625
-121.76513671875
-118.10302734375
-114.44091796875
-125.42724609375
-127.25830078125
-108.94775390625
-105.28564453125
-120.849609375
-122.6806640625
-121.76513671875
-133.6669921875
-142.822265625
-134.58251953125
-121.76513671875
-115.3564453125
-117.1875
-112.60986328125
-108.0322265625
-104.3701171875
-119.93408203125
-134.58251953125
-136.41357421875
-126.3427734375
-119.0185546875
-105.28564453125
-119.0185546875
-122.6806640625
-131.8359375
-119.93408203125
-107.11669921875
-113.525390625
-134.58251953125
-130.0048828125
-129.08935546875
-130.92041015625
-129.08935546875
-119.0185546875
-114.44091796875
-110.77880859375
-108.94775390625
-108.0322265625
-107.11669921875
-98.876953125
-96.13037109375
-96.13037109375
-87.890625
-97.96142578125
-84.228515625
-75.98876953125
-75.0732421875
-76.904296875
-69.580078125
-75.0732421875
-80.56640625
-69.580078125
-83.31298828125
-99.79248046875
-100.7080078125
-93.3837890625
-71.4111328125
-57.67822265625
-54.931640625
-63.17138671875
-55.84716796875
-60.4248046875
-75.98876953125
-81.48193359375
-69.580078125
-58.59375
-60.4248046875
-46.69189453125
-34.7900390625
-39.36767578125
-31.1279296875
-33.87451171875
-54.01611328125
-56.7626953125
-64.0869140625
-77.81982421875
-99.79248046875
-111.6943359375
-113.525390625
-119.93408203125
-122.6806640625
-127.25830078125
-127.25830078125
-127.25830078125
-120.849609375
-111.6943359375
-119.0185546875
-120.849609375
-117.1875
-128.173828125
-140.07568359375
-125.42724609375
-123.59619140625
-122.6806640625
-120.849609375
-122.6806640625
-131.8359375
-139.16015625
-139.16015625
-126.3427734375
-129.08935546875
-134.58251953125
-128.173828125
-125.42724609375
-123.59619140625
-128.173828125
-137.3291015625
-139.16015625
-147.39990234375
-151.9775390625
-157.470703125
-156.55517578125
-155.6396484375
-145.56884765625
-140.9912109375
-109.86328125
-45.7763671875
57.67822265625
195.00732421875
343.32275390625
514.5263671875
663.75732421875
821.22802734375
950.3173828125
954.89501953125
863.34228515625
709.53369140625
517.27294921875
281.982421875
21.05712890625
-195.00732421875
-387.26806640625
-506.28662109375
-529.1748046875
-482.48291015625
-431.21337890625
-371.7041015625
-329.58984375
-324.0966796875
-323.18115234375
-293.88427734375
-281.982421875
-275.57373046875
-272.8271484375
-259.09423828125
-226.13525390625
-197.75390625
-165.71044921875
-137.3291015625
-125.42724609375
-103.45458984375
-96.13037109375
-93.3837890625
-99.79248046875
-97.96142578125
-94.29931640625
-93.3837890625
-87.890625
-80.56640625
-78.7353515625
-87.890625
-97.0458984375
-99.79248046875
-101.62353515625
-105.28564453125
-89.7216796875
-67.7490234375
-75.0732421875
-78.7353515625
-65.91796875
-63.17138671875
-56.7626953125
-50.35400390625
-50.35400390625
-43.02978515625
-52.18505859375
-69.580078125
-57.67822265625
-51.26953125
-49.4384765625
-55.84716796875
-39.36767578125
-35.70556640625
-41.19873046875
-38.4521484375
-27.4658203125
-38.4521484375
-30.21240234375
-24.71923828125
-19.22607421875
-27.4658203125
-35.70556640625
-23.8037109375
-10.986328125
-6.40869140625
-10.07080078125
-8.23974609375
-13.73291015625
-11.90185546875
-6.40869140625
6.40869140625
10.07080078125
-3.662109375
-1.8310546875
12.8173828125
27.4658203125
29.296875
33.87451171875
24.71923828125
22.88818359375
19.22607421875
32.04345703125
45.7763671875
43.02978515625
42.1142578125
36.62109375
42.1142578125
51.26953125
61.34033203125
63.17138671875
64.0869140625
83.31298828125
73.2421875
72.32666015625
70.49560546875
85.14404296875
107.11669921875
111.6943359375
106.201171875
120.849609375
130.0048828125
140.07568359375
148.3154296875
151.06201171875
162.9638671875
170.2880859375
166.6259765625
167.54150390625
172.119140625
176.69677734375
178.52783203125
190.4296875
187.68310546875
190.4296875
205.078125
218.81103515625
225.2197265625
225.2197265625
223.388671875
209.65576171875
209.65576171875
217.8955078125
228.8818359375
228.8818359375
235.29052734375
251.77001953125
258.1787109375
260.009765625
258.1787109375
240.78369140625
239.8681640625
246.27685546875
243.5302734375
247.1923828125
238.95263671875
223.388671875
199.5849609375
173.03466796875
161.1328125
162.04833984375
152.89306640625
140.9912109375
130.92041015625
118.10302734375
123.59619140625
122.6806640625
103.45458984375
93.3837890625
82.3974609375
69.580078125
53.1005859375
42.1142578125
36.62109375
25.634765625
23.8037109375
11.90185546875
-2.74658203125
-7.32421875
-21.97265625
-16.4794921875
-21.97265625
-43.9453125
-50.35400390625
-66.83349609375
-65.91796875
-54.01611328125
-51.26953125
-60.4248046875
-54.931640625
-52.18505859375
-60.4248046875
-70.49560546875
-61.34033203125
-65.00244140625
-70.49560546875
-69.580078125
-64.0869140625
-68.66455078125
-73.2421875
-94.29931640625
-116.27197265625
-105.28564453125
-89.7216796875
-77.81982421875
-68.66455078125
-72.32666015625
-85.14404296875
-78.7353515625
-72.32666015625
-74.15771484375
-75.98876953125
-86.97509765625
-83.31298828125
-90.63720703125
-76.904296875
-77.81982421875
-69.580078125
-72.32666015625
-84.228515625
-90.63720703125
-92.46826171875
-90.63720703125
-90.63720703125
-89.7216796875
-81.48193359375
-79.65087890625
-79.65087890625
-73.2421875
-79.65087890625
-86.0595703125
-86.97509765625
-88.80615234375
-86.0595703125
-86.0595703125
-96.13037109375
-104.3701171875
-89.7216796875
-78.7353515625
-81.48193359375
-80.56640625
-94.29931640625
-99.79248046875
-108.94775390625
-96.13037109375
-87.890625
-85.14404296875
-79.65087890625
-83.31298828125
-98.876953125
-117.1875
-112.60986328125
-109.86328125
-108.94775390625
-103.45458984375
-101.62353515625
-111.6943359375
-111.6943359375
-97.0458984375
-100.7080078125
-102.5390625
-106.201171875
-105.28564453125
-102.5390625
-102.5390625
-107.11669921875
-119.93408203125
-115.3564453125
-104.3701171875
-98.876953125
-115.3564453125
-111.6943359375
-110.77880859375
-118.10302734375
-108.94775390625
-122.6806640625
-132.75146484375
-135.498046875
-124.51171875
-110.77880859375
-109.86328125
-113.525390625
-110.77880859375
-107.11669921875
-101.62353515625
-104.3701171875
-117.1875
-120.849609375
-121.76513671875
-116.27197265625
-113.525390625
-108.0322265625
-96.13037109375
-99.79248046875
-104.3701171875
-118.10302734375
-125.42724609375
-138.24462890625
-140.9912109375
-128.173828125
-119.0185546875
-112.60986328125
-111.6943359375
-99.79248046875
-97.0458984375
-102.5390625
-104.3701171875
-116.27197265625
-137.3291015625
-139.16015625
-132.75146484375
-130.0048828125
-123.59619140625
-109.86328125
-95.21484375
-103.45458984375
-115.3564453125
-115.3564453125
-118.10302734375
-127.25830078125
-123.59619140625
-107.11669921875
-97.96142578125
-95.21484375
-97.0458984375
-90.63720703125
-74.15771484375
-69.580078125
-69.580078125
-64.0869140625
-72.32666015625
-76.904296875
-71.4111328125
-81.48193359375
-81.48193359375
-65.00244140625
-60.4248046875
-64.0869140625
-68.66455078125
-74.15771484375
-68.66455078125
-76.904296875
-70.49560546875
-56.7626953125
-65.91796875
-76.904296875
-89.7216796875
-101.62353515625
-75.0732421875
-54.931640625
-50.35400390625
-47.607421875
-37.53662109375
-43.02978515625
-38.4521484375
-35.70556640625
-34.7900390625
-32.04345703125
-40.283203125
-57.67822265625
-77.81982421875
-91.552734375
-98.876953125
-102.5390625
-119.0185546875
-121.76513671875
-116.27197265625
-115.3564453125
-125.42724609375
-119.0185546875
-110.77880859375
-114.44091796875
-120.849609375
-126.3427734375
-132.75146484375
-133.6669921875
-139.16015625
-121.76513671875
-109.86328125
-113.525390625
-110.77880859375
-128.173828125
-130.0048828125
-131.8359375
-131.8359375
-135.498046875
-126.3427734375
-110.77880859375
-104.3701171875
-117.1875
-124.51171875
-140.07568359375
-152.89306640625
-152.89306640625
-155.6396484375
-164.794921875
-168.45703125
-160.21728515625
-154.72412109375
-131.8359375
-103.45458984375
-24.71923828125
83.31298828125
220.64208984375
389.09912109375
555.72509765625
715.02685546875
888.0615234375
1019.8974609375
1052.8564453125
1001.5869140625
869.7509765625
704.04052734375
470.5810546875
179.443359375
-77.81982421875
-282.89794921875
-418.39599609375
-492.5537109375
-474.2431640625
-441.2841796875
-401.91650390625
-385.43701171875
-346.98486328125
-301.20849609375
-272.8271484375
-254.5166015625
-232.5439453125
-200.50048828125
-170.2880859375
-141.90673828125
-125.42724609375
-111.6943359375
-94.29931640625
-108.0322265625
-109.86328125
-108.94775390625
-104.3701171875
-110.77880859375
-102.5390625
-92.46826171875
-102.5390625
-103.45458984375
-83.31298828125
-83.31298828125
-81.48193359375
-81.48193359375
-71.4111328125
-76.904296875
-68.66455078125
-85.14404296875
-97.96142578125
-97.0458984375
-97.96142578125
-79.65087890625
-59.50927734375
-54.01611328125
-74.15771484375
-88.80615234375
-72.32666015625
-61.34033203125
-44.86083984375
-36.62109375
-43.02978515625
-54.931640625
-68.66455078125
-59.50927734375
-59.50927734375
-56.7626953125
-51.26953125
-46.69189453125
-45.7763671875
-36.62109375
-29.296875
-21.97265625
-21.97265625
-29.296875
-23.8037109375
-24.71923828125
-27.4658203125
-23.8037109375
-21.97265625
-15.56396484375
-12.8173828125
-11.90185546875
-7.32421875
-5.4931640625
-6.40869140625
-6.40869140625
1.8310546875
4.57763671875
0.91552734375
10.986328125
-5.4931640625
3.662109375
7.32421875
19.22607421875
20.1416015625
31.1279296875
53.1005859375
53.1005859375
48.52294921875
43.9453125
38.4521484375
51.26953125
61.34033203125
54.931640625
55.84716796875
66.83349609375
80.56640625
91.552734375
97.0458984375
97.96142578125
102.5390625
106.201171875
115.3564453125
126.3427734375
126.3427734375
124.51171875
136.41357421875
144.6533203125
151.06201171875
153.80859375
154.72412109375
155.6396484375
166.6259765625
185.85205078125
189.51416015625
181.2744140625
165.71044921875
179.443359375
186.767578125
189.51416015625
189.51416015625
189.51416015625
205.99365234375
225.2197265625
238.95263671875
238.037109375
235.29052734375
228.8818359375
228.8818359375
235.29052734375
235.29052734375
241.69921875
241.69921875
233.45947265625
226.13525390625
204.16259765625
183.10546875
169.37255859375
165.71044921875
177.6123046875
170.2880859375
152.89306640625
147.39990234375
133.6669921875
114.44091796875
100.7080078125
96.13037109375
98.876953125
96.13037109375
73.2421875
42.1142578125
17.39501953125
0
1.8310546875
2.74658203125
2.74658203125
-2.74658203125
-14.6484375
-21.05712890625
-33.87451171875
-36.62109375
-40.283203125
-49.4384765625
-52.18505859375
-47.607421875
-43.9453125
-49.4384765625
-60.4248046875
-59.50927734375
-74.15771484375
-87.890625
-86.0595703125
-87.890625
-77.81982421875
-70.49560546875
-74.15771484375
-77.81982421875
-97.0458984375
-107.11669921875
-102.5390625
-87.890625
-86.0595703125
-84.228515625
-84.228515625
-89.7216796875
-97.96142578125
-92.46826171875
-85.14404296875
-91.552734375
-87.890625
-89.7216796875
-102.5390625
-95.21484375
-86.97509765625
-83.31298828125
-90.63720703125
-90.63720703125
-91.552734375
-93.3837890625
-93.3837890625
-97.96142578125
-91.552734375
-91.552734375
-86.97509765625
-86.0595703125
-92.46826171875
-102.5390625
-113.525390625
-103.45458984375
-92.46826171875
-84.228515625
-80.56640625
-88.80615234375
-100.7080078125
-98.876953125
-96.13037109375
-94.29931640625
-108.94775390625
-112.60986328125
-102.5390625
-92.46826171875
-97.96142578125
-97.96142578125
-97.96142578125
-98.876953125
-89.7216796875
-97.0458984375
-103.45458984375
-107.11669921875
-108.94775390625
-117.1875
-111.6943359375
-104.3701171875
-102.5390625
-105.28564453125
-113.525390625
-106.201171875
-96.13037109375
-99.79248046875
-101.62353515625
-104.3701171875
-102.5390625
-114.44091796875
-113.525390625
-118.10302734375
-128.173828125
-122.6806640625
-112.60986328125
-110.77880859375
-108.0322265625
-115.3564453125
-116.27197265625
-145.56884765625
-150.146484375
-125.42724609375
-107.11669921875
-104.3701171875
-116.27197265625
-118.10302734375
-134.58251953125
-132.75146484375
-117.1875
-117.1875
-130.0048828125
-121.76513671875
-113.525390625
-108.0322265625
-116.27197265625
-119.0185546875
-113.525390625
-127.25830078125
-127.25830078125
-126.3427734375
-130.92041015625
-129.08935546875
-129.08935546875
-122.6806640625
-118.10302734375
-122.6806640625
-135.498046875
-133.6669921875
-126.3427734375
-109.86328125
-121.76513671875
-122.6806640625
-127.25830078125
-126.3427734375
-124.51171875
-121.76513671875
-121.76513671875
-127.25830078125
-120.849609375
-120.849609375
-126.3427734375
-114.44091796875
-116.27197265625
-123.59619140625
-136.41357421875
-150.146484375
-148.3154296875
-131.8359375
-129.08935546875
-125.42724609375
-125.42724609375
-119.0185546875
-111.6943359375
-104.3701171875
-116.27197265625
-114.44091796875
-114.44091796875
-130.92041015625
-129.08935546875
-130.0048828125
-131.8359375
-110.77880859375
-97.0458984375
-105.28564453125
-92.46826171875
-89.7216796875
-84.228515625
-79.65087890625
-81.48193359375
-76.904296875
-73.2421875
-76.904296875
-74.15771484375
-80.56640625
-80.56640625
-80.56640625
-82.3974609375
-71.4111328125
-66.83349609375
-87.890625
-94.29931640625
-100.7080078125
-110.77880859375
-93.3837890625
-78.7353515625
-84.228515625
-81.48193359375
-72.32666015625
-75.0732421875
-66.83349609375
-54.01611328125
-47.607421875
-32.958984375
-23.8037109375
-33.87451171875
-50.35400390625
-72.32666015625
-83.31298828125
-72.32666015625
-82.3974609375
-79.65087890625
-97.96142578125
-110.77880859375
-117.1875
-121.76513671875
-124.51171875
-123.59619140625
-129.08935546875
-130.0048828125
-128.173828125
-121.76513671875
-120.849609375
-124.51171875
-128.173828125
-134.58251953125
-140.9912109375
-138.24462890625
-134.58251953125
-133.6669921875
-137.3291015625
-127.25830078125
-119.0185546875
-131.8359375
-129.08935546875
-132.75146484375
-134.58251953125
-134.58251953125
-133.6669921875
-126.3427734375
-128.173828125
-130.92041015625
-141.90673828125
-149.23095703125
-164.794921875
-188.5986328125
-180.35888671875
-159.3017578125
-151.06201171875
-137.3291015625
-97.0458984375
-13.73291015625
119.0185546875
297.54638671875
464.17236328125
628.96728515625
811.1572265625
986.02294921875
1074.8291015625
1090.39306640625
1005.2490234375
834.9609375
624.3896484375
346.0693359375
56.7626953125
-178.52783203125
-357.97119140625
-464.17236328125
-499.8779296875
-470.5810546875
-419.3115234375
-361.63330078125
-337.82958984375
-320.4345703125
-298.4619140625
-277.40478515625
-262.75634765625
-233.45947265625
-215.14892578125
-184.9365234375
-145.56884765625
-108.0322265625
-87.890625
-95.21484375
-98.876953125
-108.0322265625
-118.10302734375
-119.93408203125
-118.10302734375
-109.86328125
-106.201171875
-97.0458984375
-98.876953125
-101.62353515625
-93.3837890625
-95.21484375
-97.0458984375
-89.7216796875
-96.13037109375
-96.13037109375
-92.46826171875
-92.46826171875
-83.31298828125
-76.904296875
-87.890625
-97.96142578125
-95.21484375
-83.31298828125
-77.81982421875
-74.15771484375
-58.59375
-53.1005859375
-73.2421875
-101.62353515625
-98.876953125
-80.56640625
-67.7490234375
-65.91796875
-57.67822265625
-51.26953125
-43.02978515625
-38.4521484375
-34.7900390625
-29.296875
-22.88818359375
-28.38134765625
-33.87451171875
-35.70556640625
-39.36767578125
-39.36767578125
-32.04345703125
-21.05712890625
-22.88818359375
-21.05712890625
-12.8173828125
-16.4794921875
-18.310546875
-19.22607421875
-11.90185546875
-8.23974609375
-7.32421875
-9.1552734375
-0.91552734375
-1.8310546875
3.662109375
11.90185546875
9.1552734375
5.4931640625
16.4794921875
28.38134765625
27.4658203125
10.986328125
16.4794921875
27.4658203125
32.958984375
51.26953125
63.17138671875
64.0869140625
62.255859375
65.91796875
67.7490234375
72.32666015625
75.98876953125
78.7353515625
81.48193359375
89.7216796875
107.11669921875
111.6943359375
119.93408203125
130.0048828125
147.39990234375
150.146484375
157.470703125
159.3017578125
168.45703125
168.45703125
173.9501953125
175.78125
184.02099609375
188.5986328125
193.17626953125
200.50048828125
204.16259765625
199.5849609375
189.51416015625
190.4296875
184.9365234375
203.2470703125
211.48681640625
218.81103515625
221.5576171875
225.2197265625
230.712890625
231.62841796875
221.5576171875
209.65576171875
209.65576171875
200.50048828125
198.66943359375
188.5986328125
171.20361328125
171.20361328125
168.45703125
148.3154296875
134.58251953125
119.0185546875
115.3564453125
118.10302734375
109.86328125
89.7216796875
69.580078125
45.7763671875
32.958984375
34.7900390625
38.4521484375
35.70556640625
21.05712890625
12.8173828125
-5.4931640625
-6.40869140625
-15.56396484375
-32.04345703125
-49.4384765625
-50.35400390625
-55.84716796875
-68.66455078125
-72.32666015625
-77.81982421875
-72.32666015625
-72.32666015625
-71.4111328125
-65.00244140625
-71.4111328125
-75.0732421875
-84.228515625
-89.7216796875
-87.890625
-95.21484375
-97.96142578125
-101.62353515625
-104.3701171875
-96.13037109375
-95.21484375
-97.0458984375
-100.7080078125
-95.21484375
-103.45458984375
-107.11669921875
-112.60986328125
-117.1875
-111.6943359375
-104.3701171875
-105.28564453125
-98.876953125
-100.7080078125
-107.11669921875
-87.890625
-89.7216796875
-104.3701171875
-118.10302734375
-110.77880859375
-107.11669921875
-104.3701171875
-87.890625
-97.0458984375
-116.27197265625
-130.92041015625
-139.16015625
-128.173828125
-114.44091796875
-99.79248046875
-97.0458984375
-97.96142578125
-94.29931640625
-88.80615234375
-101.62353515625
-118.10302734375
-116.27197265625
-108.94775390625
-108.94775390625
-114.44091796875
-109.86328125
-101.62353515625
-103.45458984375
-110.77880859375
-108.94775390625
-110.77880859375
-122.6806640625
-129.08935546875
-121.76513671875
-113.525390625
-123.59619140625
-128.173828125
-129.08935546875
-115.3564453125
-103.45458984375
-106.201171875
-111.6943359375
-121.76513671875
-123.59619140625
-133.6669921875
-121.76513671875
-119.0185546875
-119.0185546875
-124.51171875
-126.3427734375
-137.3291015625
-133.6669921875
-127.25830078125
-129.08935546875
-134.58251953125
-137.3291015625
-137.3291015625
-126.3427734375
-124.51171875
-131.8359375
-134.58251953125
-125.42724609375
-129.08935546875
-130.0048828125
-128.173828125
-132.75146484375
-118.10302734375
-122.6806640625
-128.173828125
-124.51171875
-125.42724609375
-133.6669921875
-139.16015625
-146.484375
-137.3291015625
-133.6669921875
-124.51171875
-129.08935546875
-130.92041015625
-136.41357421875
-145.56884765625
-141.90673828125
-134.58251953125
-134.58251953125
-128.173828125
-127.25830078125
-147.39990234375
-160.21728515625
-148.3154296875
-133.6669921875
-144.6533203125
-132.75146484375
-140.07568359375
-147.39990234375
-144.6533203125
-140.07568359375
-139.16015625
-137.3291015625
-129.08935546875
-136.41357421875
-140.9912109375
-141.90673828125
-138.24462890625
-128.173828125
-136.41357421875
-140.07568359375
-151.06201171875
-149.23095703125
-129.08935546875
-133.6669921875
-131.8359375
-135.498046875
-131.8359375
-130.92041015625
-135.498046875
-132.75146484375
-131.8359375
-137.3291015625
-146.484375
-144.6533203125
-145.56884765625
-138.24462890625
-140.07568359375
-130.92041015625
-130.92041015625
-125.42724609375
-124.51171875
-112.60986328125
-119.0185546875
-141.90673828125
-175.78125
-158.38623046875
-139.16015625
-120.849609375
-114.44091796875
-103.45458984375
-99.79248046875
-104.3701171875
-104.3701171875
-102.5390625
-94.29931640625
-110.77880859375
-101.62353515625
-92.46826171875
-88.80615234375
-104.3701171875
-110.77880859375
-110.77880859375
-110.77880859375
-100.7080078125
-95.21484375
-83.31298828125
-86.0595703125
-101.62353515625
-91.552734375
-89.7216796875
-79.65087890625
-61.34033203125
-65.91796875
-75.98876953125
-88.80615234375
-94.29931640625
-84.228515625
-75.98876953125
-71.4111328125
-51.26953125
-45.7763671875
-57.67822265625
-75.0732421875
-83.31298828125
-96.13037109375
-104.3701171875
-117.1875
-130.0048828125
-138.24462890625
-148.3154296875
-152.89306640625
-150.146484375
-155.6396484375
-144.6533203125
-139.16015625
-131.8359375
-146.484375
-143.73779296875
-137.3291015625
-135.498046875
-129.08935546875
-123.59619140625
-134.58251953125
-144.6533203125
-138.24462890625
-141.90673828125
-152.89306640625
-143.73779296875
-147.39990234375
-148.3154296875
-128.173828125
-144.6533203125
-152.89306640625
-160.21728515625
-156.55517578125
-158.38623046875
-158.38623046875
-165.71044921875
-176.69677734375
-172.119140625
-159.3017578125
-154.72412109375
-149.23095703125
-129.08935546875
-94.29931640625
-24.71923828125
119.0185546875
287.4755859375
464.17236328125
609.7412109375
748.9013671875
903.62548828125
976.86767578125
936.58447265625
811.1572265625
639.95361328125
426.6357421875
159.3017578125
-101.62353515625
-301.20849609375
-460.51025390625
-533.75244140625
-512.6953125
-480.65185546875
-416.56494140625
-354.30908203125
-322.265625
-309.4482421875
-293.88427734375
-291.1376953125
-283.8134765625
-270.99609375
-257.26318359375
-232.5439453125
-203.2470703125
-172.119140625
-148.3154296875
-134.58251953125
-128.173828125
-118.10302734375
-118.10302734375
-108.94775390625
-114.44091796875
-119.93408203125
-120.849609375
-115.3564453125
-109.86328125
-113.525390625
-108.94775390625
-105.28564453125
-100.7080078125
-103.45458984375
-101.62353515625
-104.3701171875
-98.876953125
-95.21484375
-98.876953125
-83.31298828125
-75.98876953125
-79.65087890625
-80.56640625
-79.65087890625
-78.7353515625
-75.98876953125
-80.56640625
-75.0732421875
-75.98876953125
-87.890625
-74.15771484375
-54.01611328125
-48.52294921875
-65.00244140625
-68.66455078125
-85.14404296875
-82.3974609375
-60.4248046875
-51.26953125
-42.1142578125
-28.38134765625
-29.296875
-34.7900390625
-33.87451171875
-42.1142578125
-35.70556640625
-32.04345703125
-20.1416015625
-24.71923828125
-31.1279296875
-28.38134765625
-29.296875
-29.296875
-21.05712890625
-8.23974609375
3.662109375
14.6484375
6.40869140625
8.23974609375
12.8173828125
10.986328125
17.39501953125
17.39501953125
20.1416015625
25.634765625
26.55029296875
36.62109375
46.69189453125
32.04345703125
38.4521484375
54.01611328125
59.50927734375
60.4248046875
71.4111328125
75.0732421875
82.3974609375
74.15771484375
51.26953125
62.255859375
78.7353515625
94.29931640625
101.62353515625
117.1875
131.8359375
136.41357421875
130.92041015625
134.58251953125
137.3291015625
145.56884765625
157.470703125
158.38623046875
153.80859375
156.55517578125
172.119140625
178.52783203125
185.85205078125
194.091796875
202.33154296875
203.2470703125
208.740234375
211.48681640625
219.7265625
217.8955078125
217.8955078125
229.79736328125
240.78369140625
232.5439453125
219.7265625
225.2197265625
231.62841796875
240.78369140625
236.2060546875
228.8818359375
221.5576171875
212.40234375
195.9228515625
190.4296875
192.2607421875
189.51416015625
177.6123046875
169.37255859375
129.08935546875
86.97509765625
85.14404296875
93.3837890625
86.97509765625
94.29931640625
87.890625
77.81982421875
56.7626953125
41.19873046875
30.21240234375
14.6484375
6.40869140625
-3.662109375
-10.07080078125
-12.8173828125
-20.1416015625
-35.70556640625
-35.70556640625
-35.70556640625
-58.59375
-63.17138671875
-63.17138671875
-75.0732421875
-73.2421875
-59.50927734375
-57.67822265625
-61.34033203125
-63.17138671875
-80.56640625
-83.31298828125
-85.14404296875
-97.0458984375
-94.29931640625
-92.46826171875
-96.13037109375
-98.876953125
-95.21484375
-97.96142578125
-96.13037109375
-97.0458984375
-92.46826171875
-84.228515625
-82.3974609375
-78.7353515625
-86.97509765625
-112.60986328125
-119.0185546875
-117.1875
-105.28564453125
-90.63720703125
-77.81982421875
-75.0732421875
-74.15771484375
-79.65087890625
-91.552734375
-117.1875
-117.1875
-107.11669921875
-108.94775390625
-101.62353515625
-91.552734375
-84.228515625
-91.552734375
-93.3837890625
-88.80615234375
-83.31298828125
-88.80615234375
-93.3837890625
-97.96142578125
-100.7080078125
-89.7216796875
-86.97509765625
-90.63720703125
-97.0458984375
-106.201171875
-108.94775390625
-104.3701171875
-95.21484375
-90.63720703125
-103.45458984375
-98.876953125
-90.63720703125
-101.62353515625
-106.201171875
-110.77880859375
-124.51171875
-119.93408203125
-104.3701171875
-100.7080078125
-106.201171875
-105.28564453125
-106.201171875
-103.45458984375
-105.28564453125
-104.3701171875
-117.1875
-138.24462890625
-141.90673828125
-124.51171875
-118.10302734375
-109.86328125
-110.77880859375
-116.27197265625
-119.93408203125
-130.92041015625
-131.8359375
-132.75146484375
-135.498046875
-139.16015625
-133.6669921875
-127.25830078125
-116.27197265625
-111.6943359375
-109.86328125
-124.51171875
-125.42724609375
-124.51171875
-122.6806640625
-121.76513671875
-124.51171875
-118.10302734375
-128.173828125
-143.73779296875
-164.794921875
-162.04833984375
-149.23095703125
-148.3154296875
-137.3291015625
-115.3564453125
-117.1875
-125.42724609375
-127.25830078125
-127.25830078125
-130.92041015625
-132.75146484375
-136.41357421875
-141.90673828125
-136.41357421875
-130.92041015625
-134.58251953125
-145.56884765625
-142.822265625
-134.58251953125
-130.0048828125
-127.25830078125
-127.25830078125
-137.3291015625
-143.73779296875
-142.822265625
-136.41357421875
-131.8359375
-133.6669921875
-131.8359375
-127.25830078125
-140.07568359375
-141.90673828125
-138.24462890625
-144.6533203125
-150.146484375
-136.41357421875
-119.93408203125
-135.498046875
-158.38623046875
-149.23095703125
-139.16015625
-141.90673828125
-141.90673828125
-133.6669921875
-134.58251953125
-130.0048828125
-126.3427734375
-129.08935546875
-127.25830078125
-126.3427734375
-123.59619140625
-121.76513671875
-135.498046875
-144.6533203125
-144.6533203125
-132.75146484375
-133.6669921875
-147.39990234375
-154.72412109375
-145.56884765625
-137.3291015625
-133.6669921875
-123.59619140625
-117.1875
-118.10302734375
-114.44091796875
-115.3564453125
-111.6943359375
-98.876953125
-95.21484375
-94.29931640625
-86.0595703125
-86.0595703125
-92.46826171875
-86.97509765625
-87.890625
-78.7353515625
-77.81982421875
-91.552734375
-100.7080078125
-104.3701171875
-103.45458984375
-94.29931640625
-93.3837890625
-103.45458984375
-95.21484375
-93.3837890625
-78.7353515625
-66.83349609375
-74.15771484375
-95.21484375
-85.14404296875
-76.904296875
-67.7490234375
-58.59375
-55.84716796875
-50.35400390625
-48.52294921875
-49.4384765625
-62.255859375
-64.0869140625
-76.904296875
-101.62353515625
-121.76513671875
-142.822265625
-157.470703125
-155.6396484375
-151.06201171875
-135.498046875
-135.498046875
-142.822265625
-135.498046875
-129.08935546875
-126.3427734375
-130.0048828125
-130.0048828125
-130.92041015625
-129.08935546875
-125.42724609375
-123.59619140625
-127.25830078125
-140.07568359375
-168.45703125
-160.21728515625
-147.39990234375
-140.07568359375
-143.73779296875
-141.90673828125
-137.3291015625
-132.75146484375
-140.9912109375
-140.07568359375
-143.73779296875
-156.55517578125
-159.3017578125
-160.21728515625
-166.6259765625
-173.9501953125
-183.10546875
-176.69677734375
-139.16015625
-60.4248046875
56.7626953125
204.16259765625
384.521484375
550.23193359375
710.44921875
883.48388671875
1042.78564453125
1101.37939453125
1073.91357421875
941.162109375
758.056640625
513.61083984375
219.7265625
-47.607421875
-259.09423828125
-422.05810546875
-492.5537109375
-488.8916015625
-444.9462890625
-400.08544921875
-355.224609375
-318.603515625
-307.6171875
-311.279296875
-280.1513671875
-245.361328125
-219.7265625
-190.4296875
-157.470703125
-145.56884765625
-130.0048828125
-116.27197265625
-112.60986328125
-113.525390625
-111.6943359375
-97.96142578125
-97.0458984375
-99.79248046875
-117.1875
-117.1875
-120.849609375
-140.07568359375
-136.41357421875
-124.51171875
-108.94775390625
-103.45458984375
-93.3837890625
-83.31298828125
-77.81982421875
-84.228515625
-87.890625
-74.15771484375
-70.49560546875
-77.81982421875
-97.0458984375
-102.5390625
-86.0595703125
-86.0595703125
-79.65087890625
-71.4111328125
-71.4111328125
-73.2421875
-70.49560546875
-71.4111328125
-64.0869140625
-58.59375
-54.931640625
-54.931640625
-54.01611328125
-56.7626953125
-53.1005859375
-49.4384765625
-43.9453125
-47.607421875
-42.1142578125
-34.7900390625
-39.36767578125
-43.9453125
-42.1142578125
-43.9453125
-50.35400390625
-44.86083984375
-28.38134765625
-22.88818359375
-17.39501953125
-19.22607421875
-24.71923828125
-32.04345703125
-23.8037109375
-8.23974609375
1.8310546875
-4.57763671875
-3.662109375
1.8310546875
20.1416015625
35.70556640625
46.69189453125
44.86083984375
20.1416015625
-10.986328125
-11.90185546875
7.32421875
29.296875
43.9453125
62.255859375
70.49560546875
68.66455078125
63.17138671875
64.0869140625
70.49560546875
78.7353515625
88.80615234375
96.13037109375
97.0458984375
104.3701171875
101.62353515625
100.7080078125
117.1875
118.10302734375
124.51171875
143.73779296875
155.6396484375
161.1328125
163.87939453125
151.9775390625
160.21728515625
172.119140625
177.6123046875
185.85205078125
190.4296875
188.5986328125
195.00732421875
195.00732421875
201.416015625
212.40234375
213.31787109375
219.7265625
210.5712890625
188.5986328125
197.75390625
220.64208984375
221.5576171875
219.7265625
194.091796875
195.00732421875
208.740234375
211.48681640625
205.078125
199.5849609375
194.091796875
180.35888671875
168.45703125
146.484375
133.6669921875
136.41357421875
129.08935546875
118.10302734375
104.3701171875
97.96142578125
83.31298828125
71.4111328125
59.50927734375
43.9453125
32.958984375
33.87451171875
22.88818359375
8.23974609375
-22.88818359375
-35.70556640625
-35.70556640625
-27.4658203125
-25.634765625
-30.21240234375
-48.52294921875
-57.67822265625
-65.91796875
-66.83349609375
-55.84716796875
-63.17138671875
-65.00244140625
-91.552734375
-102.5390625
-78.7353515625
-63.17138671875
-58.59375
-55.84716796875
-60.4248046875
-83.31298828125
-112.60986328125
-102.5390625
-92.46826171875
-82.3974609375
-82.3974609375
-85.14404296875
-86.97509765625
-98.876953125
-105.28564453125
-92.46826171875
-87.890625
-103.45458984375
-88.80615234375
-78.7353515625
-85.14404296875
-94.29931640625
-102.5390625
-106.201171875
-99.79248046875
-98.876953125
-86.0595703125
-95.21484375
-93.3837890625
-92.46826171875
-93.3837890625
-97.0458984375
-102.5390625
-104.3701171875
-89.7216796875
-91.552734375
-97.0458984375
-106.201171875
-98.876953125
-88.80615234375
-96.13037109375
-106.201171875
-103.45458984375
-92.46826171875
-86.97509765625
-89.7216796875
-89.7216796875
-97.0458984375
-102.5390625
-107.11669921875
-108.94775390625
-103.45458984375
-99.79248046875
-95.21484375
-101.62353515625
-112.60986328125
-102.5390625
-107.11669921875
-102.5390625
-92.46826171875
-90.63720703125
-102.5390625
-102.5390625
-97.96142578125
-116.27197265625
-124.51171875
-113.525390625
-116.27197265625
-131.8359375
-130.0048828125
-118.10302734375
-97.0458984375
-94.29931640625
-103.45458984375
-112.60986328125
-132.75146484375
-142.822265625
-112.60986328125
-110.77880859375
-114.44091796875
-115.3564453125
-112.60986328125
-110.77880859375
-108.0322265625
-108.0322265625
-107.11669921875
-102.5390625
-105.28564453125
-125.42724609375
-132.75146484375
-131.8359375
-116.27197265625
-117.1875
-105.28564453125
-104.3701171875
-106.201171875
-119.93408203125
-124.51171875
-129.08935546875
-121.76513671875
-114.44091796875
-122.6806640625
-130.92041015625
-130.0048828125
-125.42724609375
-123.59619140625
-123.59619140625
-127.25830078125
-117.1875
-127.25830078125
-124.51171875
-115.3564453125
-118.10302734375
-116.27197265625
-119.0185546875
-124.51171875
-122.6806640625
-134.58251953125
-129.08935546875
-119.93408203125
-120.849609375
-124.51171875
-130.92041015625
-126.3427734375
-141.90673828125
-130.0048828125
-122.6806640625
-128.173828125
-134.58251953125
-139.16015625
-132.75146484375
-131.8359375
-136.41357421875
-131.8359375
-136.41357421875
-119.93408203125
-119.93408203125
-119.0185546875
-119.0185546875
-124.51171875
-121.76513671875
-112.60986328125
-119.93408203125
-125.42724609375
-121.76513671875
-111.6943359375
-117.1875
-136.41357421875
-142.822265625
-140.9912109375
-135.498046875
-136.41357421875
-131.8359375
-118.10302734375
-99.79248046875
-108.0322265625
-130.0048828125
-137.3291015625
-129.08935546875
-122.6806640625
-116.27197265625
-107.11669921875
-118.10302734375
-121.76513671875
-120.849609375
-102.5390625
-88.80615234375
-80.56640625
-84.228515625
-89.7216796875
-83.31298828125
-87.890625
-88.80615234375
-84.228515625
-86.0595703125
-84.228515625
-86.0595703125
-91.552734375
-93.3837890625
-91.552734375
-84.228515625
-86.0595703125
-81.48193359375
-65.91796875
-58.59375
-64.0869140625
-67.7490234375
-68.66455078125
-72.32666015625
-72.32666015625
-64.0869140625
-68.66455078125
-86.0595703125
-81.48193359375
-50.35400390625
-37.53662109375
-36.62109375
-43.02978515625
-59.50927734375
-70.49560546875
-75.98876953125
-89.7216796875
-94.29931640625
-95.21484375
-105.28564453125
-123.59619140625
-129.08935546875
-141.90673828125
-135.498046875
-138.24462890625
-125.42724609375
-118.10302734375
-124.51171875
-129.08935546875
-136.41357421875
-136.41357421875
-135.498046875
-126.3427734375
-123.59619140625
-129.08935546875
-130.0048828125
-129.08935546875
-127.25830078125
-123.59619140625
-124.51171875
-133.6669921875
-139.16015625
-140.07568359375
-145.56884765625
-130.92041015625
-133.6669921875
-151.9775390625
-159.3017578125
-162.9638671875
-157.470703125
-148.3154296875
-160.21728515625
-165.71044921875
-150.146484375
-134.58251953125
-102.5390625
-69.580078125
25.634765625
166.6259765625
320.4345703125
471.49658203125
639.95361328125
810.24169921875
989.68505859375
1066.58935546875
1050.10986328125
943.90869140625
788.26904296875
566.71142578125
293.88427734375
-2.74658203125
-250.8544921875
-417.48046875
-487.97607421875
-481.5673828125
-444.9462890625
-394.59228515625
-345.15380859375
-303.03955078125
-285.64453125
-279.23583984375
-271.91162109375
-261.8408203125
-242.61474609375
-213.31787109375
-179.443359375
-159.3017578125
-144.6533203125
-128.173828125
-114.44091796875
-107.11669921875
-106.201171875
-110.77880859375
-108.94775390625
-112.60986328125
-117.1875
-111.6943359375
-90.63720703125
-88.80615234375
-91.552734375
-85.14404296875
-79.65087890625
-89.7216796875
-105.28564453125
-100.7080078125
-89.7216796875
-97.96142578125
-110.77880859375
-96.13037109375
-86.97509765625
-78.7353515625
-73.2421875
-67.7490234375
-73.2421875
-75.98876953125
-62.255859375
-48.52294921875
-51.26953125
-66.83349609375
-68.66455078125
-67.7490234375
-63.17138671875
-57.67822265625
-56.7626953125
-55.84716796875
-53.1005859375
-58.59375
-48.52294921875
-43.02978515625
-36.62109375
-36.62109375
-40.283203125
-41.19873046875
-30.21240234375
-39.36767578125
-38.4521484375
-34.7900390625
-21.97265625
-19.22607421875
-15.56396484375
-14.6484375
-12.8173828125
-21.97265625
-23.8037109375
-30.21240234375
-12.8173828125
-2.74658203125
-1.8310546875
-8.23974609375
15.56396484375
19.22607421875
25.634765625
23.8037109375
21.97265625
28.38134765625
33.87451171875
35.70556640625
31.1279296875
32.04345703125
42.1142578125
33.87451171875
33.87451171875
46.69189453125
60.4248046875
74.15771484375
93.3837890625
97.96142578125
97.96142578125
94.29931640625
100.7080078125
107.11669921875
106.201171875
114.44091796875
124.51171875
122.6806640625
132.75146484375
139.16015625
149.23095703125
157.470703125
155.6396484375
151.9775390625
154.72412109375
156.55517578125
171.20361328125
181.2744140625
186.767578125
188.5986328125
194.091796875
202.33154296875
216.97998046875
211.48681640625
212.40234375
215.14892578125
214.2333984375
220.64208984375
223.388671875
234.375
235.29052734375
242.61474609375
237.12158203125
236.2060546875
226.13525390625
213.31787109375
207.82470703125
213.31787109375
209.65576171875
209.65576171875
216.064453125
204.16259765625
186.767578125
165.71044921875
155.6396484375
132.75146484375
115.3564453125
108.0322265625
103.45458984375
82.3974609375
70.49560546875
59.50927734375
59.50927734375
53.1005859375
50.35400390625
35.70556640625
24.71923828125
14.6484375
6.40869140625
-12.8173828125
-22.88818359375
-35.70556640625
-41.19873046875
-40.283203125
-43.02978515625
-54.931640625
-66.83349609375
-68.66455078125
-70.49560546875
-63.17138671875
-61.34033203125
-68.66455078125
-69.580078125
-84.228515625
-96.13037109375
-79.65087890625
-83.31298828125
-87.890625
-86.97509765625
-82.3974609375
-78.7353515625
-64.0869140625
-67.7490234375
-91.552734375
-108.94775390625
-110.77880859375
-100.7080078125
-98.876953125
-96.13037109375
-82.3974609375
-78.7353515625
-79.65087890625
-86.97509765625
-99.79248046875
-112.60986328125
-119.0185546875
-108.0322265625
-92.46826171875
-82.3974609375
-87.890625
-85.14404296875
-86.97509765625
-82.3974609375
-79.65087890625
-85.14404296875
-88.80615234375
-85.14404296875
-97.96142578125
-101.62353515625
-97.96142578125
-86.97509765625
-82.3974609375
-80.56640625
-87.890625
-81.48193359375
-104.3701171875
-116.27197265625
-102.5390625
-89.7216796875
-85.14404296875
-79.65087890625
-78.7353515625
-84.228515625
-86.97509765625
-99.79248046875
-111.6943359375
-118.10302734375
-111.6943359375
-97.96142578125
-97.96142578125
-103.45458984375
-106.201171875
-103.45458984375
-97.0458984375
-114.44091796875
-119.0185546875
-115.3564453125
-124.51171875
-126.3427734375
-118.10302734375
-106.201171875
-107.11669921875
-100.7080078125
-100.7080078125
-106.201171875
-110.77880859375
-122.6806640625
-118.10302734375
-113.525390625
-113.525390625
-107.11669921875
-106.201171875
-104.3701171875
-97.96142578125
-96.13037109375
-97.0458984375
-117.1875
-131.8359375
-126.3427734375
-124.51171875
-128.173828125
-133.6669921875
-115.3564453125
-108.94775390625
-108.94775390625
-117.1875
-117.1875
-105.28564453125
-107.11669921875
-114.44091796875
-112.60986328125
-130.0048828125
-159.3017578125
-164.794921875
-147.39990234375
-121.76513671875
-119.0185546875
-116.27197265625
-108.0322265625
-111.6943359375
-116.27197265625
-118.10302734375
-126.3427734375
-121.76513671875
-122.6806640625
-119.93408203125
-122.6806640625
-123.59619140625
-134.58251953125
-131.8359375
-123.59619140625
-120.849609375
-128.173828125
-117.1875
-104.3701171875
-96.13037109375
-104.3701171875
-133.6669921875
-143.73779296875
-137.3291015625
-137.3291015625
-123.59619140625
-121.76513671875
-114.44091796875
-112.60986328125
-116.27197265625
-113.525390625
-107.11669921875
-121.76513671875
-117.1875
-118.10302734375
-129.08935546875
-123.59619140625
-129.08935546875
-152.89306640625
-145.56884765625
-132.75146484375
-119.93408203125
-110.77880859375
-103.45458984375
-101.62353515625
-112.60986328125
-113.525390625
-115.3564453125
-114.44091796875
-112.60986328125
-97.0458984375
-88.80615234375
-97.96142578125
-94.29931640625
-92.46826171875
-91.552734375
-86.0595703125
-74.15771484375
-73.2421875
-75.98876953125
-79.65087890625
-87.890625
-94.29931640625
-81.48193359375
-78.7353515625
-71.4111328125
-74.15771484375
-80.56640625
-85.14404296875
-83.31298828125
-72.32666015625
-63.17138671875
-63.17138671875
-61.34033203125
-59.50927734375
-71.4111328125
-76.904296875
-67.7490234375
-48.52294921875
-33.87451171875
-26.55029296875
-30.21240234375
-53.1005859375
-54.931640625
-63.17138671875
-82.3974609375
-102.5390625
-104.3701171875
-105.28564453125
-105.28564453125
-100.7080078125
-105.28564453125
-120.849609375
-138.24462890625
-136.41357421875
-138.24462890625
-139.16015625
-141.90673828125
-138.24462890625
-131.8359375
-124.51171875
-115.3564453125
-110.77880859375
-118.10302734375
-116.27197265625
-116.27197265625
-116.27197265625
-118.10302734375
-120.849609375
-124.51171875
-117.1875
-113.525390625
-119.0185546875
-120.849609375
-119.93408203125
-120.849609375
-127.25830078125
-130.92041015625
-146.484375
-148.3154296875
-164.794921875
-172.119140625
-169.37255859375
-158.38623046875
-151.06201171875
-134.58251953125
-97.96142578125
-31.1279296875
72.32666015625
231.62841796875
410.15625
577.69775390625
743.408203125
910.94970703125
1046.44775390625
1061.09619140625
989.68505859375
846.86279296875
658.26416015625
412.90283203125
132.75146484375
-120.849609375
-311.279296875
-439.453125
-498.96240234375
-490.72265625
-447.69287109375
-391.845703125
-346.98486328125
-313.1103515625
-293.88427734375
-273.74267578125
-259.09423828125
-244.44580078125
-212.40234375
-184.02099609375
-153.80859375
-123.59619140625
-110.77880859375
-98.876953125
-97.96142578125
-97.0458984375
-97.96142578125
-88.80615234375
-84.228515625
-90.63720703125
-92.46826171875
-97.96142578125
-98.876953125
-101.62353515625
-92.46826171875
-96.13037109375
-91.552734375
-90.63720703125
-90.63720703125
-86.97509765625
-78.7353515625
-78.7353515625
-79.65087890625
-73.2421875
-80.56640625
-94.29931640625
-90.63720703125
-76.904296875
-69.580078125
-59.50927734375
-57.67822265625
-54.931640625
-66.83349609375
-81.48193359375
-84.228515625
-67.7490234375
-58.59375
-45.7763671875
-44.86083984375
-38.4521484375
-39.36767578125
-44.86083984375
-38.4521484375
-32.04345703125
-32.958984375
-31.1279296875
-30.21240234375
-21.97265625
-19.22607421875
-12.8173828125
-19.22607421875
-18.310546875
-20.1416015625
-21.97265625
-16.4794921875
-12.8173828125
-10.07080078125
-7.32421875
9.1552734375
8.23974609375
6.40869140625
9.1552734375
5.4931640625
2.74658203125
10.07080078125
8.23974609375
16.4794921875
17.39501953125
21.97265625
30.21240234375
35.70556640625
49.4384765625
34.7900390625
28.38134765625
25.634765625
32.04345703125
40.283203125
66.83349609375
76.904296875
70.49560546875
75.0732421875
95.21484375
111.6943359375
114.44091796875
123.59619140625
131.8359375
131.8359375
119.93408203125
101.62353515625
101.62353515625
123.59619140625
143.73779296875
149.23095703125
159.3017578125
166.6259765625
162.9638671875
168.45703125
171.20361328125
180.35888671875
190.4296875
195.9228515625
193.17626953125
189.51416015625
187.68310546875
192.2607421875
196.83837890625
215.14892578125
219.7265625
221.5576171875
228.8818359375
236.2060546875
231.62841796875
224.30419921875
215.14892578125
223.388671875
227.96630859375
228.8818359375
232.5439453125
227.05078125
213.31787109375
201.416015625
195.00732421875
173.03466796875
141.90673828125
139.16015625
140.9912109375
146.484375
143.73779296875
123.59619140625
100.7080078125
77.81982421875
75.98876953125
65.91796875
47.607421875
38.4521484375
38.4521484375
30.21240234375
23.8037109375
6.40869140625
4.57763671875
1.8310546875
-12.8173828125
-23.8037109375
-24.71923828125
-33.87451171875
-48.52294921875
-60.4248046875
-65.00244140625
-69.580078125
-73.2421875
-77.81982421875
-67.7490234375
-65.00244140625
-77.81982421875
-79.65087890625
-77.81982421875
-86.0595703125
-89.7216796875
-85.14404296875
-82.3974609375
-80.56640625
-87.890625
-97.96142578125
-104.3701171875
-110.77880859375
-104.3701171875
-101.62353515625
-94.29931640625
-87.890625
-94.29931640625
-97.96142578125
-103.45458984375
-90.63720703125
-86.0595703125
-82.3974609375
-88.80615234375
-106.201171875
-105.28564453125
-101.62353515625
-98.876953125
-90.63720703125
-89.7216796875
-82.3974609375
-93.3837890625
-101.62353515625
-103.45458984375
-103.45458984375
-101.62353515625
-107.11669921875
-106.201171875
-97.96142578125
-91.552734375
-93.3837890625
-108.94775390625
-104.3701171875
-99.79248046875
-102.5390625
-105.28564453125
-92.46826171875
-90.63720703125
-87.890625
-96.13037109375
-98.876953125
-97.0458984375
-102.5390625
-98.876953125
-100.7080078125
-109.86328125
-107.11669921875
-99.79248046875
-102.5390625
-99.79248046875
-107.11669921875
-112.60986328125
-119.93408203125
-122.6806640625
-113.525390625
-109.86328125
-112.60986328125
-111.6943359375
-103.45458984375
-106.201171875
-110.77880859375
-106.201171875
-107.11669921875
-108.94775390625
-117.1875
-123.59619140625
-122.6806640625
-119.0185546875
-135.498046875
-132.75146484375
-139.16015625
-146.484375
-131.8359375
-123.59619140625
-121.76513671875
-124.51171875
-125.42724609375
-128.173828125
-127.25830078125
-133.6669921875
-130.0048828125
-126.3427734375
-121.76513671875
-119.0185546875
-117.1875
-130.92041015625
-132.75146484375
-131.8359375
-130.92041015625
-141.90673828125
-143.73779296875
-140.07568359375
-127.25830078125
-105.28564453125
-102.5390625
-109.86328125
-108.94775390625
-109.86328125
-114.44091796875
-118.10302734375
-128.173828125
-130.92041015625
-137.3291015625
-134.58251953125
-127.25830078125
-124.51171875
-122.6806640625
-125.42724609375
-136.41357421875
-148.3154296875
-140.9912109375
-142.822265625
-138.24462890625
-131.8359375
-119.0185546875
-126.3427734375
-127.25830078125
-124.51171875
-136.41357421875
-142.822265625
-152.89306640625
-147.39990234375
-139.16015625
-132.75146484375
-129.08935546875
-127.25830078125
-131.8359375
-131.8359375
-131.8359375
-129.08935546875
-130.0048828125
-122.6806640625
-120.849609375
-117.1875
-118.10302734375
-120.849609375
-121.76513671875
-115.3564453125
-118.10302734375
-120.849609375
-131.8359375
-132.75146484375
-130.92041015625
-134.58251953125
-126.3427734375
-120.849609375
-125.42724609375
-134.58251953125
-147.39990234375
-136.41357421875
-119.93408203125
-108.94775390625
-111.6943359375
-126.3427734375
-128.173828125
-127.25830078125
-116.27197265625
-105.28564453125
-89.7216796875
-93.3837890625
-96.13037109375
-91.552734375
-85.14404296875
-81.48193359375
-82.3974609375
-87.890625
-88.80615234375
-86.97509765625
-91.552734375
-101.62353515625
-105.28564453125
-101.62353515625
-94.29931640625
-74.15771484375
-65.91796875
-71.4111328125
-70.49560546875
-75.98876953125
-65.91796875
-49.4384765625
-58.59375
-56.7626953125
-74.15771484375
-98.876953125
-74.15771484375
-61.34033203125
-54.01611328125
-34.7900390625
-37.53662109375
-54.931640625
-58.59375
-65.00244140625
-82.3974609375
-97.96142578125
-115.3564453125
-122.6806640625
-130.0048828125
-128.173828125
-121.76513671875
-117.1875
-115.3564453125
-123.59619140625
-121.76513671875
-120.849609375
-141.90673828125
-140.9912109375
-139.16015625
-145.56884765625
-147.39990234375
-131.8359375
-127.25830078125
-135.498046875
-130.0048828125
-126.3427734375
-126.3427734375
-149.23095703125
-151.06201171875
-138.24462890625
-130.0048828125
-131.8359375
-121.76513671875
-131.8359375
-147.39990234375
-151.9775390625
-162.9638671875
-163.87939453125
-173.03466796875
-163.87939453125
-158.38623046875
-140.07568359375
-105.28564453125
-77.81982421875
-8.23974609375
133.6669921875
314.94140625
495.30029296875
671.08154296875
855.1025390625
1018.06640625
1066.58935546875
1048.27880859375
922.8515625
765.380859375
563.96484375
280.1513671875
-1.8310546875
-223.388671875
-396.42333984375
-479.736328125
-488.8916015625
-459.5947265625
-408.3251953125
-357.97119140625
-322.265625
-283.8134765625
-283.8134765625
-260.009765625
-247.1923828125
-227.96630859375
-194.091796875
-164.794921875
-143.73779296875
-111.6943359375
-109.86328125
-130.0048828125
-129.08935546875
-119.0185546875
-105.28564453125
-110.77880859375
-104.3701171875
-110.77880859375
-126.3427734375
-109.86328125
-93.3837890625
-87.890625
-90.63720703125
-86.97509765625
-100.7080078125
-101.62353515625
-91.552734375
-96.13037109375
-98.876953125
-93.3837890625
-87.890625
-78.7353515625
-80.56640625
-81.48193359375
-80.56640625
-88.80615234375
-86.0595703125
-70.49560546875
-70.49560546875
-54.01611328125
-62.255859375
-75.0732421875
-76.904296875
-76.904296875
-72.32666015625
-60.4248046875
-56.7626953125
-53.1005859375
-43.02978515625
-46.69189453125
-53.1005859375
-62.255859375
-68.66455078125
-75.0732421875
-63.17138671875
-32.958984375
-28.38134765625
-29.296875
-28.38134765625
-34.7900390625
-33.87451171875
-21.97265625
-20.1416015625
-24.71923828125
-23.8037109375
-21.97265625
-16.4794921875
-4.57763671875
-3.662109375
-10.07080078125
-2.74658203125
-2.74658203125
1.8310546875
18.310546875
12.8173828125
25.634765625
35.70556640625
36.62109375
36.62109375
38.4521484375
45.7763671875
42.1142578125
38.4521484375
39.36767578125
52.18505859375
54.931640625
54.01611328125
64.0869140625
63.17138671875
64.0869140625
70.49560546875
79.65087890625
90.63720703125
109.86328125
122.6806640625
121.76513671875
119.93408203125
123.59619140625
109.86328125
114.44091796875
140.9912109375
157.470703125
162.04833984375
158.38623046875
144.6533203125
124.51171875
151.06201171875
179.443359375
184.9365234375
191.34521484375
186.767578125
190.4296875
200.50048828125
208.740234375
213.31787109375
216.064453125
212.40234375
210.5712890625
223.388671875
228.8818359375
226.13525390625
213.31787109375
215.14892578125
223.388671875
216.97998046875
202.33154296875
205.078125
205.99365234375
195.9228515625
173.9501953125
149.23095703125
140.9912109375
151.06201171875
140.9912109375
128.173828125
123.59619140625
114.44091796875
90.63720703125
85.14404296875
70.49560546875
57.67822265625
36.62109375
38.4521484375
46.69189453125
29.296875
15.56396484375
8.23974609375
-8.23974609375
-11.90185546875
-12.8173828125
-14.6484375
-21.97265625
-33.87451171875
-58.59375
-64.0869140625
-50.35400390625
-51.26953125
-49.4384765625
-65.91796875
-76.904296875
-96.13037109375
-96.13037109375
-94.29931640625
-96.13037109375
-82.3974609375
-73.2421875
-86.0595703125
-89.7216796875
-88.80615234375
-93.3837890625
-89.7216796875
-88.80615234375
-85.14404296875
-87.890625
-87.890625
-86.0595703125
-89.7216796875
-84.228515625
-97.0458984375
-122.6806640625
-134.58251953125
-125.42724609375
-107.11669921875
-95.21484375
-88.80615234375
-85.14404296875
-79.65087890625
-84.228515625
-87.890625
-89.7216796875
-89.7216796875
-86.0595703125
-84.228515625
-87.890625
-97.0458984375
-95.21484375
-102.5390625
-110.77880859375
-106.201171875
-103.45458984375
-112.60986328125
-116.27197265625
-109.86328125
-106.201171875
-96.13037109375
-96.13037109375
-95.21484375
-96.13037109375
-105.28564453125
-102.5390625
-109.86328125
-110.77880859375
-107.11669921875
-118.10302734375
-113.525390625
-108.0322265625
-104.3701171875
-108.94775390625
-110.77880859375
-112.60986328125
-117.1875
-115.3564453125
-122.6806640625
-124.51171875
-120.849609375
-119.0185546875
-109.86328125
-112.60986328125
-112.60986328125
-121.76513671875
-132.75146484375
-122.6806640625
-109.86328125
-105.28564453125
-107.11669921875
-113.525390625
-113.525390625
-114.44091796875
-108.94775390625
-105.28564453125
-122.6806640625
-139.16015625
-150.146484375
-139.16015625
-132.75146484375
-124.51171875
-130.0048828125
-130.0048828125
-131.8359375
-139.16015625
-130.92041015625
-123.59619140625
-119.93408203125
-114.44091796875
-115.3564453125
-119.0185546875
-123.59619140625
-124.51171875
-133.6669921875
-138.24462890625
-151.06201171875
-154.72412109375
-142.822265625
-124.51171875
-123.59619140625
-124.51171875
-130.92041015625
-127.25830078125
-130.92041015625
-128.173828125
-130.0048828125
-128.173828125
-132.75146484375
-131.8359375
-136.41357421875
-140.07568359375
-132.75146484375
-122.6806640625
-118.10302734375
-122.6806640625
-118.10302734375
-120.849609375
-129.08935546875
-142.822265625
-153.80859375
-140.9912109375
-136.41357421875
-138.24462890625
-128.173828125
-128.173828125
-134.58251953125
-131.8359375
-135.498046875
-127.25830078125
-130.0048828125
-130.92041015625
-124.51171875
-120.849609375
-145.56884765625
-173.9501953125
-174.86572265625
-152.89306640625
-135.498046875
-140.9912109375
-120.849609375
-111.6943359375
-115.3564453125
-120.849609375
-126.3427734375
-119.93408203125
-107.11669921875
-97.96142578125
-104.3701171875
-124.51171875
-114.44091796875
-87.890625
-80.56640625
-87.890625
-101.62353515625
-101.62353515625
-99.79248046875
-108.94775390625
-109.86328125
-94.29931640625
-86.97509765625
-85.14404296875
-86.0595703125
-72.32666015625
-63.17138671875
-67.7490234375
-82.3974609375
-90.63720703125
-71.4111328125
-63.17138671875
-60.4248046875
-72.32666015625
-61.34033203125
-89.7216796875
-97.96142578125
-76.904296875
-66.83349609375
-51.26953125
-57.67822265625
-56.7626953125
-61.34033203125
-73.2421875
-86.0595703125
-108.94775390625
-121.76513671875
-112.60986328125
-121.76513671875
-120.849609375
-127.25830078125
-137.3291015625
-137.3291015625
-142.822265625
-143.73779296875
-149.23095703125
-140.9912109375
-134.58251953125
-133.6669921875
-137.3291015625
-137.3291015625
-136.41357421875
-131.8359375
-130.0048828125
-136.41357421875
-135.498046875
-125.42724609375
-125.42724609375
-147.39990234375
-159.3017578125
-170.2880859375
-150.146484375
-126.3427734375
-127.25830078125
-136.41357421875
-142.822265625
-158.38623046875
-168.45703125
-167.54150390625
-160.21728515625
-150.146484375
-153.80859375
-141.90673828125
-102.5390625
-42.1142578125
65.91796875
208.740234375
356.14013671875
527.34375
671.9970703125
833.1298828125
964.05029296875
971.37451171875
895.3857421875
744.32373046875
564.88037109375
334.16748046875
63.17138671875
-183.10546875
-377.197265625
-481.5673828125
-507.2021484375
-483.3984375
-455.9326171875
-385.43701171875
-343.32275390625
-326.84326171875
-295.71533203125
-274.658203125
-279.23583984375
-277.40478515625
-260.92529296875
-239.8681640625
-207.82470703125
-175.78125
-146.484375
-126.3427734375
-108.94775390625
-98.876953125
-107.11669921875
-110.77880859375
-130.0048828125
-123.59619140625
-101.62353515625
-93.3837890625
-97.96142578125
-105.28564453125
-93.3837890625
-98.876953125
-91.552734375
-89.7216796875
-99.79248046875
-96.13037109375
-90.63720703125
-93.3837890625
-83.31298828125
-83.31298828125
-76.904296875
-73.2421875
-83.31298828125
-78.7353515625
-69.580078125
-55.84716796875
-49.4384765625
-51.26953125
-64.0869140625
-75.0732421875
-75.0732421875
-72.32666015625
-59.50927734375
-63.17138671875
-71.4111328125
-55.84716796875
-40.283203125
-42.1142578125
-40.283203125
-33.87451171875
-32.04345703125
-25.634765625
-21.97265625
-21.97265625
-16.4794921875
-18.310546875
-32.04345703125
-36.62109375
-25.634765625
-14.6484375
-2.74658203125
-6.40869140625
-3.662109375
0.91552734375
-5.4931640625
8.23974609375
10.986328125
9.1552734375
18.310546875
18.310546875
8.23974609375
6.40869140625
8.23974609375
18.310546875
34.7900390625
42.1142578125
54.01611328125
63.17138671875
65.91796875
73.2421875
60.4248046875
37.53662109375
41.19873046875
50.35400390625
63.17138671875
65.00244140625
96.13037109375
97.96142578125
101.62353515625
98.876953125
108.94775390625
117.1875
125.42724609375
122.6806640625
130.0048828125
148.3154296875
154.72412109375
149.23095703125
156.55517578125
166.6259765625
164.794921875
171.20361328125
180.35888671875
178.52783203125
177.6123046875
194.091796875
207.82470703125
211.48681640625
212.40234375
207.82470703125
212.40234375
220.64208984375
226.13525390625
240.78369140625
248.10791015625
246.27685546875
235.29052734375
220.64208984375
208.740234375
230.712890625
240.78369140625
241.69921875
245.361328125
238.037109375
237.12158203125
229.79736328125
220.64208984375
206.9091796875
192.2607421875
178.52783203125
176.69677734375
161.1328125
151.9775390625
135.498046875
104.3701171875
88.80615234375
101.62353515625
97.96142578125
79.65087890625
49.4384765625
42.1142578125
47.607421875
38.4521484375
20.1416015625
9.1552734375
6.40869140625
8.23974609375
-4.57763671875
-21.97265625
-30.21240234375
-38.4521484375
-43.02978515625
-45.7763671875
-36.62109375
-32.958984375
-36.62109375
-48.52294921875
-55.84716796875
-69.580078125
-92.46826171875
-88.80615234375
-100.7080078125
-95.21484375
-75.98876953125
-67.7490234375
-75.0732421875
-77.81982421875
-82.3974609375
-87.890625
-89.7216796875
-77.81982421875
-76.904296875
-96.13037109375
-120.849609375
-103.45458984375
-86.0595703125
-86.0595703125
-86.0595703125
-87.890625
-91.552734375
-101.62353515625
-108.0322265625
-97.96142578125
-94.29931640625
-100.7080078125
-90.63720703125
-91.552734375
-88.80615234375
-86.97509765625
-95.21484375
-91.552734375
-86.97509765625
-89.7216796875
-85.14404296875
-84.228515625
-85.14404296875
-87.890625
-87.890625
-90.63720703125
-90.63720703125
-91.552734375
-97.96142578125
-107.11669921875
-114.44091796875
-101.62353515625
-89.7216796875
-96.13037109375
-96.13037109375
-93.3837890625
-97.0458984375
-97.0458984375
-92.46826171875
-88.80615234375
-94.29931640625
-103.45458984375
-106.201171875
-96.13037109375
-98.876953125
-109.86328125
-117.1875
-108.94775390625
-103.45458984375
-107.11669921875
-121.76513671875
-113.525390625
-109.86328125
-106.201171875
-114.44091796875
-118.10302734375
-110.77880859375
-107.11669921875
-110.77880859375
-110.77880859375
-101.62353515625
-111.6943359375
-115.3564453125
-117.1875
-125.42724609375
-121.76513671875
-115.3564453125
-116.27197265625
-119.93408203125
-109.86328125
-115.3564453125
-126.3427734375
-119.0185546875
-117.1875
-118.10302734375
-115.3564453125
-119.93408203125
-124.51171875
-133.6669921875
-138.24462890625
-116.27197265625
-111.6943359375
-121.76513671875
-119.93408203125
-130.0048828125
-138.24462890625
-119.93408203125
-130.92041015625
-132.75146484375
-130.0048828125
-131.8359375
-134.58251953125
-129.08935546875
-126.3427734375
-127.25830078125
-126.3427734375
-120.849609375
-125.42724609375
-128.173828125
-125.42724609375
-119.0185546875
-121.76513671875
-126.3427734375
-130.0048828125
-123.59619140625
-118.10302734375
-129.08935546875
-127.25830078125
-118.10302734375
-118.10302734375
-121.76513671875
-135.498046875
-132.75146484375
-115.3564453125
-108.94775390625
-122.6806640625
-132.75146484375
-150.146484375
-149.23095703125
-136.41357421875
-128.173828125
-120.849609375
-119.0185546875
-117.1875
-133.6669921875
-140.07568359375
-147.39990234375
-144.6533203125
-133.6669921875
-126.3427734375
-117.1875
-113.525390625
-103.45458984375
-90.63720703125
-84.228515625
-83.31298828125
-95.21484375
-93.3837890625
-86.97509765625
-97.96142578125
-90.63720703125
-87.890625
-82.3974609375
-78.7353515625
-66.83349609375
-75.0732421875
-92.46826171875
-89.7216796875
-90.63720703125
-78.7353515625
-72.32666015625
-84.228515625
-79.65087890625
-75.0732421875
-62.255859375
-56.7626953125
-51.26953125
-47.607421875
-55.84716796875
-60.4248046875
-53.1005859375
-41.19873046875
-41.19873046875
-41.19873046875
-53.1005859375
-59.50927734375
-71.4111328125
-72.32666015625
-79.65087890625
-96.13037109375
-112.60986328125
-127.25830078125
-138.24462890625
-145.56884765625
-135.498046875
-131.8359375
-123.59619140625
-126.3427734375
-132.75146484375
-137.3291015625
-134.58251953125
-127.25830078125
-130.92041015625
-135.498046875
-129.08935546875
-123.59619140625
-130.92041015625
-129.08935546875
-124.51171875
-123.59619140625
-128.173828125
-131.8359375
-145.56884765625
-139.16015625
-133.6669921875
-125.42724609375
-141.90673828125
-151.06201171875
-160.21728515625
-168.45703125
-166.6259765625
-160.21728515625
-155.6396484375
-143.73779296875
-144.6533203125
-134.58251953125
-108.0322265625
-56.7626953125
41.19873046875
183.10546875
358.88671875
520.93505859375
675.6591796875
848.69384765625
1018.06640625
1068.42041015625
1026.30615234375
915.52734375
749.81689453125
539.24560546875
252.685546875
-18.310546875
-245.361328125
-404.6630859375
-493.46923828125
-488.8916015625
-443.115234375
-390.93017578125
-347.900390625
-326.84326171875
-330.50537109375
-303.955078125
-271.91162109375
-249.93896484375
-233.45947265625
-205.078125
-157.470703125
-134.58251953125
-123.59619140625
-115.3564453125
-108.0322265625
-107.11669921875
-114.44091796875
-115.3564453125
-113.525390625
-101.62353515625
-84.228515625
-83.31298828125
-102.5390625
-100.7080078125
-91.552734375
-81.48193359375
-86.0595703125
-88.80615234375
-81.48193359375
-82.3974609375
-90.63720703125
-89.7216796875
-75.0732421875
-65.91796875
-67.7490234375
-82.3974609375
-96.13037109375
-79.65087890625
-64.0869140625
-66.83349609375
-83.31298828125
-99.79248046875
-90.63720703125
-85.14404296875
-64.0869140625
-36.62109375
-28.38134765625
-42.1142578125
-52.18505859375
-54.01611328125
-44.86083984375
-34.7900390625
-42.1142578125
-40.283203125
-41.19873046875
-42.1142578125
-32.958984375
-32.04345703125
-32.04345703125
-35.70556640625
-31.1279296875
-33.87451171875
-37.53662109375
-23.8037109375
-10.986328125
0
0
0.91552734375
0
-0.91552734375
-9.1552734375
-17.39501953125
-0.91552734375
20.1416015625
16.4794921875
12.8173828125
21.97265625
38.4521484375
44.86083984375
22.88818359375
5.4931640625
21.97265625
30.21240234375
41.19873046875
54.931640625
65.00244140625
69.580078125
62.255859375
65.91796875
75.0732421875
78.7353515625
84.228515625
92.46826171875
83.31298828125
84.228515625
97.96142578125
106.201171875
109.86328125
115.3564453125
130.92041015625
144.6533203125
144.6533203125
149.23095703125
151.9775390625
156.55517578125
159.3017578125
160.21728515625
170.2880859375
188.5986328125
197.75390625
196.83837890625
199.5849609375
200.50048828125
202.33154296875
204.16259765625
195.9228515625
219.7265625
231.62841796875
230.712890625
235.29052734375
242.61474609375
221.5576171875
200.50048828125
203.2470703125
217.8955078125
237.12158203125
238.037109375
234.375
210.5712890625
