ECG
-125.42724609375
-135.498046875
-152.89306640625
-151.9775390625
-140.07568359375
-124.51171875
-114.44091796875
-130.92041015625
-143.73779296875
-144.6533203125
-147.39990234375
-139.16015625
-139.16015625
-137.3291015625
-148.3154296875
-143.73779296875
-133.6669921875
-128.173828125
-125.42724609375
-125.42724609375
-129.08935546875
-141.90673828125
-151.06201171875
-151.9775390625
-142.822265625
-139.16015625
-138.24462890625
-132.75146484375
-129.08935546875
-134.58251953125
-135.498046875
-140.07568359375
-138.24462890625
-134.58251953125
-132.75146484375
-136.41357421875
-137.3291015625
-148.3154296875
-141.90673828125
-134.58251953125
-129.08935546875
-130.92041015625
-134.58251953125
-139.16015625
-138.24462890625
-137.3291015625
-132.75146484375
-124.51171875
-125.42724609375
-133.6669921875
-155.6396484375
-152.89306640625
-139.16015625
-126.3427734375
-120.849609375
-130.92041015625
-153.80859375
-150.146484375
-142.822265625
-129.08935546875
-122.6806640625
-132.75146484375
-135.498046875
-133.6669921875
-138.24462890625
-138.24462890625
-149.23095703125
-140.9912109375
-129.08935546875
-129.08935546875
-135.498046875
-136.41357421875
-131.8359375
-130.92041015625
-122.6806640625
-138.24462890625
-135.498046875
-151.9775390625
-160.21728515625
-152.89306640625
-140.9912109375
-145.56884765625
-133.6669921875
-126.3427734375
-133.6669921875
-130.0048828125
-122.6806640625
-116.27197265625
-118.10302734375
-137.3291015625
-149.23095703125
-145.56884765625
-136.41357421875
-115.3564453125
-97.96142578125
-79.65087890625
-75.0732421875
-77.81982421875
-91.552734375
-97.96142578125
-97.96142578125
-94.29931640625
-102.5390625
-97.96142578125
-90.63720703125
-97.0458984375
-90.63720703125
-93.3837890625
-97.0458984375
-90.63720703125
-85.14404296875
-85.14404296875
-84.228515625
-82.3974609375
-72.32666015625
-62.255859375
-71.4111328125
-75.98876953125
-79.65087890625
-67.7490234375
-58.59375
-66.83349609375
-62.255859375
-63.17138671875
-66.83349609375
-75.0732421875
-78.7353515625
-82.3974609375
-99.79248046875
-116.27197265625
-127.25830078125
-129.08935546875
-131.8359375
-133.6669921875
-140.07568359375
-144.6533203125
-140.07568359375
-150.146484375
-157.470703125
-155.6396484375
-151.06201171875
-130.92041015625
-120.849609375
-129.08935546875
-129.08935546875
-131.8359375
-137.3291015625
-152.89306640625
-148.3154296875
-140.07568359375
-130.0048828125
-131.8359375
-144.6533203125
-150.146484375
-146.484375
-142.822265625
-140.9912109375
-139.16015625
-148.3154296875
-159.3017578125
-168.45703125
-177.6123046875
-186.767578125
-173.9501953125
-157.470703125
-148.3154296875
-116.27197265625
-43.9453125
67.7490234375
224.30419921875
399.169921875
564.88037109375
722.35107421875
893.5546875
1020.81298828125
1055.60302734375
996.09375
857.84912109375
657.3486328125
401.0009765625
130.0048828125
-94.29931640625
-286.56005859375
-403.74755859375
-453.18603515625
-427.55126953125
-372.61962890625
-315.85693359375
-290.22216796875
-281.06689453125
-270.08056640625
-261.8408203125
-251.77001953125
-235.29052734375
-210.5712890625
-185.85205078125
-170.2880859375
-148.3154296875
-124.51171875
-115.3564453125
-111.6943359375
-105.28564453125
-107.11669921875
-108.0322265625
-111.6943359375
-111.6943359375
-111.6943359375
-100.7080078125
-102.5390625
-102.5390625
-105.28564453125
-102.5390625
-95.21484375
-97.0458984375
-102.5390625
-96.13037109375
-95.21484375
-88.80615234375
-75.98876953125
-57.67822265625
-66.83349609375
-85.14404296875
-95.21484375
-101.62353515625
-95.21484375
-99.79248046875
-104.3701171875
-88.80615234375
-67.7490234375
-55.84716796875
-60.4248046875
-60.4248046875
-56.7626953125
-47.607421875
-52.18505859375
-56.7626953125
-60.4248046875
-70.49560546875
-61.34033203125
-51.26953125
-45.7763671875
-50.35400390625
-45.7763671875
-43.02978515625
-40.283203125
-41.19873046875
-42.1142578125
-37.53662109375
-37.53662109375
-31.1279296875
-27.4658203125
-25.634765625
-32.958984375
-20.1416015625
-11.90185546875
-17.39501953125
-26.55029296875
-22.88818359375
-17.39501953125
-5.4931640625
0.91552734375
-1.8310546875
8.23974609375
10.986328125
12.8173828125
21.97265625
22.88818359375
21.05712890625
21.97265625
20.1416015625
21.05712890625
43.02978515625
59.50927734375
46.69189453125
36.62109375
32.958984375
34.7900390625
47.607421875
66.83349609375
81.48193359375
86.0595703125
90.63720703125
95.21484375
93.3837890625
104.3701171875
107.11669921875
109.86328125
116.27197265625
124.51171875
130.0048828125
140.07568359375
142.822265625
148.3154296875
146.484375
151.9775390625
169.37255859375
182.18994140625
186.767578125
186.767578125
189.51416015625
192.2607421875
195.00732421875
205.99365234375
216.064453125
216.97998046875
217.8955078125
223.388671875
231.62841796875
236.2060546875
232.5439453125
235.29052734375
231.62841796875
232.5439453125
217.8955078125
224.30419921875
236.2060546875
231.62841796875
224.30419921875
213.31787109375
202.33154296875
197.75390625
200.50048828125
194.091796875
181.2744140625
168.45703125
160.21728515625
149.23095703125
140.9912109375
126.3427734375
115.3564453125
101.62353515625
71.4111328125
55.84716796875
57.67822265625
49.4384765625
35.70556640625
31.1279296875
15.56396484375
8.23974609375
-0.91552734375
-5.4931640625
-5.4931640625
-20.1416015625
-29.296875
-40.283203125
-42.1142578125
-52.18505859375
-54.931640625
-65.00244140625
-65.00244140625
-62.255859375
-59.50927734375
-58.59375
-61.34033203125
-58.59375
-62.255859375
-68.66455078125
-80.56640625
-97.96142578125
-108.94775390625
-101.62353515625
-92.46826171875
-86.0595703125
-77.81982421875
-69.580078125
-73.2421875
-90.63720703125
-93.3837890625
-83.31298828125
-80.56640625
-89.7216796875
-97.0458984375
-87.890625
-84.228515625
-93.3837890625
-97.96142578125
-104.3701171875
-108.0322265625
-98.876953125
-94.29931640625
-94.29931640625
-86.0595703125
-89.7216796875
-85.14404296875
-85.14404296875
-89.7216796875
-92.46826171875
-93.3837890625
-96.13037109375
-96.13037109375
-101.62353515625
-100.7080078125
-88.80615234375
-86.97509765625
-87.890625
-92.46826171875
-89.7216796875
-88.80615234375
-86.0595703125
-93.3837890625
-93.3837890625
-95.21484375
-96.13037109375
-96.13037109375
-90.63720703125
-91.552734375
-98.876953125
-101.62353515625
-101.62353515625
-105.28564453125
-97.96142578125
-91.552734375
-90.63720703125
-112.60986328125
-108.94775390625
-101.62353515625
-108.94775390625
-125.42724609375
-128.173828125
-119.93408203125
-105.28564453125
-100.7080078125
-98.876953125
-98.876953125
-102.5390625
-102.5390625
-108.94775390625
-127.25830078125
-124.51171875
-119.0185546875
-115.3564453125
-111.6943359375
-107.11669921875
-108.94775390625
-112.60986328125
-112.60986328125
-119.0185546875
-116.27197265625
-116.27197265625
-111.6943359375
-123.59619140625
-118.10302734375
-116.27197265625
-119.0185546875
-120.849609375
-119.0185546875
-119.0185546875
-123.59619140625
-124.51171875
-130.0048828125
-128.173828125
-130.0048828125
-126.3427734375
-118.10302734375
-116.27197265625
-114.44091796875
-107.11669921875
-108.94775390625
-119.0185546875
-125.42724609375
-125.42724609375
-142.822265625
-154.72412109375
-140.07568359375
-123.59619140625
-112.60986328125
-118.10302734375
-115.3564453125
-114.44091796875
-125.42724609375
-140.07568359375
-139.16015625
-126.3427734375
-120.849609375
-128.173828125
-130.0048828125
-131.8359375
-130.0048828125
-119.93408203125
-114.44091796875
-119.93408203125
-125.42724609375
-126.3427734375
-131.8359375
-133.6669921875
-131.8359375
-134.58251953125
-124.51171875
-124.51171875
-128.173828125
-123.59619140625
-120.849609375
-121.76513671875
-121.76513671875
-119.0185546875
-122.6806640625
-131.8359375
-131.8359375
-140.07568359375
-131.8359375
-136.41357421875
-138.24462890625
-135.498046875
-130.0048828125
-115.3564453125
-120.849609375
-120.849609375
-120.849609375
-112.60986328125
-115.3564453125
-119.93408203125
-122.6806640625
-127.25830078125
-133.6669921875
-140.07568359375
-133.6669921875
-117.1875
-124.51171875
-140.9912109375
-134.58251953125
-126.3427734375
-126.3427734375
-127.25830078125
-130.0048828125
-137.3291015625
-138.24462890625
-127.25830078125
-122.6806640625
-116.27197265625
-119.93408203125
-129.08935546875
-135.498046875
-134.58251953125
-135.498046875
-131.8359375
-121.76513671875
-114.44091796875
-106.201171875
-118.10302734375
-133.6669921875
-141.90673828125
-137.3291015625
-128.173828125
-132.75146484375
-122.6806640625
-116.27197265625
-116.27197265625
-119.0185546875
-120.849609375
-117.1875
-114.44091796875
-122.6806640625
-130.0048828125
-114.44091796875
-85.14404296875
-76.904296875
-76.904296875
-71.4111328125
-68.66455078125
-72.32666015625
-86.97509765625
-95.21484375
-87.890625
-82.3974609375
-79.65087890625
-79.65087890625
-75.0732421875
-83.31298828125
-87.890625
-87.890625
-78.7353515625
-74.15771484375
-76.904296875
-75.0732421875
-81.48193359375
-78.7353515625
-61.34033203125
-54.01611328125
-54.01611328125
-61.34033203125
-62.255859375
-58.59375
-58.59375
-48.52294921875
-38.4521484375
-48.52294921875
-51.26953125
-60.4248046875
-67.7490234375
-83.31298828125
-95.21484375
-110.77880859375
-129.08935546875
-132.75146484375
-124.51171875
-119.0185546875
-117.1875
-119.0185546875
-129.08935546875
-132.75146484375
-126.3427734375
-117.1875
-112.60986328125
-117.1875
-130.92041015625
-130.92041015625
-125.42724609375
-122.6806640625
-116.27197265625
-124.51171875
-122.6806640625
-119.93408203125
-119.93408203125
-127.25830078125
-127.25830078125
-135.498046875
-135.498046875
-119.93408203125
-125.42724609375
-125.42724609375
-131.8359375
-143.73779296875
-166.6259765625
-181.2744140625
-184.02099609375
-159.3017578125
-140.07568359375
-109.86328125
-62.255859375
21.97265625
144.6533203125
308.53271484375
466.9189453125
628.0517578125
791.93115234375
953.9794921875
1046.44775390625
1058.349609375
989.68505859375
836.7919921875
646.3623046875
390.93017578125
128.173828125
-101.62353515625
-274.658203125
-388.18359375
-425.72021484375
-411.9873046875
-392.76123046875
-340.576171875
-298.4619140625
-275.57373046875
-266.41845703125
-241.69921875
-211.48681640625
-186.767578125
-169.37255859375
-144.6533203125
-126.3427734375
-107.11669921875
-95.21484375
-90.63720703125
-91.552734375
-100.7080078125
-104.3701171875
-102.5390625
-104.3701171875
-105.28564453125
-97.96142578125
-89.7216796875
-90.63720703125
-97.0458984375
-110.77880859375
-108.0322265625
-97.0458984375
-89.7216796875
-87.890625
-86.0595703125
-86.0595703125
-84.228515625
-86.0595703125
-86.0595703125
-75.0732421875
-67.7490234375
-56.7626953125
-62.255859375
-71.4111328125
-78.7353515625
-71.4111328125
-65.91796875
-67.7490234375
-60.4248046875
-67.7490234375
-78.7353515625
-85.14404296875
-78.7353515625
-65.91796875
-54.931640625
-42.1142578125
-41.19873046875
-43.9453125
-39.36767578125
-34.7900390625
-40.283203125
-40.283203125
-44.86083984375
-40.283203125
-32.958984375
-32.958984375
-27.4658203125
-27.4658203125
-24.71923828125
-25.634765625
-28.38134765625
-21.05712890625
-11.90185546875
-7.32421875
-0.91552734375
3.662109375
-4.57763671875
-14.6484375
-17.39501953125
-10.986328125
-5.4931640625
10.986328125
19.22607421875
22.88818359375
19.22607421875
16.4794921875
27.4658203125
34.7900390625
32.04345703125
36.62109375
42.1142578125
47.607421875
50.35400390625
41.19873046875
18.310546875
32.04345703125
43.02978515625
48.52294921875
57.67822265625
75.0732421875
83.31298828125
87.890625
95.21484375
97.0458984375
96.13037109375
102.5390625
112.60986328125
115.3564453125
123.59619140625
129.08935546875
130.0048828125
137.3291015625
143.73779296875
140.07568359375
144.6533203125
159.3017578125
171.20361328125
184.9365234375
188.5986328125
192.2607421875
195.00732421875
203.2470703125
205.99365234375
207.82470703125
214.2333984375
222.47314453125
224.30419921875
226.13525390625
230.712890625
235.29052734375
239.8681640625
240.78369140625
230.712890625
235.29052734375
237.12158203125
204.16259765625
205.078125
209.65576171875
216.064453125
213.31787109375
201.416015625
178.52783203125
156.55517578125
157.470703125
149.23095703125
130.0048828125
117.1875
106.201171875
98.876953125
86.97509765625
82.3974609375
76.904296875
62.255859375
52.18505859375
37.53662109375
27.4658203125
14.6484375
-6.40869140625
-19.22607421875
-14.6484375
-16.4794921875
-31.1279296875
-32.04345703125
-34.7900390625
-44.86083984375
-40.283203125
-47.607421875
-57.67822265625
-55.84716796875
-60.4248046875
-63.17138671875
-62.255859375
-58.59375
-63.17138671875
-66.83349609375
-75.98876953125
-81.48193359375
-77.81982421875
-86.0595703125
-91.552734375
-85.14404296875
-82.3974609375
-83.31298828125
-88.80615234375
-84.228515625
-94.29931640625
-90.63720703125
-86.97509765625
-92.46826171875
-97.0458984375
-95.21484375
-95.21484375
-81.48193359375
-77.81982421875
-87.890625
-97.96142578125
-97.0458984375
-101.62353515625
-107.11669921875
-106.201171875
-97.0458984375
-93.3837890625
-97.0458984375
-93.3837890625
-86.97509765625
-86.97509765625
-94.29931640625
-97.96142578125
-101.62353515625
-94.29931640625
-88.80615234375
-99.79248046875
-100.7080078125
-94.29931640625
-92.46826171875
-92.46826171875
-86.97509765625
-93.3837890625
-95.21484375
-101.62353515625
-112.60986328125
-115.3564453125
-101.62353515625
-94.29931640625
-87.890625
-94.29931640625
-95.21484375
-104.3701171875
-100.7080078125
-96.13037109375
-97.0458984375
-101.62353515625
-105.28564453125
-108.0322265625
-107.11669921875
-110.77880859375
-106.201171875
-98.876953125
-99.79248046875
-104.3701171875
-114.44091796875
-125.42724609375
-131.8359375
-126.3427734375
-117.1875
-115.3564453125
-106.201171875
-109.86328125
-109.86328125
-114.44091796875
-119.0185546875
-120.849609375
-123.59619140625
-124.51171875
-130.0048828125
-121.76513671875
-113.525390625
-112.60986328125
-122.6806640625
-138.24462890625
-137.3291015625
-130.0048828125
-116.27197265625
-116.27197265625
-115.3564453125
-130.0048828125
-135.498046875
-122.6806640625
-118.10302734375
-120.849609375
-129.08935546875
-128.173828125
-130.92041015625
-133.6669921875
-123.59619140625
-129.08935546875
-121.76513671875
-118.10302734375
-122.6806640625
-130.0048828125
-130.92041015625
-126.3427734375
-131.8359375
-130.0048828125
-133.6669921875
-129.08935546875
-120.849609375
-119.93408203125
-129.08935546875
-142.822265625
-144.6533203125
-136.41357421875
-126.3427734375
-126.3427734375
-121.76513671875
-119.93408203125
-128.173828125
-133.6669921875
-134.58251953125
-134.58251953125
-130.0048828125
-123.59619140625
-123.59619140625
-129.08935546875
-140.9912109375
-138.24462890625
-132.75146484375
-123.59619140625
-123.59619140625
-124.51171875
-123.59619140625
-137.3291015625
-141.90673828125
-137.3291015625
-129.08935546875
-125.42724609375
-126.3427734375
-125.42724609375
-128.173828125
-131.8359375
-126.3427734375
-129.08935546875
-122.6806640625
-122.6806640625
-119.93408203125
-120.849609375
-120.849609375
-131.8359375
-132.75146484375
-130.92041015625
-127.25830078125
-127.25830078125
-136.41357421875
-142.822265625
-137.3291015625
-130.92041015625
-127.25830078125
-119.93408203125
-120.849609375
-129.08935546875
-140.07568359375
-137.3291015625
-134.58251953125
-135.498046875
-133.6669921875
-128.173828125
-119.0185546875
-124.51171875
-128.173828125
-129.08935546875
-127.25830078125
-124.51171875
-121.76513671875
-121.76513671875
-122.6806640625
-129.08935546875
-144.6533203125
-145.56884765625
-140.07568359375
-131.8359375
-130.0048828125
-121.76513671875
-118.10302734375
-130.0048828125
-128.173828125
-125.42724609375
-125.42724609375
-127.25830078125
-130.92041015625
-119.93408203125
-112.60986328125
-117.1875
-114.44091796875
-122.6806640625
-130.0048828125
-143.73779296875
-132.75146484375
-129.08935546875
-122.6806640625
-117.1875
-98.876953125
-94.29931640625
-87.890625
-82.3974609375
-88.80615234375
-91.552734375
-93.3837890625
-89.7216796875
-85.14404296875
-91.552734375
-92.46826171875
-93.3837890625
-90.63720703125
-80.56640625
-80.56640625
-81.48193359375
-88.80615234375
-91.552734375
-87.890625
-89.7216796875
-85.14404296875
-82.3974609375
-91.552734375
-97.96142578125
-75.0732421875
-55.84716796875
-65.00244140625
-69.580078125
-65.00244140625
-62.255859375
-48.52294921875
-33.87451171875
-36.62109375
-50.35400390625
-65.00244140625
-63.17138671875
-65.00244140625
-65.91796875
-79.65087890625
-96.13037109375
-108.94775390625
-118.10302734375
-140.9912109375
-148.3154296875
-148.3154296875
-140.9912109375
-127.25830078125
-115.3564453125
-114.44091796875
-115.3564453125
-121.76513671875
-120.849609375
-119.0185546875
-128.173828125
-123.59619140625
-116.27197265625
-113.525390625
-124.51171875
-131.8359375
-139.16015625
-146.484375
-145.56884765625
-138.24462890625
-129.08935546875
-123.59619140625
-125.42724609375
-127.25830078125
-127.25830078125
-146.484375
-161.1328125
-162.04833984375
-155.6396484375
-160.21728515625
-157.470703125
-162.9638671875
-151.06201171875
-109.86328125
-40.283203125
67.7490234375
218.81103515625
389.09912109375
556.640625
722.35107421875
889.892578125
1017.15087890625
1062.92724609375
1035.46142578125
906.3720703125
719.6044921875
479.736328125
202.33154296875
-38.4521484375
-227.05078125
-366.2109375
-427.55126953125
-405.57861328125
-358.88671875
-324.0966796875
-293.88427734375
-272.8271484375
-264.58740234375
-261.8408203125
-245.361328125
-219.7265625
-187.68310546875
-154.72412109375
-137.3291015625
-123.59619140625
-106.201171875
-95.21484375
-92.46826171875
-96.13037109375
-101.62353515625
-112.60986328125
-121.76513671875
-113.525390625
-104.3701171875
-102.5390625
-96.13037109375
-97.0458984375
-91.552734375
-85.14404296875
-86.0595703125
-99.79248046875
-101.62353515625
-94.29931640625
-102.5390625
-104.3701171875
-97.96142578125
-81.48193359375
-76.904296875
-79.65087890625
-75.0732421875
-71.4111328125
-71.4111328125
-71.4111328125
-69.580078125
-77.81982421875
-75.0732421875
-74.15771484375
-75.0732421875
-77.81982421875
-66.83349609375
-58.59375
-54.931640625
-58.59375
-57.67822265625
-54.01611328125
-55.84716796875
-52.18505859375
-54.01611328125
-54.01611328125
-54.931640625
-52.18505859375
-43.02978515625
-35.70556640625
-36.62109375
-47.607421875
-52.18505859375
-42.1142578125
-37.53662109375
-28.38134765625
-24.71923828125
-19.22607421875
-20.1416015625
-24.71923828125
-25.634765625
-16.4794921875
-8.23974609375
-2.74658203125
-5.4931640625
-5.4931640625
-13.73291015625
-32.04345703125
-21.97265625
3.662109375
18.310546875
22.88818359375
31.1279296875
23.8037109375
21.05712890625
19.22607421875
20.1416015625
34.7900390625
50.35400390625
52.18505859375
50.35400390625
47.607421875
55.84716796875
70.49560546875
73.2421875
65.00244140625
67.7490234375
73.2421875
85.14404296875
101.62353515625
108.0322265625
113.525390625
108.94775390625
97.96142578125
102.5390625
128.173828125
133.6669921875
132.75146484375
142.822265625
152.89306640625
163.87939453125
168.45703125
176.69677734375
183.10546875
177.6123046875
176.69677734375
179.443359375
183.10546875
196.83837890625
209.65576171875
211.48681640625
195.9228515625
204.16259765625
214.2333984375
215.14892578125
204.16259765625
199.5849609375
209.65576171875
215.14892578125
222.47314453125
226.13525390625
219.7265625
213.31787109375
204.16259765625
191.34521484375
184.9365234375
159.3017578125
147.39990234375
158.38623046875
150.146484375
138.24462890625
124.51171875
116.27197265625
114.44091796875
102.5390625
89.7216796875
71.4111328125
50.35400390625
38.4521484375
32.04345703125
16.4794921875
4.57763671875
10.07080078125
9.1552734375
7.32421875
-0.91552734375
-17.39501953125
-29.296875
-45.7763671875
-54.01611328125
-49.4384765625
-49.4384765625
-52.18505859375
-54.931640625
-63.17138671875
-58.59375
-54.01611328125
-65.00244140625
-75.0732421875
-85.14404296875
-104.3701171875
-108.94775390625
-90.63720703125
-79.65087890625
-78.7353515625
-74.15771484375
-81.48193359375
-87.890625
-88.80615234375
-87.890625
-92.46826171875
-95.21484375
-97.0458984375
-99.79248046875
-95.21484375
-90.63720703125
-86.97509765625
-95.21484375
-92.46826171875
-92.46826171875
-99.79248046875
-117.1875
-103.45458984375
-94.29931640625
-83.31298828125
-88.80615234375
-97.0458984375
-91.552734375
-98.876953125
-105.28564453125
-110.77880859375
-99.79248046875
-99.79248046875
-101.62353515625
-101.62353515625
-106.201171875
-98.876953125
-100.7080078125
-100.7080078125
-101.62353515625
-102.5390625
-104.3701171875
-113.525390625
-115.3564453125
-107.11669921875
-109.86328125
-115.3564453125
-109.86328125
-110.77880859375
-109.86328125
-117.1875
-112.60986328125
-105.28564453125
-104.3701171875
-105.28564453125
-124.51171875
-137.3291015625
-132.75146484375
-128.173828125
-120.849609375
-119.93408203125
-115.3564453125
-112.60986328125
-121.76513671875
-119.0185546875
-117.1875
-109.86328125
-118.10302734375
-117.1875
-117.1875
-124.51171875
-123.59619140625
-118.10302734375
-123.59619140625
-130.0048828125
-147.39990234375
-135.498046875
-122.6806640625
-117.1875
-126.3427734375
-128.173828125
-133.6669921875
-136.41357421875
-124.51171875
-120.849609375
-123.59619140625
-126.3427734375
-130.92041015625
-132.75146484375
-139.16015625
-145.56884765625
-137.3291015625
-124.51171875
-124.51171875
-125.42724609375
-127.25830078125
-126.3427734375
-131.8359375
-140.9912109375
-142.822265625
-146.484375
-151.06201171875
-138.24462890625
-123.59619140625
-129.08935546875
-130.0048828125
-139.16015625
-143.73779296875
-145.56884765625
-144.6533203125
-136.41357421875
-135.498046875
-126.3427734375
-126.3427734375
-139.16015625
-142.822265625
-144.6533203125
-141.90673828125
-139.16015625
-138.24462890625
-135.498046875
-135.498046875
-141.90673828125
-151.06201171875
-147.39990234375
-132.75146484375
-123.59619140625
-120.849609375
-127.25830078125
-134.58251953125
-135.498046875
-141.90673828125
-143.73779296875
-146.484375
-127.25830078125
-124.51171875
-136.41357421875
-137.3291015625
-144.6533203125
-157.470703125
-151.06201171875
-135.498046875
-139.16015625
-134.58251953125
-137.3291015625
-141.90673828125
-150.146484375
-143.73779296875
-135.498046875
-133.6669921875
-154.72412109375
-140.9912109375
-138.24462890625
-140.07568359375
-138.24462890625
-138.24462890625
-151.9775390625
-153.80859375
-146.484375
-137.3291015625
-140.07568359375
-138.24462890625
-126.3427734375
-134.58251953125
-134.58251953125
-133.6669921875
-145.56884765625
-143.73779296875
-146.484375
-147.39990234375
-144.6533203125
-140.9912109375
-142.822265625
-145.56884765625
-151.06201171875
-145.56884765625
-141.90673828125
-134.58251953125
-137.3291015625
-136.41357421875
-151.9775390625
-166.6259765625
-150.146484375
-140.07568359375
-144.6533203125
-137.3291015625
-133.6669921875
-130.92041015625
-131.8359375
-138.24462890625
-144.6533203125
-142.822265625
-142.822265625
-146.484375
-138.24462890625
-145.56884765625
-151.06201171875
-159.3017578125
-152.89306640625
-151.9775390625
-148.3154296875
-143.73779296875
-143.73779296875
-136.41357421875
-135.498046875
-140.07568359375
-134.58251953125
-135.498046875
-140.9912109375
-146.484375
-160.21728515625
-159.3017578125
-148.3154296875
-142.822265625
-143.73779296875
-140.07568359375
-128.173828125
-124.51171875
-121.76513671875
-115.3564453125
-110.77880859375
-107.11669921875
-108.94775390625
-99.79248046875
-97.0458984375
-92.46826171875
-97.0458984375
-94.29931640625
-101.62353515625
-110.77880859375
-117.1875
-113.525390625
-115.3564453125
-110.77880859375
-97.96142578125
-82.3974609375
-87.890625
-97.96142578125
-86.0595703125
-77.81982421875
-81.48193359375
-68.66455078125
-61.34033203125
-70.49560546875
-88.80615234375
-87.890625
-85.14404296875
-75.98876953125
-58.59375
-60.4248046875
-68.66455078125
-77.81982421875
-75.98876953125
-89.7216796875
-104.3701171875
-110.77880859375
-130.92041015625
-150.146484375
-158.38623046875
-150.146484375
-147.39990234375
-144.6533203125
-145.56884765625
-143.73779296875
-149.23095703125
-151.06201171875
-145.56884765625
-140.07568359375
-137.3291015625
-140.9912109375
-144.6533203125
-140.07568359375
-148.3154296875
-154.72412109375
-151.9775390625
-145.56884765625
-138.24462890625
-144.6533203125
-147.39990234375
-152.89306640625
-157.470703125
-152.89306640625
-140.9912109375
-142.822265625
-157.470703125
-170.2880859375
-185.85205078125
-189.51416015625
-180.35888671875
-178.52783203125
-165.71044921875
-159.3017578125
-135.498046875
-91.552734375
0
133.6669921875
306.70166015625
488.8916015625
650.93994140625
808.41064453125
948.486328125
990.6005859375
942.07763671875
834.9609375
665.58837890625
450.439453125
191.34521484375
-53.1005859375
-252.685546875
-393.6767578125
-445.86181640625
-442.19970703125
-417.48046875
-357.0556640625
-306.70166015625
-282.89794921875
-272.8271484375
-282.89794921875
-272.8271484375
-268.24951171875
-253.60107421875
-237.12158203125
-213.31787109375
-177.6123046875
-145.56884765625
-137.3291015625
-130.92041015625
-123.59619140625
-111.6943359375
-112.60986328125
-119.0185546875
-120.849609375
-114.44091796875
-113.525390625
-114.44091796875
-119.0185546875
-110.77880859375
-111.6943359375
-110.77880859375
-109.86328125
-108.94775390625
-109.86328125
-115.3564453125
-108.94775390625
-105.28564453125
-93.3837890625
-93.3837890625
-105.28564453125
-108.0322265625
-103.45458984375
-96.13037109375
-86.97509765625
-83.31298828125
-78.7353515625
-84.228515625
-96.13037109375
-87.890625
-71.4111328125
-78.7353515625
-83.31298828125
-77.81982421875
-73.2421875
-72.32666015625
-77.81982421875
-68.66455078125
-62.255859375
-69.580078125
-67.7490234375
-55.84716796875
-58.59375
-57.67822265625
-48.52294921875
-46.69189453125
-44.86083984375
-39.36767578125
-36.62109375
-32.958984375
-32.958984375
-36.62109375
-35.70556640625
-43.9453125
-52.18505859375
-47.607421875
-33.87451171875
-18.310546875
-8.23974609375
-10.07080078125
-6.40869140625
-3.662109375
2.74658203125
6.40869140625
6.40869140625
-13.73291015625
-4.57763671875
-2.74658203125
6.40869140625
17.39501953125
14.6484375
21.05712890625
30.21240234375
34.7900390625
40.283203125
43.02978515625
39.36767578125
48.52294921875
54.01611328125
57.67822265625
60.4248046875
65.91796875
68.66455078125
74.15771484375
75.0732421875
82.3974609375
96.13037109375
101.62353515625
104.3701171875
113.525390625
115.3564453125
125.42724609375
138.24462890625
140.07568359375
154.72412109375
159.3017578125
159.3017578125
159.3017578125
162.04833984375
164.794921875
173.03466796875
183.10546875
199.5849609375
199.5849609375
194.091796875
198.66943359375
198.66943359375
198.66943359375
206.9091796875
220.64208984375
212.40234375
215.14892578125
232.5439453125
230.712890625
230.712890625
226.13525390625
223.388671875
208.740234375
207.82470703125
205.078125
193.17626953125
184.9365234375
179.443359375
182.18994140625
163.87939453125
145.56884765625
137.3291015625
127.25830078125
116.27197265625
103.45458984375
86.97509765625
67.7490234375
60.4248046875
50.35400390625
39.36767578125
34.7900390625
8.23974609375
5.4931640625
12.8173828125
6.40869140625
-6.40869140625
-30.21240234375
-36.62109375
-37.53662109375
-51.26953125
-68.66455078125
-69.580078125
-68.66455078125
-72.32666015625
-75.0732421875
-75.98876953125
-77.81982421875
-78.7353515625
-78.7353515625
-72.32666015625
-78.7353515625
-93.3837890625
-111.6943359375
-102.5390625
-97.0458984375
-99.79248046875
-104.3701171875
-98.876953125
-102.5390625
-105.28564453125
-111.6943359375
-116.27197265625
-107.11669921875
-99.79248046875
-98.876953125
-102.5390625
-116.27197265625
-113.525390625
-109.86328125
-115.3564453125
-112.60986328125
-108.94775390625
-106.201171875
-108.0322265625
-119.93408203125
-113.525390625
-114.44091796875
-116.27197265625
-119.0185546875
-117.1875
-133.6669921875
-130.0048828125
-107.11669921875
-100.7080078125
-108.0322265625
-110.77880859375
-114.44091796875
-108.0322265625
-104.3701171875
-108.94775390625
-100.7080078125
-102.5390625
-117.1875
-129.08935546875
-139.16015625
-129.08935546875
-116.27197265625
-110.77880859375
-125.42724609375
-133.6669921875
-124.51171875
-119.93408203125
-122.6806640625
-117.1875
-114.44091796875
-120.849609375
-119.0185546875
-124.51171875
-127.25830078125
-125.42724609375
-125.42724609375
-127.25830078125
-128.173828125
-132.75146484375
-140.07568359375
-141.90673828125
-145.56884765625
-142.822265625
-134.58251953125
-125.42724609375
-129.08935546875
-135.498046875
-140.9912109375
-144.6533203125
-151.9775390625
-158.38623046875
-158.38623046875
-153.80859375
-147.39990234375
-139.16015625
-133.6669921875
-138.24462890625
-139.16015625
-147.39990234375
-162.9638671875
-164.794921875
-151.9775390625
-131.8359375
-128.173828125
-136.41357421875
-144.6533203125
-151.06201171875
-148.3154296875
-156.55517578125
-153.80859375
-145.56884765625
-142.822265625
-145.56884765625
-147.39990234375
-158.38623046875
-149.23095703125
-151.06201171875
-149.23095703125
-150.146484375
-148.3154296875
-149.23095703125
-154.72412109375
-155.6396484375
-155.6396484375
-154.72412109375
-151.06201171875
-144.6533203125
-128.173828125
-130.0048828125
-146.484375
-166.6259765625
-180.35888671875
-178.52783203125
-169.37255859375
-154.72412109375
-154.72412109375
-141.90673828125
-136.41357421875
-143.73779296875
-151.06201171875
-143.73779296875
-135.498046875
-140.9912109375
-151.06201171875
-155.6396484375
-158.38623046875
-150.146484375
-140.9912109375
-143.73779296875
-143.73779296875
-150.146484375
-160.21728515625
-169.37255859375
-167.54150390625
-148.3154296875
-142.822265625
-144.6533203125
-146.484375
-142.822265625
-142.822265625
-143.73779296875
-146.484375
-145.56884765625
-150.146484375
-150.146484375
-146.484375
-148.3154296875
-154.72412109375
-149.23095703125
-153.80859375
-151.06201171875
-152.89306640625
-149.23095703125
-140.07568359375
-149.23095703125
-142.822265625
-145.56884765625
-160.21728515625
-154.72412109375
-145.56884765625
-139.16015625
-148.3154296875
-154.72412109375
-149.23095703125
-150.146484375
-150.146484375
-151.06201171875
-152.89306640625
-146.484375
-142.822265625
-141.90673828125
-136.41357421875
-134.58251953125
-131.8359375
-148.3154296875
-152.89306640625
-151.06201171875
-139.16015625
-135.498046875
-127.25830078125
-130.92041015625
-124.51171875
-115.3564453125
-117.1875
-113.525390625
-109.86328125
-113.525390625
-115.3564453125
-114.44091796875
-104.3701171875
-102.5390625
-103.45458984375
-102.5390625
-104.3701171875
-100.7080078125
-99.79248046875
-109.86328125
-93.3837890625
-90.63720703125
-104.3701171875
-92.46826171875
-85.14404296875
-88.80615234375
-89.7216796875
-86.97509765625
-97.96142578125
-89.7216796875
-84.228515625
-79.65087890625
-78.7353515625
-66.83349609375
-60.4248046875
-54.931640625
-65.00244140625
-67.7490234375
-80.56640625
-98.876953125
-116.27197265625
-130.0048828125
-140.9912109375
-138.24462890625
-142.822265625
-157.470703125
-151.06201171875
-141.90673828125
-140.07568359375
-135.498046875
-141.90673828125
-143.73779296875
-142.822265625
-146.484375
-152.89306640625
-144.6533203125
-141.90673828125
-152.89306640625
-150.146484375
-152.89306640625
-148.3154296875
-142.822265625
-140.9912109375
-148.3154296875
-150.146484375
-143.73779296875
-141.90673828125
-140.07568359375
-136.41357421875
-154.72412109375
-158.38623046875
-174.86572265625
-188.5986328125
-192.2607421875
-182.18994140625
-175.78125
-173.03466796875
-161.1328125
-125.42724609375
-50.35400390625
75.0732421875
223.388671875
370.78857421875
542.90771484375
693.9697265625
849.609375
960.38818359375
962.21923828125
902.7099609375
765.380859375
583.19091796875
338.7451171875
79.65087890625
-139.16015625
-328.67431640625
-433.9599609375
-466.00341796875
-438.53759765625
-398.25439453125
-335.99853515625
-296.630859375
-285.64453125
-281.982421875
-281.06689453125
-278.3203125
-267.333984375
-246.27685546875
-218.81103515625
-183.10546875
-162.9638671875
-138.24462890625
-121.76513671875
-113.525390625
-118.10302734375
-132.75146484375
-133.6669921875
-128.173828125
-120.849609375
-112.60986328125
-107.11669921875
-108.94775390625
-111.6943359375
-120.849609375
-118.10302734375
-114.44091796875
-110.77880859375
-101.62353515625
-91.552734375
-84.228515625
-82.3974609375
-96.13037109375
-106.201171875
-116.27197265625
-103.45458984375
-92.46826171875
-86.0595703125
-82.3974609375
-79.65087890625
-82.3974609375
-91.552734375
-91.552734375
-87.890625
-77.81982421875
-75.0732421875
-76.904296875
-73.2421875
-71.4111328125
-75.98876953125
-77.81982421875
-62.255859375
-60.4248046875
-53.1005859375
-52.18505859375
-57.67822265625
-59.50927734375
-62.255859375
-52.18505859375
-46.69189453125
-49.4384765625
-47.607421875
-42.1142578125
-50.35400390625
-43.9453125
-31.1279296875
-23.8037109375
-24.71923828125
-21.05712890625
-24.71923828125
-19.22607421875
-14.6484375
-10.07080078125
-7.32421875
-4.57763671875
-21.97265625
-11.90185546875
0
-7.32421875
-7.32421875
7.32421875
17.39501953125
12.8173828125
13.73291015625
13.73291015625
16.4794921875
22.88818359375
36.62109375
46.69189453125
48.52294921875
48.52294921875
42.1142578125
45.7763671875
60.4248046875
72.32666015625
71.4111328125
75.98876953125
86.0595703125
94.29931640625
105.28564453125
111.6943359375
116.27197265625
119.0185546875
112.60986328125
114.44091796875
131.8359375
139.16015625
142.822265625
153.80859375
162.04833984375
165.71044921875
179.443359375
179.443359375
175.78125
187.68310546875
196.83837890625
201.416015625
199.5849609375
185.85205078125
185.85205078125
194.091796875
217.8955078125
222.47314453125
228.8818359375
237.12158203125
237.12158203125
230.712890625
223.388671875
222.47314453125
218.81103515625
222.47314453125
223.388671875
209.65576171875
202.33154296875
185.85205078125
174.86572265625
169.37255859375
171.20361328125
162.04833984375
140.9912109375
130.92041015625
116.27197265625
100.7080078125
99.79248046875
97.96142578125
81.48193359375
61.34033203125
38.4521484375
15.56396484375
14.6484375
21.05712890625
10.07080078125
3.662109375
-5.4931640625
-17.39501953125
-21.97265625
-27.4658203125
-40.283203125
-46.69189453125
-55.84716796875
-62.255859375
-68.66455078125
-86.0595703125
-103.45458984375
-105.28564453125
-95.21484375
-83.31298828125
-85.14404296875
-95.21484375
-93.3837890625
-96.13037109375
-108.0322265625
-111.6943359375
-106.201171875
-110.77880859375
-102.5390625
-105.28564453125
-104.3701171875
-106.201171875
-108.94775390625
-106.201171875
-105.28564453125
-104.3701171875
-103.45458984375
-95.21484375
-97.96142578125
-119.93408203125
-125.42724609375
-116.27197265625
-115.3564453125
-114.44091796875
-119.0185546875
-125.42724609375
-119.93408203125
-109.86328125
-97.0458984375
-100.7080078125
-120.849609375
-136.41357421875
-130.92041015625
-125.42724609375
-112.60986328125
-103.45458984375
-100.7080078125
-113.525390625
-131.8359375
-130.92041015625
-122.6806640625
-116.27197265625
-115.3564453125
-115.3564453125
-119.93408203125
-129.08935546875
-120.849609375
-113.525390625
-109.86328125
-109.86328125
-98.876953125
-101.62353515625
-108.0322265625
-127.25830078125
-130.92041015625
-142.822265625
-151.9775390625
-142.822265625
-119.0185546875
-130.92041015625
-136.41357421875
-143.73779296875
-145.56884765625
-152.89306640625
-130.92041015625
-125.42724609375
-129.08935546875
-120.849609375
-126.3427734375
-150.146484375
-144.6533203125
-131.8359375
-134.58251953125
-132.75146484375
-140.9912109375
-156.55517578125
-162.04833984375
-152.89306640625
-136.41357421875
-130.0048828125
-131.8359375
-133.6669921875
-136.41357421875
-147.39990234375
-151.06201171875
-149.23095703125
-144.6533203125
-148.3154296875
-156.55517578125
-158.38623046875
-156.55517578125
-149.23095703125
-150.146484375
-149.23095703125
-147.39990234375
-142.822265625
-149.23095703125
-153.80859375
-150.146484375
-154.72412109375
-159.3017578125
-158.38623046875
-158.38623046875
-154.72412109375
-151.06201171875
-141.90673828125
-142.822265625
-145.56884765625
-149.23095703125
-154.72412109375
-166.6259765625
-161.1328125
-158.38623046875
-162.04833984375
-158.38623046875
-150.146484375
-157.470703125
-155.6396484375
-139.16015625
-140.07568359375
-157.470703125
-156.55517578125
-161.1328125
-148.3154296875
-143.73779296875
-146.484375
-144.6533203125
-158.38623046875
-166.6259765625
-168.45703125
-163.87939453125
-153.80859375
-151.9775390625
-140.07568359375
-143.73779296875
-144.6533203125
-148.3154296875
-162.9638671875
-163.87939453125
-163.87939453125
-150.146484375
-142.822265625
-141.90673828125
-138.24462890625
-142.822265625
-150.146484375
-162.04833984375
-179.443359375
-175.78125
-164.794921875
-153.80859375
-146.484375
-144.6533203125
-148.3154296875
-154.72412109375
-160.21728515625
-155.6396484375
-162.04833984375
-157.470703125
-153.80859375
-154.72412109375
-163.87939453125
-162.9638671875
-153.80859375
-146.484375
-146.484375
-148.3154296875
-149.23095703125
-152.89306640625
-150.146484375
-144.6533203125
-147.39990234375
-148.3154296875
-144.6533203125
-160.21728515625
-176.69677734375
-173.03466796875
-161.1328125
-144.6533203125
-150.146484375
-151.06201171875
-163.87939453125
-159.3017578125
-146.484375
-141.90673828125
-144.6533203125
-158.38623046875
-174.86572265625
-168.45703125
-169.37255859375
-162.9638671875
-157.470703125
-157.470703125
-151.9775390625
-145.56884765625
-150.146484375
-151.9775390625
-146.484375
-148.3154296875
-160.21728515625
-156.55517578125
-148.3154296875
-153.80859375
-163.87939453125
-163.87939453125
-142.822265625
-131.8359375
-125.42724609375
-103.45458984375
-101.62353515625
-106.201171875
-99.79248046875
-123.59619140625
-139.16015625
-133.6669921875
-109.86328125
-97.0458984375
-105.28564453125
-104.3701171875
-106.201171875
-111.6943359375
-121.76513671875
-125.42724609375
-109.86328125
-94.29931640625
-97.96142578125
-90.63720703125
-83.31298828125
-100.7080078125
-104.3701171875
-96.13037109375
-93.3837890625
-97.96142578125
-95.21484375
-79.65087890625
-82.3974609375
-78.7353515625
-64.0869140625
-67.7490234375
-79.65087890625
-78.7353515625
-90.63720703125
-108.94775390625
-123.59619140625
-135.498046875
-156.55517578125
-160.21728515625
-156.55517578125
-145.56884765625
-153.80859375
-167.54150390625
-179.443359375
-173.03466796875
-148.3154296875
-137.3291015625
-149.23095703125
-162.9638671875
-172.119140625
-158.38623046875
-151.9775390625
-142.822265625
-144.6533203125
-147.39990234375
-142.822265625
-149.23095703125
-173.03466796875
-174.86572265625
-168.45703125
-155.6396484375
-162.04833984375
-154.72412109375
-144.6533203125
-160.21728515625
-170.2880859375
-182.18994140625
-192.2607421875
-192.2607421875
-185.85205078125
-176.69677734375
-163.87939453125
-148.3154296875
-103.45458984375
-25.634765625
88.80615234375
246.27685546875
411.07177734375
592.34619140625
760.80322265625
920.10498046875
1031.79931640625
1055.60302734375
986.9384765625
835.87646484375
628.0517578125
370.78857421875
109.86328125
-114.44091796875
-298.4619140625
-419.3115234375
-449.52392578125
-417.48046875
-384.521484375
-344.23828125
-314.02587890625
-305.7861328125
-301.20849609375
-277.40478515625
-248.10791015625
-221.5576171875
-196.83837890625
-173.03466796875
-161.1328125
-140.07568359375
-124.51171875
-128.173828125
-134.58251953125
-131.8359375
-117.1875
-110.77880859375
-113.525390625
-114.44091796875
-115.3564453125
-122.6806640625
-125.42724609375
-124.51171875
-116.27197265625
-105.28564453125
-112.60986328125
-125.42724609375
-112.60986328125
-112.60986328125
-112.60986328125
-100.7080078125
-92.46826171875
-88.80615234375
-84.228515625
-80.56640625
-84.228515625
-85.14404296875
-85.14404296875
-87.890625
-86.97509765625
-83.31298828125
-88.80615234375
-88.80615234375
-86.97509765625
-78.7353515625
-80.56640625
-86.0595703125
-88.80615234375
-86.97509765625
-75.0732421875
-66.83349609375
-60.4248046875
-60.4248046875
-54.931640625
-56.7626953125
-66.83349609375
-63.17138671875
-60.4248046875
-61.34033203125
-54.01611328125
-56.7626953125
-41.19873046875
-41.19873046875
-47.607421875
-43.02978515625
-39.36767578125
-31.1279296875
-29.296875
-31.1279296875
-27.4658203125
-21.97265625
-13.73291015625
-18.310546875
-14.6484375
-12.8173828125
-3.662109375
-0.91552734375
-10.986328125
-20.1416015625
-14.6484375
3.662109375
13.73291015625
23.8037109375
18.310546875
22.88818359375
25.634765625
32.958984375
29.296875
32.958984375
32.958984375
39.36767578125
50.35400390625
67.7490234375
64.0869140625
50.35400390625
46.69189453125
57.67822265625
65.91796875
76.904296875
94.29931640625
103.45458984375
103.45458984375
108.0322265625
122.6806640625
118.10302734375
107.11669921875
116.27197265625
134.58251953125
153.80859375
162.9638671875
156.55517578125
156.55517578125
164.794921875
174.86572265625
177.6123046875
178.52783203125
183.10546875
185.85205078125
184.02099609375
179.443359375
181.2744140625
196.83837890625
205.99365234375
205.99365234375
196.83837890625
204.16259765625
218.81103515625
216.064453125
209.65576171875
209.65576171875
210.5712890625
206.9091796875
198.66943359375
186.767578125
179.443359375
170.2880859375
152.89306640625
140.9912109375
139.16015625
137.3291015625
127.25830078125
108.94775390625
86.0595703125
71.4111328125
63.17138671875
52.18505859375
39.36767578125
34.7900390625
31.1279296875
24.71923828125
19.22607421875
6.40869140625
-5.4931640625
-18.310546875
-31.1279296875
-40.283203125
-45.7763671875
-45.7763671875
-46.69189453125
-57.67822265625
-60.4248046875
-65.00244140625
-76.904296875
-82.3974609375
-87.890625
-95.21484375
-102.5390625
-99.79248046875
-89.7216796875
-88.80615234375
-96.13037109375
-94.29931640625
-89.7216796875
-86.0595703125
-86.97509765625
-100.7080078125
-114.44091796875
-111.6943359375
-113.525390625
-105.28564453125
-108.94775390625
-97.0458984375
-91.552734375
-87.890625
-86.0595703125
-90.63720703125
-101.62353515625
-109.86328125
-119.0185546875
-126.3427734375
-119.93408203125
-108.94775390625
-107.11669921875
-106.201171875
-99.79248046875
-92.46826171875
-95.21484375
-110.77880859375
-105.28564453125
-101.62353515625
-101.62353515625
-97.0458984375
-106.201171875
-114.44091796875
-113.525390625
-110.77880859375
-118.10302734375
-115.3564453125
-105.28564453125
-99.79248046875
-108.94775390625
-108.0322265625
-102.5390625
-105.28564453125
-105.28564453125
-107.11669921875
-108.0322265625
-108.94775390625
-115.3564453125
-118.10302734375
-113.525390625
-102.5390625
-118.10302734375
-130.0048828125
-120.849609375
-115.3564453125
-119.0185546875
-125.42724609375
-126.3427734375
-117.1875
-108.94775390625
-105.28564453125
-111.6943359375
-113.525390625
-104.3701171875
-109.86328125
-127.25830078125
-140.07568359375
-139.16015625
-137.3291015625
-128.173828125
-124.51171875
-123.59619140625
-127.25830078125
-122.6806640625
-122.6806640625
-120.849609375
-121.76513671875
-130.0048828125
-134.58251953125
-134.58251953125
-128.173828125
-122.6806640625
-130.92041015625
-126.3427734375
-129.08935546875
-132.75146484375
-126.3427734375
-127.25830078125
-129.08935546875
-127.25830078125
-132.75146484375
-128.173828125
-132.75146484375
-131.8359375
-137.3291015625
-144.6533203125
-151.06201171875
-158.38623046875
-147.39990234375
-137.3291015625
-130.92041015625
-133.6669921875
-129.08935546875
-126.3427734375
-126.3427734375
-130.92041015625
-131.8359375
-126.3427734375
-131.8359375
-130.92041015625
-124.51171875
-132.75146484375
-145.56884765625
-145.56884765625
-141.90673828125
-136.41357421875
-132.75146484375
-133.6669921875
-127.25830078125
-129.08935546875
-130.92041015625
-132.75146484375
-133.6669921875
-136.41357421875
-140.9912109375
-145.56884765625
-139.16015625
-138.24462890625
-130.0048828125
-128.173828125
-130.0048828125
-126.3427734375
-128.173828125
-128.173828125
-129.08935546875
-129.08935546875
-131.8359375
-135.498046875
-127.25830078125
-121.76513671875
-118.10302734375
-114.44091796875
-124.51171875
-144.6533203125
-148.3154296875
-146.484375
-151.06201171875
-145.56884765625
-125.42724609375
-119.93408203125
-121.76513671875
-118.10302734375
-119.0185546875
-122.6806640625
-126.3427734375
-134.58251953125
-136.41357421875
-130.92041015625
-124.51171875
-122.6806640625
-119.0185546875
-119.0185546875
-122.6806640625
-132.75146484375
-149.23095703125
-143.73779296875
-131.8359375
-130.92041015625
-126.3427734375
-116.27197265625
-120.849609375
-123.59619140625
-121.76513671875
-117.1875
-115.3564453125
-117.1875
-135.498046875
-140.9912109375
-136.41357421875
-133.6669921875
-134.58251953125
-126.3427734375
-124.51171875
-133.6669921875
-133.6669921875
-130.0048828125
-130.0048828125
-130.0048828125
-132.75146484375
-127.25830078125
-126.3427734375
-127.25830078125
-127.25830078125
-118.10302734375
-108.94775390625
-106.201171875
-98.876953125
-108.0322265625
-107.11669921875
-108.0322265625
-108.94775390625
-106.201171875
-99.79248046875
-87.890625
-76.904296875
-75.98876953125
-78.7353515625
-81.48193359375
-70.49560546875
-80.56640625
-84.228515625
-85.14404296875
-94.29931640625
-108.0322265625
-95.21484375
-78.7353515625
-69.580078125
-75.0732421875
-75.98876953125
-70.49560546875
-74.15771484375
-70.49560546875
-69.580078125
-70.49560546875
-71.4111328125
-63.17138671875
-56.7626953125
-41.19873046875
-38.4521484375
-45.7763671875
-56.7626953125
-61.34033203125
-80.56640625
-93.3837890625
-98.876953125
-112.60986328125
-116.27197265625
-127.25830078125
-130.0048828125
-132.75146484375
-130.0048828125
-133.6669921875
-134.58251953125
-130.92041015625
-133.6669921875
-137.3291015625
-136.41357421875
-127.25830078125
-123.59619140625
-130.0048828125
-129.08935546875
-131.8359375
-131.8359375
-125.42724609375
-126.3427734375
-142.822265625
-153.80859375
-141.90673828125
-132.75146484375
-128.173828125
-136.41357421875
-134.58251953125
-129.08935546875
-128.173828125
-138.24462890625
-155.6396484375
-181.2744140625
-195.00732421875
-186.767578125
-163.87939453125
-150.146484375
-122.6806640625
-80.56640625
3.662109375
115.3564453125
273.74267578125
448.6083984375
616.14990234375
774.5361328125
945.73974609375
1056.5185546875
1077.57568359375
1001.5869140625
845.947265625
649.10888671875
396.42333984375
135.498046875
-86.97509765625
-269.1650390625
-379.0283203125
-421.142578125
-389.09912109375
-354.30908203125
-310.36376953125
-277.40478515625
-276.4892578125
-279.23583984375
-269.1650390625
-241.69921875
-200.50048828125
-165.71044921875
-140.07568359375
-117.1875
-97.96142578125
-86.0595703125
-94.29931640625
-98.876953125
-92.46826171875
-92.46826171875
-96.13037109375
-94.29931640625
-108.0322265625
-111.6943359375
-90.63720703125
-86.0595703125
-82.3974609375
-75.98876953125
-73.2421875
-79.65087890625
-78.7353515625
-76.904296875
-82.3974609375
-86.97509765625
-86.97509765625
-87.890625
-80.56640625
-69.580078125
-62.255859375
-55.84716796875
-50.35400390625
-50.35400390625
-51.26953125
-51.26953125
-46.69189453125
-58.59375
-67.7490234375
-68.66455078125
-65.91796875
-49.4384765625
-36.62109375
-36.62109375
-36.62109375
-36.62109375
-32.958984375
-33.87451171875
-32.04345703125
-24.71923828125
-32.958984375
-39.36767578125
-33.87451171875
-25.634765625
-18.310546875
-10.986328125
-14.6484375
-11.90185546875
-4.57763671875
-11.90185546875
-17.39501953125
-10.986328125
-1.8310546875
-3.662109375
1.8310546875
0
-1.8310546875
10.07080078125
16.4794921875
18.310546875
18.310546875
7.32421875
0.91552734375
15.56396484375
22.88818359375
28.38134765625
30.21240234375
43.02978515625
47.607421875
54.01611328125
55.84716796875
62.255859375
60.4248046875
58.59375
56.7626953125
61.34033203125
69.580078125
75.98876953125
89.7216796875
95.21484375
99.79248046875
100.7080078125
92.46826171875
89.7216796875
95.21484375
107.11669921875
119.93408203125
135.498046875
141.90673828125
139.16015625
135.498046875
149.23095703125
162.9638671875
173.03466796875
167.54150390625
174.86572265625
183.10546875
191.34521484375
187.68310546875
184.02099609375
193.17626953125
200.50048828125
203.2470703125
203.2470703125
213.31787109375
221.5576171875
226.13525390625
230.712890625
230.712890625
231.62841796875
233.45947265625
239.8681640625
238.95263671875
239.8681640625
241.69921875
237.12158203125
220.64208984375
215.14892578125
215.14892578125
215.14892578125
214.2333984375
205.99365234375
195.00732421875
180.35888671875
168.45703125
156.55517578125
140.9912109375
127.25830078125
111.6943359375
104.3701171875
103.45458984375
79.65087890625
61.34033203125
59.50927734375
56.7626953125
53.1005859375
46.69189453125
39.36767578125
33.87451171875
19.22607421875
10.986328125
8.23974609375
-2.74658203125
-16.4794921875
-17.39501953125
-18.310546875
-29.296875
-39.36767578125
-36.62109375
-32.958984375
-28.38134765625
-39.36767578125
-58.59375
-65.91796875
-69.580078125
-58.59375
-55.84716796875
-58.59375
-61.34033203125
-61.34033203125
-62.255859375
-70.49560546875
-65.00244140625
-64.0869140625
-74.15771484375
-72.32666015625
-65.91796875
-61.34033203125
-65.00244140625
-66.83349609375
-71.4111328125
-69.580078125
-73.2421875
-75.0732421875
-90.63720703125
-91.552734375
-77.81982421875
-70.49560546875
-67.7490234375
-70.49560546875
-67.7490234375
-72.32666015625
-75.98876953125
-75.98876953125
-78.7353515625
-79.65087890625
-77.81982421875
-75.98876953125
-81.48193359375
-86.0595703125
-92.46826171875
-85.14404296875
-82.3974609375
-80.56640625
-79.65087890625
-82.3974609375
-85.14404296875
-75.0732421875
-75.0732421875
-79.65087890625
-85.14404296875
-80.56640625
-78.7353515625
-79.65087890625
-84.228515625
-86.97509765625
-89.7216796875
-89.7216796875
-88.80615234375
-82.3974609375
-78.7353515625
-86.0595703125
-88.80615234375
-99.79248046875
-97.0458984375
-90.63720703125
-87.890625
-88.80615234375
-90.63720703125
-95.21484375
-95.21484375
-94.29931640625
-101.62353515625
-102.5390625
-107.11669921875
-103.45458984375
-102.5390625
-108.94775390625
-108.94775390625
-106.201171875
-102.5390625
-106.201171875
-109.86328125
-109.86328125
-118.10302734375
-121.76513671875
-112.60986328125
-101.62353515625
-108.0322265625
-106.201171875
-101.62353515625
-99.79248046875
-100.7080078125
-103.45458984375
-112.60986328125
-117.1875
-111.6943359375
-114.44091796875
-116.27197265625
-116.27197265625
-104.3701171875
-98.876953125
-97.96142578125
-111.6943359375
-120.849609375
-127.25830078125
-133.6669921875
-115.3564453125
-104.3701171875
-103.45458984375
-107.11669921875
-107.11669921875
-114.44091796875
-122.6806640625
-119.93408203125
-111.6943359375
-110.77880859375
-109.86328125
-108.94775390625
-106.201171875
-104.3701171875
-120.849609375
-131.8359375
-130.92041015625
-119.93408203125
-112.60986328125
-108.94775390625
-112.60986328125
-106.201171875
-103.45458984375
-112.60986328125
-121.76513671875
-117.1875
-114.44091796875
-108.94775390625
-108.0322265625
-119.0185546875
-119.0185546875
-114.44091796875
-109.86328125
-111.6943359375
-114.44091796875
-116.27197265625
-115.3564453125
-113.525390625
-100.7080078125
-103.45458984375
-110.77880859375
-130.0048828125
-135.498046875
-126.3427734375
-124.51171875
-120.849609375
-110.77880859375
-108.0322265625
-113.525390625
-116.27197265625
-109.86328125
-113.525390625
-119.0185546875
-119.93408203125
-122.6806640625
-120.849609375
-114.44091796875
-118.10302734375
-110.77880859375
-98.876953125
-105.28564453125
-118.10302734375
-131.8359375
-125.42724609375
-119.0185546875
-116.27197265625
-118.10302734375
-111.6943359375
-113.525390625
-120.849609375
-131.8359375
-127.25830078125
-115.3564453125
-116.27197265625
-108.94775390625
-112.60986328125
-112.60986328125
-110.77880859375
-115.3564453125
-112.60986328125
-108.94775390625
-109.86328125
-103.45458984375
-111.6943359375
-125.42724609375
-132.75146484375
-128.173828125
-110.77880859375
-103.45458984375
-106.201171875
-100.7080078125
-94.29931640625
-82.3974609375
-79.65087890625
-76.904296875
-79.65087890625
-84.228515625
-82.3974609375
-77.81982421875
-75.98876953125
-71.4111328125
-65.91796875
-65.91796875
-77.81982421875
-86.97509765625
-80.56640625
-73.2421875
-65.91796875
-55.84716796875
-62.255859375
-63.17138671875
-56.7626953125
-54.931640625
-54.931640625
-49.4384765625
-52.18505859375
-49.4384765625
-40.283203125
-35.70556640625
-32.958984375
-33.87451171875
-47.607421875
-52.18505859375
-42.1142578125
-45.7763671875
-49.4384765625
-58.59375
-75.0732421875
-86.97509765625
-82.3974609375
-96.13037109375
-106.201171875
-108.94775390625
-117.1875
-119.0185546875
-113.525390625
-112.60986328125
-108.0322265625
-106.201171875
-104.3701171875
-105.28564453125
-104.3701171875
-112.60986328125
-116.27197265625
-116.27197265625
-122.6806640625
-118.10302734375
-112.60986328125
-112.60986328125
-118.10302734375
-116.27197265625
-112.60986328125
-117.1875
-130.0048828125
-130.0048828125
-119.0185546875
-114.44091796875
-119.93408203125
-133.6669921875
-142.822265625
-151.9775390625
-143.73779296875
-141.90673828125
-141.90673828125
-121.76513671875
-95.21484375
-38.4521484375
61.34033203125
212.40234375
390.0146484375
564.88037109375
723.2666015625
890.80810546875
1019.8974609375
1042.78564453125
995.17822265625
871.58203125
704.9560546875
467.83447265625
205.99365234375
-30.21240234375
-226.13525390625
-357.97119140625
-425.72021484375
-414.73388671875
-375.3662109375
-317.68798828125
-283.8134765625
-258.1787109375
-240.78369140625
-241.69921875
-237.12158203125
-217.8955078125
-202.33154296875
-178.52783203125
-158.38623046875
-128.173828125
-108.94775390625
-95.21484375
-88.80615234375
-85.14404296875
-87.890625
-86.97509765625
-85.14404296875
-97.0458984375
-111.6943359375
-111.6943359375
-101.62353515625
-93.3837890625
-84.228515625
-76.904296875
-79.65087890625
-80.56640625
-79.65087890625
-79.65087890625
-76.904296875
-73.2421875
-81.48193359375
-70.49560546875
-68.66455078125
-68.66455078125
-67.7490234375
-71.4111328125
-66.83349609375
-58.59375
-54.931640625
-49.4384765625
-51.26953125
-49.4384765625
-58.59375
-70.49560546875
-63.17138671875
-44.86083984375
-39.36767578125
-43.02978515625
-43.02978515625
-40.283203125
-35.70556640625
-26.55029296875
-24.71923828125
-20.1416015625
-20.1416015625
-21.97265625
-29.296875
-30.21240234375
-27.4658203125
-21.05712890625
-20.1416015625
-15.56396484375
-18.310546875
-9.1552734375
-1.8310546875
7.32421875
8.23974609375
10.986328125
-1.8310546875
-0.91552734375
-9.1552734375
-1.8310546875
-0.91552734375
2.74658203125
25.634765625
30.21240234375
33.87451171875
35.70556640625
38.4521484375
39.36767578125
42.1142578125
42.1142578125
47.607421875
54.01611328125
61.34033203125
50.35400390625
45.7763671875
62.255859375
74.15771484375
80.56640625
81.48193359375
91.552734375
92.46826171875
105.28564453125
104.3701171875
91.552734375
89.7216796875
105.28564453125
118.10302734375
122.6806640625
136.41357421875
137.3291015625
142.822265625
157.470703125
159.3017578125
172.119140625
169.37255859375
171.20361328125
174.86572265625
177.6123046875
184.02099609375
193.17626953125
197.75390625
202.33154296875
207.82470703125
214.2333984375
220.64208984375
232.5439453125
228.8818359375
227.96630859375
236.2060546875
246.27685546875
252.685546875
245.361328125
241.69921875
247.1923828125
263.671875
261.8408203125
256.34765625
248.10791015625
245.361328125
229.79736328125
209.65576171875
209.65576171875
208.740234375
201.416015625
196.83837890625
187.68310546875
172.119140625
152.89306640625
138.24462890625
121.76513671875
106.201171875
108.94775390625
102.5390625
94.29931640625
86.0595703125
78.7353515625
66.83349609375
54.01611328125
27.4658203125
16.4794921875
9.1552734375
9.1552734375
0.91552734375
-10.986328125
-18.310546875
-27.4658203125
-30.21240234375
-40.283203125
-39.36767578125
-38.4521484375
-47.607421875
-46.69189453125
-52.18505859375
-54.01611328125
-58.59375
-60.4248046875
-65.00244140625
-68.66455078125
-68.66455078125
-73.2421875
-79.65087890625
-83.31298828125
-76.904296875
-69.580078125
-72.32666015625
-68.66455078125
-68.66455078125
-70.49560546875
-72.32666015625
-72.32666015625
-68.66455078125
-65.91796875
-68.66455078125
-66.83349609375
-73.2421875
-86.97509765625
-91.552734375
-88.80615234375
-81.48193359375
-77.81982421875
-73.2421875
-78.7353515625
-69.580078125
-73.2421875
-79.65087890625
-78.7353515625
-80.56640625
-84.228515625
-84.228515625
-80.56640625
-82.3974609375
-90.63720703125
-86.0595703125
-79.65087890625
-79.65087890625
-81.48193359375
-83.31298828125
-88.80615234375
-86.97509765625
-80.56640625
-86.97509765625
-92.46826171875
-85.14404296875
-92.46826171875
-83.31298828125
-87.890625
-96.13037109375
-92.46826171875
-97.96142578125
-94.29931640625
-86.97509765625
-87.890625
-104.3701171875
-112.60986328125
-107.11669921875
-102.5390625
-101.62353515625
-113.525390625
-110.77880859375
-95.21484375
-97.0458984375
-99.79248046875
-106.201171875
-107.11669921875
-98.876953125
-111.6943359375
-110.77880859375
-100.7080078125
-98.876953125
-104.3701171875
-104.3701171875
-102.5390625
-111.6943359375
-119.0185546875
-127.25830078125
-115.3564453125
-112.60986328125
-111.6943359375
-116.27197265625
-112.60986328125
-110.77880859375
-114.44091796875
-121.76513671875
-128.173828125
-122.6806640625
-116.27197265625
-120.849609375
-119.0185546875
-116.27197265625
-126.3427734375
-122.6806640625
-120.849609375
-132.75146484375
-130.92041015625
-124.51171875
-114.44091796875
-108.94775390625
-116.27197265625
-118.10302734375
-110.77880859375
-97.96142578125
-117.1875
-130.92041015625
-126.3427734375
-125.42724609375
-120.849609375
-116.27197265625
-119.93408203125
-117.1875
-108.94775390625
-115.3564453125
-119.93408203125
-127.25830078125
-138.24462890625
-133.6669921875
-128.173828125
-130.0048828125
-123.59619140625
-137.3291015625
-125.42724609375
-119.93408203125
-114.44091796875
-110.77880859375
-106.201171875
-102.5390625
-109.86328125
-140.9912109375
-152.89306640625
-136.41357421875
-129.08935546875
-120.849609375
-116.27197265625
-124.51171875
-122.6806640625
-114.44091796875
-112.60986328125
-114.44091796875
-125.42724609375
-138.24462890625
-133.6669921875
-121.76513671875
-122.6806640625
-108.94775390625
-104.3701171875
-113.525390625
-107.11669921875
-108.94775390625
-111.6943359375
-112.60986328125
-93.3837890625
-91.552734375
-90.63720703125
-87.890625
-82.3974609375
-74.15771484375
-74.15771484375
-70.49560546875
-80.56640625
-79.65087890625
-76.904296875
-73.2421875
-72.32666015625
-79.65087890625
-76.904296875
-75.98876953125
-78.7353515625
-65.00244140625
-58.59375
-45.7763671875
-49.4384765625
-55.84716796875
-52.18505859375
-42.1142578125
-52.18505859375
-65.91796875
-59.50927734375
-47.607421875
-38.4521484375
-36.62109375
-45.7763671875
-55.84716796875
-60.4248046875
-61.34033203125
-75.0732421875
-93.3837890625
-102.5390625
-118.10302734375
-118.10302734375
-109.86328125
-111.6943359375
-115.3564453125
-108.94775390625
-111.6943359375
-106.201171875
-107.11669921875
-113.525390625
-130.0048828125
-141.90673828125
-129.08935546875
-121.76513671875
-114.44091796875
-130.0048828125
-130.0048828125
-127.25830078125
-126.3427734375
-119.93408203125
-116.27197265625
-110.77880859375
-111.6943359375
-114.44091796875
-115.3564453125
-114.44091796875
-123.59619140625
-147.39990234375
-158.38623046875
-154.72412109375
-146.484375
-139.16015625
-134.58251953125
-135.498046875
-140.07568359375
-119.0185546875
-77.81982421875
4.57763671875
134.58251953125
254.5166015625
411.07177734375
586.85302734375
725.09765625
848.69384765625
910.94970703125
870.66650390625
766.29638671875
611.572265625
404.6630859375
167.54150390625
-56.7626953125
-260.009765625
-394.59228515625
-472.412109375
-455.9326171875
-422.05810546875
-371.7041015625
-318.603515625
-272.8271484375
-263.671875
-270.08056640625
-273.74267578125
-281.06689453125
-274.658203125
-249.0234375
-218.81103515625
-189.51416015625
-168.45703125
-142.822265625
-126.3427734375
-117.1875
-105.28564453125
-95.21484375
-88.80615234375
-81.48193359375
-83.31298828125
-77.81982421875
-77.81982421875
-87.890625
-83.31298828125
-86.97509765625
-86.97509765625
-94.29931640625
-74.15771484375
-74.15771484375
-74.15771484375
-80.56640625
-80.56640625
-73.2421875
-64.0869140625
-56.7626953125
-50.35400390625
-46.69189453125
-62.255859375
-58.59375
-63.17138671875
-52.18505859375
-45.7763671875
-38.4521484375
-43.02978515625
-50.35400390625
-45.7763671875
-48.52294921875
-46.69189453125
-43.02978515625
-44.86083984375
-32.958984375
-31.1279296875
-26.55029296875
-21.97265625
-29.296875
-30.21240234375
-25.634765625
-23.8037109375
-15.56396484375
-10.986328125
-9.1552734375
-2.74658203125
1.8310546875
0
-6.40869140625
-8.23974609375
-1.8310546875
10.07080078125
17.39501953125
10.07080078125
13.73291015625
22.88818359375
25.634765625
25.634765625
20.1416015625
17.39501953125
11.90185546875
22.88818359375
32.04345703125
48.52294921875
60.4248046875
62.255859375
45.7763671875
46.69189453125
57.67822265625
69.580078125
77.81982421875
72.32666015625
75.98876953125
88.80615234375
90.63720703125
99.79248046875
98.876953125
107.11669921875
119.93408203125
128.173828125
133.6669921875
132.75146484375
130.0048828125
134.58251953125
140.9912109375
145.56884765625
154.72412109375
162.04833984375
179.443359375
191.34521484375
183.10546875
184.9365234375
194.091796875
209.65576171875
218.81103515625
230.712890625
229.79736328125
242.61474609375
248.10791015625
238.95263671875
239.8681640625
246.27685546875
255.43212890625
266.41845703125
267.333984375
274.658203125
284.72900390625
284.72900390625
289.306640625
286.56005859375
286.56005859375
283.8134765625
277.40478515625
271.91162109375
266.41845703125
266.41845703125
261.8408203125
249.0234375
238.037109375
223.388671875
215.14892578125
208.740234375
198.66943359375
169.37255859375
147.39990234375
135.498046875
136.41357421875
136.41357421875
121.76513671875
107.11669921875
97.0458984375
83.31298828125
67.7490234375
56.7626953125
51.26953125
44.86083984375
27.4658203125
19.22607421875
10.986328125
8.23974609375
1.8310546875
-7.32421875
-22.88818359375
-38.4521484375
-46.69189453125
-33.87451171875
-19.22607421875
-27.4658203125
-23.8037109375
-24.71923828125
-40.283203125
-60.4248046875
-76.904296875
-74.15771484375
-65.91796875
-61.34033203125
-58.59375
-56.7626953125
-56.7626953125
-60.4248046875
-58.59375
-54.01611328125
-56.7626953125
-62.255859375
-75.98876953125
-72.32666015625
-73.2421875
-70.49560546875
-72.32666015625
-72.32666015625
-69.580078125
-65.00244140625
-65.91796875
-69.580078125
-67.7490234375
-63.17138671875
-66.83349609375
-69.580078125
-68.66455078125
-88.80615234375
-88.80615234375
-77.81982421875
-68.66455078125
-71.4111328125
-60.4248046875
-56.7626953125
-65.91796875
-78.7353515625
-95.21484375
-97.96142578125
-88.80615234375
-79.65087890625
-78.7353515625
-77.81982421875
-72.32666015625
-75.0732421875
-82.3974609375
-87.890625
-85.14404296875
-75.0732421875
-75.98876953125
-87.890625
-87.890625
-83.31298828125
-82.3974609375
-90.63720703125
-94.29931640625
-97.96142578125
-107.11669921875
-109.86328125
-100.7080078125
-96.13037109375
-91.552734375
-89.7216796875
-93.3837890625
-92.46826171875
-101.62353515625
-100.7080078125
-96.13037109375
-92.46826171875
-97.0458984375
-91.552734375
-103.45458984375
-103.45458984375
-102.5390625
-97.96142578125
-107.11669921875
-119.93408203125
-110.77880859375
-101.62353515625
-109.86328125
-105.28564453125
-99.79248046875
-108.94775390625
-110.77880859375
-112.60986328125
-109.86328125
-108.0322265625
-109.86328125
-113.525390625
-106.201171875
-105.28564453125
-108.0322265625
-106.201171875
-100.7080078125
-106.201171875
-110.77880859375
-108.0322265625
-112.60986328125
-121.76513671875
-127.25830078125
-121.76513671875
-115.3564453125
-109.86328125
-112.60986328125
-108.94775390625
-108.0322265625
-118.10302734375
-122.6806640625
-122.6806640625
-110.77880859375
-114.44091796875
-119.93408203125
-111.6943359375
-110.77880859375
-118.10302734375
-114.44091796875
-111.6943359375
-103.45458984375
-108.94775390625
-119.93408203125
-123.59619140625
-116.27197265625
-115.3564453125
-115.3564453125
-106.201171875
-105.28564453125
-103.45458984375
-108.94775390625
-102.5390625
-96.13037109375
-91.552734375
-83.31298828125
-79.65087890625
-79.65087890625
-75.0732421875
-71.4111328125
-71.4111328125
-76.904296875
-77.81982421875
-67.7490234375
-61.34033203125
-62.255859375
-62.255859375
-70.49560546875
-69.580078125
-71.4111328125
-67.7490234375
-69.580078125
-65.91796875
-60.4248046875
-61.34033203125
-61.34033203125
-68.66455078125
-55.84716796875
-48.52294921875
-45.7763671875
-45.7763671875
-41.19873046875
-33.87451171875
-29.296875
-20.1416015625
-20.1416015625
-29.296875
-45.7763671875
-61.34033203125
-77.81982421875
-89.7216796875
-95.21484375
-92.46826171875
-95.21484375
-101.62353515625
-108.0322265625
-106.201171875
-108.94775390625
-108.94775390625
-109.86328125
-106.201171875
-107.11669921875
-109.86328125
-120.849609375
-124.51171875
-123.59619140625
-128.173828125
-117.1875
-108.0322265625
-108.0322265625
-110.77880859375
-107.11669921875
-127.25830078125
-137.3291015625
-129.08935546875
-118.10302734375
-116.27197265625
-117.1875
-115.3564453125
-119.93408203125
-135.498046875
-136.41357421875
-133.6669921875
-145.56884765625
-160.21728515625
-145.56884765625
-134.58251953125
-123.59619140625
-108.94775390625
-84.228515625
-18.310546875
98.876953125
257.26318359375
427.55126953125
593.26171875
742.49267578125
891.7236328125
1001.5869140625
998.84033203125
925.59814453125
774.5361328125
596.923828125
371.7041015625
100.7080078125
-135.498046875
-322.265625
-418.39599609375
-446.77734375
-416.56494140625
-363.46435546875
-303.03955078125
-267.333984375
-251.77001953125
-245.361328125
-240.78369140625
-255.43212890625
-262.75634765625
-238.037109375
-213.31787109375
-180.35888671875
-144.6533203125
-111.6943359375
-95.21484375
-92.46826171875
-85.14404296875
-79.65087890625
-91.552734375
-107.11669921875
-104.3701171875
-94.29931640625
-81.48193359375
-80.56640625
-75.0732421875
-73.2421875
-81.48193359375
-92.46826171875
-93.3837890625
-82.3974609375
-81.48193359375
-72.32666015625
-63.17138671875
-62.255859375
-61.34033203125
-62.255859375
-65.00244140625
-61.34033203125
-59.50927734375
-56.7626953125
-53.1005859375
-52.18505859375
-53.1005859375
-43.9453125
-44.86083984375
-64.0869140625
-66.83349609375
-49.4384765625
-41.19873046875
-38.4521484375
-43.02978515625
-43.9453125
-42.1142578125
-29.296875
-24.71923828125
-30.21240234375
-18.310546875
-16.4794921875
-16.4794921875
-9.1552734375
-8.23974609375
-12.8173828125
-25.634765625
-19.22607421875
-8.23974609375
0
-0.91552734375
5.4931640625
9.1552734375
3.662109375
9.1552734375
14.6484375
24.71923828125
23.8037109375
15.56396484375
-0.91552734375
10.986328125
27.4658203125
36.62109375
43.02978515625
51.26953125
55.84716796875
54.01611328125
54.931640625
51.26953125
55.84716796875
65.00244140625
62.255859375
47.607421875
57.67822265625
77.81982421875
97.0458984375
102.5390625
98.876953125
102.5390625
105.28564453125
109.86328125
119.93408203125
130.0048828125
130.0048828125
134.58251953125
142.822265625
148.3154296875
164.794921875
177.6123046875
184.9365234375
172.119140625
162.04833984375
175.78125
195.00732421875
204.16259765625
205.99365234375
215.14892578125
221.5576171875
228.8818359375
241.69921875
241.69921875
247.1923828125
255.43212890625
250.8544921875
246.27685546875
241.69921875
248.10791015625
264.58740234375
270.99609375
273.74267578125
279.23583984375
265.5029296875
264.58740234375
261.8408203125
252.685546875
246.27685546875
240.78369140625
226.13525390625
218.81103515625
222.47314453125
212.40234375
204.16259765625
190.4296875
172.119140625
162.04833984375
146.484375
135.498046875
130.92041015625
123.59619140625
108.94775390625
83.31298828125
66.83349609375
71.4111328125
55.84716796875
45.7763671875
41.19873046875
29.296875
16.4794921875
5.4931640625
3.662109375
-4.57763671875
-17.39501953125
-28.38134765625
-41.19873046875
-43.02978515625
-43.9453125
-41.19873046875
-43.02978515625
-39.36767578125
-41.19873046875
-56.7626953125
-75.0732421875
-86.0595703125
-80.56640625
-79.65087890625
-75.98876953125
-73.2421875
-70.49560546875
-61.34033203125
-60.4248046875
-66.83349609375
-67.7490234375
-71.4111328125
-86.97509765625
-84.228515625
-78.7353515625
-82.3974609375
-76.904296875
-71.4111328125
-69.580078125
-75.98876953125
-80.56640625
-84.228515625
-83.31298828125
-78.7353515625
-75.0732421875
-75.98876953125
-82.3974609375
-95.21484375
-93.3837890625
-87.890625
-80.56640625
-75.98876953125
-81.48193359375
-82.3974609375
-79.65087890625
-69.580078125
-73.2421875
-82.3974609375
-89.7216796875
-86.0595703125
-85.14404296875
-84.228515625
-79.65087890625
-83.31298828125
-77.81982421875
-79.65087890625
-84.228515625
-84.228515625
-85.14404296875
-87.890625
-92.46826171875
-82.3974609375
-86.0595703125
-91.552734375
-90.63720703125
-90.63720703125
-87.890625
-89.7216796875
-86.97509765625
-89.7216796875
-87.890625
-87.890625
-99.79248046875
-115.3564453125
-118.10302734375
-108.94775390625
-95.21484375
-89.7216796875
-92.46826171875
-95.21484375
-96.13037109375
-97.96142578125
-99.79248046875
-102.5390625
-101.62353515625
-108.0322265625
-109.86328125
-103.45458984375
-96.13037109375
-103.45458984375
-108.94775390625
-112.60986328125
-112.60986328125
-114.44091796875
-110.77880859375
-115.3564453125
-117.1875
-117.1875
-110.77880859375
-108.94775390625
-108.0322265625
-111.6943359375
-111.6943359375
-119.93408203125
-117.1875
-119.93408203125
-109.86328125
-101.62353515625
-98.876953125
-105.28564453125
-106.201171875
-120.849609375
-130.92041015625
-129.08935546875
-119.0185546875
-108.0322265625
-110.77880859375
-116.27197265625
-126.3427734375
-122.6806640625
-125.42724609375
-109.86328125
-108.94775390625
-110.77880859375
-113.525390625
-113.525390625
-115.3564453125
-117.1875
-116.27197265625
-113.525390625
-116.27197265625
-121.76513671875
-121.76513671875
-119.93408203125
-121.76513671875
-116.27197265625
-109.86328125
-116.27197265625
-118.10302734375
-113.525390625
-119.0185546875
-123.59619140625
-124.51171875
-121.76513671875
-113.525390625
-103.45458984375
-88.80615234375
-86.0595703125
-82.3974609375
-78.7353515625
-72.32666015625
-67.7490234375
-65.91796875
-66.83349609375
-72.32666015625
-68.66455078125
-77.81982421875
-80.56640625
-68.66455078125
-62.255859375
-64.0869140625
-69.580078125
-84.228515625
-86.97509765625
-72.32666015625
-65.00244140625
-65.91796875
-61.34033203125
-59.50927734375
-51.26953125
-51.26953125
-54.931640625
-54.01611328125
-55.84716796875
-54.931640625
-41.19873046875
-33.87451171875
-29.296875
-31.1279296875
-43.02978515625
-49.4384765625
-57.67822265625
-80.56640625
-90.63720703125
-100.7080078125
-110.77880859375
-112.60986328125
-113.525390625
-111.6943359375
-115.3564453125
-121.76513671875
-119.93408203125
-114.44091796875
-125.42724609375
-133.6669921875
-133.6669921875
-119.93408203125
-108.94775390625
-120.849609375
-133.6669921875
-141.90673828125
-120.849609375
-114.44091796875
-116.27197265625
-112.60986328125
-119.0185546875
-131.8359375
-136.41357421875
-131.8359375
-122.6806640625
-113.525390625
-122.6806640625
-119.0185546875
-130.0048828125
-140.07568359375
-144.6533203125
-153.80859375
-162.04833984375
-152.89306640625
-142.822265625
-124.51171875
-89.7216796875
-31.1279296875
63.17138671875
195.9228515625
360.7177734375
536.4990234375
697.6318359375
861.51123046875
1012.5732421875
1070.25146484375
1049.1943359375
945.73974609375
772.705078125
548.40087890625
273.74267578125
18.310546875
-203.2470703125
-357.97119140625
-429.38232421875
-408.3251953125
-370.78857421875
-337.82958984375
-303.03955078125
-292.05322265625
-293.88427734375
-284.72900390625
-260.92529296875
-227.05078125
-187.68310546875
-151.9775390625
-132.75146484375
-124.51171875
-114.44091796875
-101.62353515625
-100.7080078125
-93.3837890625
-88.80615234375
-86.0595703125
-84.228515625
-87.890625
-89.7216796875
-91.552734375
-91.552734375
-96.13037109375
-101.62353515625
-105.28564453125
-105.28564453125
-97.0458984375
-86.97509765625
-75.98876953125
-74.15771484375
-72.32666015625
-73.2421875
-86.0595703125
-88.80615234375
-83.31298828125
-70.49560546875
-67.7490234375
-71.4111328125
-65.91796875
-59.50927734375
-60.4248046875
-58.59375
-69.580078125
-76.904296875
-78.7353515625
-82.3974609375
-63.17138671875
-43.02978515625
-43.02978515625
-34.7900390625
-43.02978515625
-57.67822265625
-65.91796875
-56.7626953125
-58.59375
-50.35400390625
-32.958984375
-20.1416015625
-24.71923828125
-32.04345703125
-32.958984375
-30.21240234375
-26.55029296875
-25.634765625
-23.8037109375
-18.310546875
-13.73291015625
-9.1552734375
-5.4931640625
-9.1552734375
-2.74658203125
2.74658203125
3.662109375
9.1552734375
12.8173828125
10.07080078125
13.73291015625
20.1416015625
13.73291015625
14.6484375
28.38134765625
36.62109375
43.02978515625
43.9453125
39.36767578125
18.310546875
32.04345703125
56.7626953125
65.91796875
59.50927734375
62.255859375
71.4111328125
77.81982421875
86.97509765625
95.21484375
97.0458984375
103.45458984375
98.876953125
97.96142578125
108.94775390625
120.849609375
127.25830078125
132.75146484375
142.822265625
142.822265625
150.146484375
154.72412109375
161.1328125
173.9501953125
174.86572265625
182.18994140625
187.68310546875
193.17626953125
195.00732421875
201.416015625
205.99365234375
207.82470703125
217.8955078125
224.30419921875
225.2197265625
226.13525390625
233.45947265625
229.79736328125
222.47314453125
216.97998046875
216.064453125
222.47314453125
232.5439453125
231.62841796875
231.62841796875
229.79736328125
215.14892578125
208.740234375
199.5849609375
188.5986328125
173.9501953125
159.3017578125
145.56884765625
140.9912109375
126.3427734375
112.60986328125
111.6943359375
105.28564453125
96.13037109375
87.890625
71.4111328125
52.18505859375
43.02978515625
27.4658203125
14.6484375
10.07080078125
7.32421875
0
-12.8173828125
-21.97265625
-33.87451171875
-39.36767578125
-46.69189453125
-51.26953125
-52.18505859375
-58.59375
-58.59375
-61.34033203125
-72.32666015625
-82.3974609375
-92.46826171875
-86.97509765625
-81.48193359375
-78.7353515625
-81.48193359375
-81.48193359375
-75.0732421875
-82.3974609375
-86.0595703125
-81.48193359375
-86.0595703125
-92.46826171875
-86.97509765625
-84.228515625
-84.228515625
-86.97509765625
-87.890625
-91.552734375
-86.0595703125
-86.0595703125
-91.552734375
-89.7216796875
-87.890625
-96.13037109375
-101.62353515625
-103.45458984375
-98.876953125
-88.80615234375
-85.14404296875
-101.62353515625
-105.28564453125
-92.46826171875
-90.63720703125
-89.7216796875
-93.3837890625
-95.21484375
-93.3837890625
-93.3837890625
-85.14404296875
-93.3837890625
-93.3837890625
-88.80615234375
-86.97509765625
-98.876953125
-106.201171875
-101.62353515625
-108.94775390625
-110.77880859375
-108.0322265625
-106.201171875
-108.0322265625
-97.0458984375
-96.13037109375
-90.63720703125
-95.21484375
-98.876953125
-107.11669921875
-113.525390625
-111.6943359375
-106.201171875
-102.5390625
-108.94775390625
-107.11669921875
-109.86328125
-118.10302734375
-119.0185546875
-117.1875
-108.94775390625
-101.62353515625
-104.3701171875
-100.7080078125
-100.7080078125
-112.60986328125
-119.93408203125
-121.76513671875
-117.1875
-114.44091796875
-117.1875
-120.849609375
-126.3427734375
-130.92041015625
-125.42724609375
-115.3564453125
-108.0322265625
-114.44091796875
-121.76513671875
-126.3427734375
-130.0048828125
-125.42724609375
-118.10302734375
-120.849609375
-126.3427734375
-119.0185546875
-119.0185546875
-121.76513671875
-119.93408203125
-118.10302734375
-116.27197265625
-119.93408203125
-120.849609375
-131.8359375
-136.41357421875
-130.0048828125
-121.76513671875
-116.27197265625
-123.59619140625
-125.42724609375
-121.76513671875
-128.173828125
-130.0048828125
-124.51171875
-122.6806640625
-127.25830078125
-134.58251953125
-138.24462890625
-141.90673828125
-134.58251953125
-120.849609375
-119.0185546875
-126.3427734375
-125.42724609375
-118.10302734375
-119.0185546875
-119.93408203125
-115.3564453125
-119.93408203125
-119.0185546875
-120.849609375
-130.92041015625
-131.8359375
-128.173828125
-133.6669921875
-135.498046875
-130.92041015625
-128.173828125
-130.92041015625
-124.51171875
-118.10302734375
-116.27197265625
-127.25830078125
-126.3427734375
-122.6806640625
-122.6806640625
-122.6806640625
-125.42724609375
-126.3427734375
-123.59619140625
-120.849609375
-122.6806640625
-125.42724609375
-131.8359375
-143.73779296875
-139.16015625
-127.25830078125
-118.10302734375
-122.6806640625
-114.44091796875
-110.77880859375
-107.11669921875
-103.45458984375
-107.11669921875
-97.0458984375
-89.7216796875
-85.14404296875
-80.56640625
-81.48193359375
-72.32666015625
-75.98876953125
-79.65087890625
-73.2421875
-72.32666015625
-84.228515625
-81.48193359375
-82.3974609375
-78.7353515625
-87.890625
-89.7216796875
-80.56640625
-75.0732421875
-69.580078125
-69.580078125
-76.904296875
-78.7353515625
-71.4111328125
-67.7490234375
-73.2421875
-72.32666015625
-67.7490234375
-58.59375
-54.931640625
-47.607421875
-43.02978515625
-43.02978515625
-45.7763671875
-54.931640625
-63.17138671875
-76.904296875
-90.63720703125
-101.62353515625
-114.44091796875
-132.75146484375
-140.07568359375
-130.0048828125
-123.59619140625
-125.42724609375
-124.51171875
-126.3427734375
-135.498046875
-143.73779296875
-144.6533203125
-128.173828125
-119.93408203125
-117.1875
-128.173828125
-132.75146484375
-130.92041015625
-122.6806640625
-121.76513671875
-122.6806640625
-122.6806640625
-126.3427734375
-119.93408203125
-122.6806640625
-122.6806640625
-125.42724609375
-138.24462890625
-149.23095703125
-144.6533203125
-157.470703125
-162.04833984375
-170.2880859375
-163.87939453125
-144.6533203125
-126.3427734375
-123.59619140625
-109.86328125
-51.26953125
67.7490234375
228.8818359375
392.76123046875
572.20458984375
747.98583984375
907.28759765625
1031.79931640625
1082.1533203125
1053.77197265625
917.3583984375
732.421875
486.14501953125
217.8955078125
-32.04345703125
-226.13525390625
-363.46435546875
-425.72021484375
-410.15625
-380.859375
-335.99853515625
-305.7861328125
-292.05322265625
-281.982421875
-256.34765625
-218.81103515625
-191.34521484375
-158.38623046875
-133.6669921875
-109.86328125
-103.45458984375
-113.525390625
-127.25830078125
-122.6806640625
-117.1875
-105.28564453125
-92.46826171875
-93.3837890625
-93.3837890625
-94.29931640625
-96.13037109375
-97.0458984375
-93.3837890625
-97.96142578125
-96.13037109375
-86.97509765625
-83.31298828125
-91.552734375
-95.21484375
-93.3837890625
-89.7216796875
-83.31298828125
-82.3974609375
-76.904296875
-75.0732421875
-77.81982421875
-82.3974609375
-69.580078125
-60.4248046875
-62.255859375
-56.7626953125
-62.255859375
-67.7490234375
-67.7490234375
-67.7490234375
-61.34033203125
-51.26953125
-54.931640625
-66.83349609375
-63.17138671875
-53.1005859375
-48.52294921875
-44.86083984375
-43.9453125
-43.9453125
-46.69189453125
-46.69189453125
-36.62109375
-38.4521484375
-32.04345703125
-20.1416015625
-24.71923828125
-40.283203125
-46.69189453125
-32.958984375
-18.310546875
-19.22607421875
-19.22607421875
-15.56396484375
-10.986328125
-4.57763671875
-3.662109375
-5.4931640625
-7.32421875
0.91552734375
6.40869140625
10.07080078125
12.8173828125
17.39501953125
18.310546875
17.39501953125
9.1552734375
16.4794921875
32.958984375
40.283203125
46.69189453125
61.34033203125
63.17138671875
58.59375
53.1005859375
54.931640625
51.26953125
54.931640625
60.4248046875
75.98876953125
89.7216796875
96.13037109375
102.5390625
97.96142578125
103.45458984375
112.60986328125
121.76513671875
126.3427734375
130.92041015625
133.6669921875
141.90673828125
145.56884765625
149.23095703125
152.89306640625
161.1328125
172.119140625
178.52783203125
167.54150390625
171.20361328125
192.2607421875
198.66943359375
198.66943359375
198.66943359375
201.416015625
194.091796875
200.50048828125
217.8955078125
227.05078125
227.96630859375
227.96630859375
227.96630859375
234.375
227.96630859375
225.2197265625
219.7265625
222.47314453125
216.064453125
199.5849609375
191.34521484375
173.9501953125
149.23095703125
147.39990234375
149.23095703125
148.3154296875
139.16015625
131.8359375
114.44091796875
99.79248046875
89.7216796875
80.56640625
75.98876953125
65.00244140625
51.26953125
34.7900390625
31.1279296875
19.22607421875
3.662109375
3.662109375
0.91552734375
-9.1552734375
-20.1416015625
-40.283203125
-52.18505859375
-51.26953125
-50.35400390625
-44.86083984375
-44.86083984375
-41.19873046875
-45.7763671875
-54.01611328125
-66.83349609375
-82.3974609375
-80.56640625
-69.580078125
-71.4111328125
-70.49560546875
-75.98876953125
-75.98876953125
-80.56640625
-80.56640625
-75.0732421875
-72.32666015625
-73.2421875
-74.15771484375
-68.66455078125
-73.2421875
-86.0595703125
-103.45458984375
-113.525390625
-108.0322265625
-97.96142578125
-91.552734375
-86.97509765625
-75.98876953125
-76.904296875
-86.0595703125
-85.14404296875
-85.14404296875
-91.552734375
-90.63720703125
-90.63720703125
-86.97509765625
-86.0595703125
-81.48193359375
-76.904296875
-79.65087890625
-96.13037109375
-109.86328125
-125.42724609375
-118.10302734375
-95.21484375
-89.7216796875
-90.63720703125
-89.7216796875
-92.46826171875
-102.5390625
-107.11669921875
-104.3701171875
-97.0458984375
-84.228515625
-94.29931640625
-96.13037109375
-99.79248046875
-104.3701171875
-107.11669921875
-108.94775390625
-114.44091796875
-100.7080078125
-106.201171875
-110.77880859375
-103.45458984375
-113.525390625
-126.3427734375
-124.51171875
-117.1875
-108.94775390625
-102.5390625
-105.28564453125
-116.27197265625
-122.6806640625
-120.849609375
-115.3564453125
-113.525390625
-119.0185546875
-119.0185546875
-118.10302734375
-124.51171875
-127.25830078125
-120.849609375
-118.10302734375
-117.1875
-114.44091796875
-115.3564453125
-113.525390625
-115.3564453125
-113.525390625
-119.93408203125
-142.822265625
-143.73779296875
-133.6669921875
-121.76513671875
-116.27197265625
-115.3564453125
-111.6943359375
-121.76513671875
-128.173828125
-130.92041015625
-130.92041015625
-129.08935546875
-123.59619140625
-120.849609375
-131.8359375
-134.58251953125
-136.41357421875
-131.8359375
-127.25830078125
-124.51171875
-123.59619140625
-121.76513671875
-126.3427734375
-129.08935546875
-125.42724609375
-128.173828125
-131.8359375
-131.8359375
-130.0048828125
-126.3427734375
-121.76513671875
-128.173828125
-125.42724609375
-133.6669921875
-135.498046875
-131.8359375
-130.0048828125
-128.173828125
-130.92041015625
-131.8359375
-132.75146484375
-130.0048828125
-126.3427734375
-130.92041015625
-128.173828125
-123.59619140625
-130.92041015625
-128.173828125
-131.8359375
-133.6669921875
-134.58251953125
-128.173828125
-130.0048828125
-131.8359375
-125.42724609375
-128.173828125
-127.25830078125
-123.59619140625
-118.10302734375
-119.93408203125
-113.525390625
-120.849609375
-123.59619140625
-133.6669921875
-141.90673828125
-147.39990234375
-151.06201171875
-132.75146484375
-121.76513671875
-119.0185546875
-117.1875
-119.0185546875
-122.6806640625
-127.25830078125
-126.3427734375
-133.6669921875
-126.3427734375
-120.849609375
-123.59619140625
-128.173828125
-132.75146484375
-130.92041015625
-124.51171875
-127.25830078125
-140.9912109375
-138.24462890625
-128.173828125
-129.08935546875
-133.6669921875
-135.498046875
-129.08935546875
-130.0048828125
-124.51171875
-116.27197265625
-126.3427734375
-129.08935546875
-126.3427734375
-124.51171875
-126.3427734375
-128.173828125
-119.93408203125
-115.3564453125
-116.27197265625
-116.27197265625
-119.0185546875
-113.525390625
-104.3701171875
-85.14404296875
-77.81982421875
-80.56640625
-87.890625
-88.80615234375
-86.0595703125
-84.228515625
-77.81982421875
-67.7490234375
-67.7490234375
-72.32666015625
-83.31298828125
-86.0595703125
-75.98876953125
-80.56640625
-87.890625
-84.228515625
-79.65087890625
-75.0732421875
-79.65087890625
-85.14404296875
-77.81982421875
-68.66455078125
-63.17138671875
-60.4248046875
-59.50927734375
-60.4248046875
-54.01611328125
-44.86083984375
-43.02978515625
-44.86083984375
-53.1005859375
-56.7626953125
-65.91796875
-73.2421875
-79.65087890625
-104.3701171875
-113.525390625
-114.44091796875
-121.76513671875
-129.08935546875
-132.75146484375
-132.75146484375
-130.92041015625
-126.3427734375
-122.6806640625
-121.76513671875
-125.42724609375
-126.3427734375
-124.51171875
-121.76513671875
-136.41357421875
-139.16015625
-130.0048828125
-129.08935546875
-136.41357421875
-129.08935546875
-128.173828125
-129.08935546875
-133.6669921875
-131.8359375
-128.173828125
-124.51171875
-116.27197265625
-115.3564453125
-131.8359375
-147.39990234375
-166.6259765625
-187.68310546875
-190.4296875
-173.9501953125
-156.55517578125
-120.849609375
-78.7353515625
-18.310546875
90.63720703125
238.037109375
403.74755859375
562.1337890625
720.52001953125
893.5546875
1027.2216796875
1072.08251953125
1042.78564453125
904.541015625
715.9423828125
468.75
199.5849609375
-34.7900390625
-224.30419921875
-357.0556640625
-416.56494140625
-401.0009765625
-372.61962890625
-334.16748046875
-298.4619140625
-287.4755859375
-275.57373046875
-259.09423828125
-232.5439453125
-203.2470703125
-173.9501953125
-138.24462890625
-121.76513671875
-118.10302734375
-108.0322265625
-105.28564453125
-102.5390625
-102.5390625
-106.201171875
-110.77880859375
-108.0322265625
-110.77880859375
-103.45458984375
-103.45458984375
-102.5390625
-109.86328125
-109.86328125
-101.62353515625
-97.0458984375
-95.21484375
-93.3837890625
-91.552734375
-89.7216796875
-97.0458984375
-86.97509765625
-78.7353515625
-82.3974609375
-86.97509765625
-80.56640625
-80.56640625
-81.48193359375
-77.81982421875
-73.2421875
-72.32666015625
-66.83349609375
-67.7490234375
-71.4111328125
-69.580078125
-68.66455078125
-60.4248046875
-55.84716796875
-60.4248046875
-69.580078125
-75.0732421875
-62.255859375
-53.1005859375
-43.02978515625
-42.1142578125
-54.01611328125
-63.17138671875
-58.59375
-53.1005859375
-54.01611328125
-49.4384765625
-42.1142578125
-35.70556640625
-27.4658203125
-24.71923828125
-23.8037109375
-28.38134765625
-21.05712890625
-14.6484375
-21.05712890625
-25.634765625
-21.05712890625
-16.4794921875
-21.97265625
-9.1552734375
5.4931640625
4.57763671875
6.40869140625
10.986328125
10.986328125
10.986328125
9.1552734375
6.40869140625
8.23974609375
16.4794921875
18.310546875
23.8037109375
28.38134765625
33.87451171875
44.86083984375
58.59375
49.4384765625
53.1005859375
55.84716796875
55.84716796875
48.52294921875
52.18505859375
71.4111328125
91.552734375
99.79248046875
100.7080078125
115.3564453125
112.60986328125
101.62353515625
113.525390625
134.58251953125
135.498046875
122.6806640625
128.173828125
132.75146484375
136.41357421875
140.07568359375
164.794921875
173.9501953125
173.9501953125
177.6123046875
179.443359375
178.52783203125
171.20361328125
174.86572265625
179.443359375
189.51416015625
196.83837890625
203.2470703125
204.16259765625
208.740234375
210.5712890625
205.078125
198.66943359375
207.82470703125
200.50048828125
197.75390625
189.51416015625
184.9365234375
174.86572265625
166.6259765625
166.6259765625
162.04833984375
152.89306640625
134.58251953125
119.93408203125
102.5390625
88.80615234375
75.98876953125
68.66455078125
70.49560546875
60.4248046875
51.26953125
41.19873046875
28.38134765625
15.56396484375
0.91552734375
-8.23974609375
-8.23974609375
-10.986328125
-19.22607421875
-28.38134765625
-45.7763671875
-54.931640625
-54.01611328125
-46.69189453125
-45.7763671875
-44.86083984375
-49.4384765625
-57.67822265625
-81.48193359375
-86.97509765625
-77.81982421875
-70.49560546875
-72.32666015625
-80.56640625
-82.3974609375
-72.32666015625
-78.7353515625
-82.3974609375
-83.31298828125
-83.31298828125
-85.14404296875
-78.7353515625
-85.14404296875
-94.29931640625
-97.0458984375
-96.13037109375
-91.552734375
-93.3837890625
-97.0458984375
-93.3837890625
-96.13037109375
-94.29931640625
-99.79248046875
-99.79248046875
-91.552734375
-95.21484375
-95.21484375
-97.0458984375
-93.3837890625
-91.552734375
-88.80615234375
-88.80615234375
-97.0458984375
-102.5390625
-103.45458984375
-110.77880859375
-113.525390625
-100.7080078125
-101.62353515625
-108.0322265625
-110.77880859375
-109.86328125
-108.0322265625
-113.525390625
-107.11669921875
-104.3701171875
-105.28564453125
-107.11669921875
-117.1875
-108.94775390625
-108.0322265625
-107.11669921875
-103.45458984375
-107.11669921875
-109.86328125
-108.0322265625
-113.525390625
-119.0185546875
-125.42724609375
-124.51171875
-126.3427734375
-130.92041015625
-139.16015625
-125.42724609375
-114.44091796875
-111.6943359375
-120.849609375
-115.3564453125
-113.525390625
-123.59619140625
-119.0185546875
-124.51171875
-120.849609375
-121.76513671875
-119.93408203125
-129.08935546875
-138.24462890625
-134.58251953125
-138.24462890625
-133.6669921875
-136.41357421875
-130.92041015625
-127.25830078125
-126.3427734375
-133.6669921875
-139.16015625
-130.0048828125
-115.3564453125
-114.44091796875
-109.86328125
-115.3564453125
-135.498046875
-156.55517578125
-160.21728515625
-148.3154296875
-134.58251953125
-131.8359375
-127.25830078125
-131.8359375
-133.6669921875
-133.6669921875
-135.498046875
-138.24462890625
-136.41357421875
-134.58251953125
-130.0048828125
-131.8359375
-131.8359375
-128.173828125
-130.92041015625
-137.3291015625
-133.6669921875
-136.41357421875
-136.41357421875
-132.75146484375
-151.06201171875
-171.20361328125
-157.470703125
-133.6669921875
-135.498046875
-131.8359375
-137.3291015625
-136.41357421875
-131.8359375
-131.8359375
-131.8359375
-130.92041015625
-132.75146484375
-130.92041015625
-134.58251953125
-136.41357421875
-141.90673828125
-152.89306640625
-151.9775390625
-147.39990234375
-137.3291015625
-130.0048828125
-134.58251953125
-140.9912109375
-140.9912109375
-138.24462890625
-151.9775390625
-160.21728515625
-142.822265625
-130.92041015625
-133.6669921875
-135.498046875
-132.75146484375
-133.6669921875
-134.58251953125
-131.8359375
-128.173828125
-133.6669921875
-136.41357421875
-140.9912109375
-139.16015625
-137.3291015625
-140.9912109375
-151.9775390625
-151.06201171875
-145.56884765625
-126.3427734375
-129.08935546875
-136.41357421875
-141.90673828125
-151.06201171875
-145.56884765625
-135.498046875
-125.42724609375
-134.58251953125
-141.90673828125
-140.07568359375
-136.41357421875
-142.822265625
-143.73779296875
-130.0048828125
-126.3427734375
-122.6806640625
-130.0048828125
-132.75146484375
-127.25830078125
-112.60986328125
-123.59619140625
-125.42724609375
-116.27197265625
-100.7080078125
-97.96142578125
-99.79248046875
-91.552734375
-84.228515625
-106.201171875
-113.525390625
-101.62353515625
-93.3837890625
-84.228515625
-86.97509765625
-89.7216796875
-79.65087890625
-75.98876953125
-87.890625
-92.46826171875
-89.7216796875
-81.48193359375
-64.0869140625
-56.7626953125
-60.4248046875
-73.2421875
-77.81982421875
-67.7490234375
-58.59375
-53.1005859375
-53.1005859375
-54.01611328125
-63.17138671875
-76.904296875
-83.31298828125
-92.46826171875
-99.79248046875
-108.94775390625
-122.6806640625
-126.3427734375
-126.3427734375
-142.822265625
-156.55517578125
-155.6396484375
-150.146484375
-149.23095703125
-137.3291015625
-127.25830078125
-131.8359375
-140.07568359375
-142.822265625
-139.16015625
-140.07568359375
-145.56884765625
-152.89306640625
-143.73779296875
-134.58251953125
-129.08935546875
-128.173828125
-133.6669921875
-145.56884765625
-159.3017578125
-157.470703125
-148.3154296875
-148.3154296875
-144.6533203125
-148.3154296875
-168.45703125
-179.443359375
-173.03466796875
-163.87939453125
-151.9775390625
-149.23095703125
-133.6669921875
-109.86328125
-31.1279296875
92.46826171875
237.12158203125
400.08544921875
570.37353515625
694.88525390625
846.86279296875
940.24658203125
924.6826171875
831.298828125
682.06787109375
495.30029296875
258.1787109375
-2.74658203125
-221.5576171875
-386.3525390625
-459.5947265625
-456.84814453125
-423.88916015625
-385.43701171875
-327.7587890625
-291.1376953125
-271.91162109375
-272.8271484375
-266.41845703125
-272.8271484375
-278.3203125
-267.333984375
-228.8818359375
-198.66943359375
-176.69677734375
-149.23095703125
-130.0048828125
-117.1875
-118.10302734375
-118.10302734375
-117.1875
-117.1875
-109.86328125
-114.44091796875
-113.525390625
-103.45458984375
-105.28564453125
-102.5390625
-99.79248046875
-102.5390625
-98.876953125
-95.21484375
-97.0458984375
-104.3701171875
-102.5390625
-93.3837890625
-85.14404296875
-85.14404296875
-81.48193359375
-78.7353515625
-87.890625
-88.80615234375
-84.228515625
-76.904296875
-74.15771484375
-74.15771484375
-70.49560546875
-76.904296875
-77.81982421875
-68.66455078125
-67.7490234375
-56.7626953125
-50.35400390625
-55.84716796875
-47.607421875
-44.86083984375
-65.91796875
-68.66455078125
-56.7626953125
-47.607421875
-48.52294921875
-46.69189453125
-42.1142578125
-37.53662109375
-31.1279296875
-21.05712890625
-10.07080078125
-7.32421875
-15.56396484375
-22.88818359375
-39.36767578125
-40.283203125
-21.97265625
-3.662109375
0
-9.1552734375
-5.4931640625
0.91552734375
2.74658203125
7.32421875
3.662109375
8.23974609375
9.1552734375
7.32421875
16.4794921875
18.310546875
30.21240234375
31.1279296875
31.1279296875
35.70556640625
40.283203125
50.35400390625
56.7626953125
56.7626953125
52.18505859375
55.84716796875
65.91796875
70.49560546875
75.0732421875
88.80615234375
95.21484375
105.28564453125
114.44091796875
116.27197265625
119.93408203125
115.3564453125
117.1875
112.60986328125
125.42724609375
139.16015625
156.55517578125
165.71044921875
182.18994140625
180.35888671875
176.69677734375
175.78125
183.10546875
190.4296875
187.68310546875
193.17626953125
197.75390625
214.2333984375
221.5576171875
227.05078125
234.375
219.7265625
220.64208984375
228.8818359375
224.30419921875
226.13525390625
228.8818359375
242.61474609375
237.12158203125
227.05078125
231.62841796875
226.13525390625
213.31787109375
208.740234375
197.75390625
195.00732421875
183.10546875
171.20361328125
162.04833984375
146.484375
134.58251953125
124.51171875
111.6943359375
95.21484375
74.15771484375
59.50927734375
62.255859375
62.255859375
59.50927734375
36.62109375
17.39501953125
12.8173828125
17.39501953125
27.4658203125
18.310546875
-8.23974609375
-27.4658203125
-28.38134765625
-38.4521484375
-46.69189453125
-39.36767578125
-31.1279296875
-47.607421875
-75.0732421875
-88.80615234375
-78.7353515625
-65.00244140625
-66.83349609375
-68.66455078125
-68.66455078125
-79.65087890625
-81.48193359375
-74.15771484375
-80.56640625
-85.14404296875
-93.3837890625
-85.14404296875
-74.15771484375
-74.15771484375
-70.49560546875
-72.32666015625
-88.80615234375
-107.11669921875
-101.62353515625
-94.29931640625
-89.7216796875
-88.80615234375
-81.48193359375
-84.228515625
-93.3837890625
-89.7216796875
-88.80615234375
-97.0458984375
-96.13037109375
-100.7080078125
-98.876953125
-93.3837890625
-94.29931640625
-91.552734375
-93.3837890625
-92.46826171875
-95.21484375
-97.0458984375
-101.62353515625
-103.45458984375
-106.201171875
-97.0458984375
-104.3701171875
-104.3701171875
-102.5390625
-104.3701171875
-104.3701171875
-111.6943359375
-112.60986328125
-111.6943359375
-108.94775390625
-103.45458984375
-100.7080078125
-100.7080078125
-114.44091796875
-113.525390625
-108.0322265625
-108.94775390625
-111.6943359375
-108.94775390625
-106.201171875
-113.525390625
-106.201171875
-108.0322265625
-113.525390625
-119.93408203125
-121.76513671875
-119.0185546875
-128.173828125
-137.3291015625
-125.42724609375
-120.849609375
-122.6806640625
-118.10302734375
-115.3564453125
-130.0048828125
-135.498046875
-140.9912109375
-133.6669921875
-125.42724609375
-122.6806640625
-129.08935546875
-121.76513671875
-126.3427734375
-128.173828125
-130.92041015625
-139.16015625
-139.16015625
-133.6669921875
-130.0048828125
-127.25830078125
-132.75146484375
-130.0048828125
-130.0048828125
-131.8359375
-120.849609375
-115.3564453125
-124.51171875
-134.58251953125
-141.90673828125
-151.06201171875
-151.06201171875
-138.24462890625
-134.58251953125
-125.42724609375
-124.51171875
-128.173828125
-130.0048828125
-120.849609375
-114.44091796875
-116.27197265625
-127.25830078125
-133.6669921875
-143.73779296875
-147.39990234375
-156.55517578125
-145.56884765625
-134.58251953125
-133.6669921875
-132.75146484375
-130.0048828125
-133.6669921875
-132.75146484375
-130.0048828125
-127.25830078125
-128.173828125
-141.90673828125
-147.39990234375
-141.90673828125
-136.41357421875
-127.25830078125
-128.173828125
-140.07568359375
-141.90673828125
-130.0048828125
-125.42724609375
-118.10302734375
-123.59619140625
-132.75146484375
-138.24462890625
-145.56884765625
-145.56884765625
-139.16015625
-134.58251953125
-122.6806640625
-125.42724609375
-127.25830078125
-128.173828125
-130.0048828125
-128.173828125
-121.76513671875
-117.1875
-130.92041015625
-137.3291015625
-140.9912109375
-151.06201171875
-153.80859375
-135.498046875
-118.10302734375
-108.94775390625
-107.11669921875
-103.45458984375
-94.29931640625
-84.228515625
-90.63720703125
-91.552734375
-90.63720703125
-86.0595703125
-95.21484375
-107.11669921875
-106.201171875
-103.45458984375
-86.97509765625
-80.56640625
-80.56640625
-85.14404296875
-89.7216796875
-88.80615234375
-82.3974609375
-79.65087890625
-70.49560546875
-60.4248046875
-72.32666015625
-82.3974609375
-86.97509765625
-80.56640625
-65.91796875
-65.00244140625
-61.34033203125
-43.9453125
-39.36767578125
-34.7900390625
-38.4521484375
-57.67822265625
-75.0732421875
-86.0595703125
-86.0595703125
-97.96142578125
-112.60986328125
-114.44091796875
-119.93408203125
-130.0048828125
-129.08935546875
-131.8359375
-139.16015625
-138.24462890625
-133.6669921875
-139.16015625
-149.23095703125
-139.16015625
-130.92041015625
-132.75146484375
-139.16015625
-132.75146484375
-133.6669921875
-132.75146484375
-133.6669921875
-134.58251953125
-137.3291015625
-137.3291015625
-130.92041015625
-128.173828125
-140.07568359375
-145.56884765625
-144.6533203125
-137.3291015625
-131.8359375
-142.822265625
-152.89306640625
-165.71044921875
-173.9501953125
-165.71044921875
-168.45703125
-160.21728515625
-141.90673828125
-90.63720703125
5.4931640625
135.498046875
297.54638671875
469.66552734375
625.30517578125
776.3671875
933.837890625
1009.82666015625
990.6005859375
896.30126953125
747.0703125
544.73876953125
294.7998046875
41.19873046875
-185.85205078125
-358.88671875
-454.1015625
-461.42578125
-416.56494140625
-353.3935546875
-308.53271484375
-281.982421875
-281.06689453125
-281.982421875
-276.4892578125
-264.58740234375
-229.79736328125
-204.16259765625
-187.68310546875
-171.20361328125
-159.3017578125
-139.16015625
-112.60986328125
-104.3701171875
-104.3701171875
-103.45458984375
-99.79248046875
-99.79248046875
-97.96142578125
-102.5390625
-102.5390625
-93.3837890625
-105.28564453125
-100.7080078125
-94.29931640625
-94.29931640625
-92.46826171875
-87.890625
-89.7216796875
-106.201171875
-108.0322265625
-94.29931640625
-84.228515625
-84.228515625
-82.3974609375
-84.228515625
-81.48193359375
-80.56640625
-76.904296875
-72.32666015625
-73.2421875
-72.32666015625
-69.580078125
-62.255859375
-60.4248046875
-58.59375
-59.50927734375
-60.4248046875
-60.4248046875
-63.17138671875
-56.7626953125
-58.59375
-52.18505859375
-45.7763671875
-43.9453125
-43.9453125
-31.1279296875
-34.7900390625
-26.55029296875
-32.04345703125
-35.70556640625
-36.62109375
-31.1279296875
-17.39501953125
-16.4794921875
-16.4794921875
-9.1552734375
-8.23974609375
-4.57763671875
-2.74658203125
3.662109375
7.32421875
-0.91552734375
0.91552734375
4.57763671875
-3.662109375
-3.662109375
10.07080078125
17.39501953125
21.97265625
26.55029296875
29.296875
25.634765625
27.4658203125
32.958984375
33.87451171875
40.283203125
53.1005859375
65.00244140625
77.81982421875
73.2421875
60.4248046875
66.83349609375
76.904296875
97.0458984375
108.94775390625
107.11669921875
92.46826171875
95.21484375
105.28564453125
117.1875
135.498046875
141.90673828125
143.73779296875
144.6533203125
151.9775390625
163.87939453125
163.87939453125
164.794921875
172.119140625
170.2880859375
173.9501953125
181.2744140625
197.75390625
207.82470703125
203.2470703125
206.9091796875
203.2470703125
207.82470703125
219.7265625
215.14892578125
220.64208984375
220.64208984375
216.97998046875
224.30419921875
226.13525390625
237.12158203125
235.29052734375
235.29052734375
229.79736328125
217.8955078125
207.82470703125
203.2470703125
196.83837890625
185.85205078125
174.86572265625
163.87939453125
151.9775390625
145.56884765625
132.75146484375
122.6806640625
119.93408203125
111.6943359375
99.79248046875
85.14404296875
77.81982421875
65.91796875
37.53662109375
15.56396484375
13.73291015625
11.90185546875
5.4931640625
3.662109375
6.40869140625
-3.662109375
-10.07080078125
-15.56396484375
-29.296875
-46.69189453125
-60.4248046875
-68.66455078125
-59.50927734375
-52.18505859375
-57.67822265625
-62.255859375
-59.50927734375
-61.34033203125
-63.17138671875
-61.34033203125
-76.904296875
-94.29931640625
-83.31298828125
-75.0732421875
-75.0732421875
-75.0732421875
-79.65087890625
-84.228515625
-90.63720703125
-91.552734375
-82.3974609375
-81.48193359375
-89.7216796875
-81.48193359375
-82.3974609375
-83.31298828125
-83.31298828125
-85.14404296875
-79.65087890625
-85.14404296875
-87.890625
-81.48193359375
-76.904296875
-81.48193359375
-103.45458984375
-111.6943359375
-103.45458984375
-97.96142578125
-93.3837890625
-87.890625
-86.97509765625
-91.552734375
-83.31298828125
-74.15771484375
-83.31298828125
-95.21484375
-100.7080078125
-108.0322265625
-108.94775390625
-104.3701171875
-90.63720703125
-87.890625
-91.552734375
-97.96142578125
-104.3701171875
-100.7080078125
-96.13037109375
-90.63720703125
-93.3837890625
-99.79248046875
-97.0458984375
-96.13037109375
-103.45458984375
-115.3564453125
-124.51171875
-125.42724609375
-115.3564453125
-113.525390625
-105.28564453125
-101.62353515625
-108.0322265625
-112.60986328125
-113.525390625
-113.525390625
-114.44091796875
-115.3564453125
-122.6806640625
-117.1875
-118.10302734375
-112.60986328125
-109.86328125
-115.3564453125
-130.0048828125
-138.24462890625
-125.42724609375
-117.1875
-115.3564453125
-119.93408203125
-122.6806640625
-134.58251953125
-136.41357421875
-131.8359375
-122.6806640625
-114.44091796875
-109.86328125
-111.6943359375
-119.93408203125
-125.42724609375
-130.0048828125
-136.41357421875
-134.58251953125
-122.6806640625
-116.27197265625
-111.6943359375
-126.3427734375
-136.41357421875
-132.75146484375
-129.08935546875
-118.10302734375
-120.849609375
-119.93408203125
-114.44091796875
-118.10302734375
-117.1875
-122.6806640625
-140.9912109375
-135.498046875
-121.76513671875
-120.849609375
-123.59619140625
-122.6806640625
-124.51171875
-122.6806640625
-125.42724609375
-130.92041015625
-132.75146484375
-120.849609375
-121.76513671875
-122.6806640625
-126.3427734375
-130.0048828125
-118.10302734375
-121.76513671875
-122.6806640625
-121.76513671875
-124.51171875
-138.24462890625
-143.73779296875
-139.16015625
-138.24462890625
-134.58251953125
-124.51171875
-120.849609375
-119.0185546875
-123.59619140625
-126.3427734375
-126.3427734375
-125.42724609375
-119.93408203125
-117.1875
-126.3427734375
-131.8359375
-123.59619140625
-119.93408203125
-119.93408203125
-126.3427734375
-136.41357421875
-143.73779296875
-132.75146484375
-120.849609375
-122.6806640625
-125.42724609375
-122.6806640625
-123.59619140625
-113.525390625
-117.1875
-126.3427734375
-121.76513671875
-120.849609375
-120.849609375
-115.3564453125
-116.27197265625
-119.93408203125
-108.0322265625
-88.80615234375
-88.80615234375
-86.0595703125
-82.3974609375
-84.228515625
-79.65087890625
-85.14404296875
-79.65087890625
-75.98876953125
-68.66455078125
-70.49560546875
-65.91796875
-68.66455078125
-77.81982421875
-96.13037109375
-106.201171875
-100.7080078125
-90.63720703125
-83.31298828125
-74.15771484375
-68.66455078125
-54.931640625
-56.7626953125
-62.255859375
-67.7490234375
-62.255859375
-51.26953125
-43.02978515625
-36.62109375
-37.53662109375
-46.69189453125
-50.35400390625
-55.84716796875
-65.00244140625
-91.552734375
-108.0322265625
-115.3564453125
-114.44091796875
-118.10302734375
-130.92041015625
-130.0048828125
-127.25830078125
-126.3427734375
-128.173828125
-132.75146484375
-131.8359375
-132.75146484375
-131.8359375
-128.173828125
-125.42724609375
-130.0048828125
-134.58251953125
-133.6669921875
-127.25830078125
-129.08935546875
-130.0048828125
-130.92041015625
-130.0048828125
-124.51171875
-119.93408203125
-124.51171875
-136.41357421875
-146.484375
-145.56884765625
-143.73779296875
-158.38623046875
-162.04833984375
-161.1328125
-156.55517578125
-151.06201171875
-141.90673828125
-133.6669921875
-112.60986328125
-47.607421875
57.67822265625
213.31787109375
392.76123046875
559.38720703125
714.111328125
879.82177734375
1012.5732421875
1046.44775390625
1015.31982421875
905.45654296875
736.083984375
502.62451171875
231.62841796875
-8.23974609375
-207.82470703125
-361.63330078125
-436.70654296875
-417.48046875
-383.60595703125
-335.0830078125
-304.87060546875
-281.982421875
-268.24951171875
-261.8408203125
-236.2060546875
-208.740234375
-186.767578125
-162.04833984375
-149.23095703125
-128.173828125
-108.94775390625
-97.0458984375
-98.876953125
-105.28564453125
-108.94775390625
-110.77880859375
-109.86328125
-99.79248046875
-98.876953125
-100.7080078125
-114.44091796875
-109.86328125
-99.79248046875
-94.29931640625
-93.3837890625
-97.0458984375
-96.13037109375
-86.97509765625
-78.7353515625
-68.66455078125
-74.15771484375
-95.21484375
-86.0595703125
-74.15771484375
-68.66455078125
-69.580078125
-78.7353515625
-80.56640625
-74.15771484375
-75.98876953125
-65.91796875
-60.4248046875
-57.67822265625
-59.50927734375
-62.255859375
-58.59375
-65.00244140625
-67.7490234375
-66.83349609375
-59.50927734375
-53.1005859375
-52.18505859375
-54.01611328125
-50.35400390625
-54.931640625
-47.607421875
-43.02978515625
-34.7900390625
-32.04345703125
-34.7900390625
-34.7900390625
-35.70556640625
-27.4658203125
-21.97265625
-15.56396484375
-12.8173828125
-10.986328125
-17.39501953125
-26.55029296875
-29.296875
-27.4658203125
-26.55029296875
-16.4794921875
-0.91552734375
17.39501953125
14.6484375
3.662109375
10.986328125
21.05712890625
26.55029296875
32.958984375
26.55029296875
16.4794921875
21.97265625
27.4658203125
26.55029296875
18.310546875
31.1279296875
50.35400390625
63.17138671875
56.7626953125
60.4248046875
72.32666015625
75.0732421875
72.32666015625
82.3974609375
93.3837890625
95.21484375
97.96142578125
102.5390625
110.77880859375
113.525390625
119.0185546875
122.6806640625
124.51171875
128.173828125
138.24462890625
144.6533203125
146.484375
147.39990234375
155.6396484375
161.1328125
166.6259765625
171.20361328125
181.2744140625
179.443359375
181.2744140625
184.9365234375
182.18994140625
180.35888671875
180.35888671875
193.17626953125
206.9091796875
214.2333984375
222.47314453125
217.8955078125
219.7265625
217.8955078125
216.97998046875
205.078125
187.68310546875
183.10546875
181.2744140625
180.35888671875
180.35888671875
173.03466796875
162.9638671875
147.39990234375
134.58251953125
126.3427734375
113.525390625
96.13037109375
79.65087890625
66.83349609375
68.66455078125
57.67822265625
48.52294921875
35.70556640625
21.97265625
16.4794921875
5.4931640625
4.57763671875
-4.57763671875
-15.56396484375
-26.55029296875
-32.04345703125
-25.634765625
-24.71923828125
-35.70556640625
-43.02978515625
-55.84716796875
-65.91796875
-77.81982421875
-75.98876953125
-73.2421875
-79.65087890625
-83.31298828125
-72.32666015625
-65.91796875
-78.7353515625
-69.580078125
-70.49560546875
-72.32666015625
-76.904296875
-70.49560546875
-81.48193359375
-97.0458984375
-93.3837890625
-91.552734375
-93.3837890625
-81.48193359375
-75.0732421875
-82.3974609375
-84.228515625
-81.48193359375
-88.80615234375
-100.7080078125
-97.96142578125
-95.21484375
-100.7080078125
-105.28564453125
-107.11669921875
-99.79248046875
-90.63720703125
-96.13037109375
-93.3837890625
-90.63720703125
-82.3974609375
-91.552734375
-93.3837890625
-89.7216796875
-93.3837890625
-96.13037109375
-93.3837890625
-97.0458984375
-94.29931640625
-97.96142578125
-97.96142578125
-96.13037109375
-100.7080078125
-98.876953125
-97.96142578125
-108.0322265625
-108.0322265625
-102.5390625
-97.0458984375
-105.28564453125
-117.1875
-117.1875
-112.60986328125
-113.525390625
-107.11669921875
-108.94775390625
-114.44091796875
-113.525390625
-114.44091796875
-111.6943359375
-103.45458984375
-99.79248046875
-106.201171875
-108.0322265625
-114.44091796875
-125.42724609375
-126.3427734375
-130.0048828125
-121.76513671875
-117.1875
-109.86328125
-115.3564453125
-119.0185546875
-122.6806640625
-120.849609375
-119.93408203125
-116.27197265625
-114.44091796875
-112.60986328125
-119.93408203125
-120.849609375
-128.173828125
-125.42724609375
-119.93408203125
-120.849609375
-126.3427734375
-126.3427734375
-130.0048828125
-122.6806640625
-127.25830078125
-132.75146484375
-129.08935546875
-133.6669921875
-139.16015625
-136.41357421875
-126.3427734375
-123.59619140625
-125.42724609375
-119.93408203125
-117.1875
-125.42724609375
-136.41357421875
-138.24462890625
-136.41357421875
-125.42724609375
-108.94775390625
-100.7080078125
-113.525390625
-138.24462890625
-150.146484375
-155.6396484375
-148.3154296875
-135.498046875
-125.42724609375
-124.51171875
-130.0048828125
-129.08935546875
-124.51171875
-122.6806640625
-130.0048828125
-136.41357421875
-133.6669921875
-130.0048828125
-124.51171875
-128.173828125
-133.6669921875
-128.173828125
-126.3427734375
-122.6806640625
-130.0048828125
-133.6669921875
-132.75146484375
-128.173828125
-129.08935546875
-129.08935546875
-124.51171875
-128.173828125
-132.75146484375
-133.6669921875
-140.9912109375
-133.6669921875
-133.6669921875
-128.173828125
-124.51171875
-134.58251953125
-138.24462890625
-136.41357421875
-133.6669921875
-131.8359375
-129.08935546875
-117.1875
-117.1875
-117.1875
-113.525390625
-119.93408203125
-120.849609375
-116.27197265625
-125.42724609375
-123.59619140625
-108.94775390625
-84.228515625
-79.65087890625
-80.56640625
-71.4111328125
-79.65087890625
-78.7353515625
-72.32666015625
-71.4111328125
-74.15771484375
-78.7353515625
-81.48193359375
-94.29931640625
-103.45458984375
-93.3837890625
-78.7353515625
-71.4111328125
-70.49560546875
-65.91796875
-62.255859375
-56.7626953125
-55.84716796875
-63.17138671875
-75.0732421875
-79.65087890625
-78.7353515625
-60.4248046875
-47.607421875
-32.958984375
-40.283203125
-52.18505859375
-54.01611328125
-47.607421875
-57.67822265625
-72.32666015625
-99.79248046875
-135.498046875
-144.6533203125
-139.16015625
-125.42724609375
-120.849609375
-116.27197265625
-119.93408203125
-137.3291015625
-153.80859375
-157.470703125
-140.07568359375
-126.3427734375
-125.42724609375
-126.3427734375
-130.92041015625
-132.75146484375
-130.92041015625
-132.75146484375
-134.58251953125
-127.25830078125
-127.25830078125
-129.08935546875
-130.92041015625
-136.41357421875
-133.6669921875
-130.0048828125
-126.3427734375
-131.8359375
-148.3154296875
-166.6259765625
-175.78125
-182.18994140625
-166.6259765625
-160.21728515625
-157.470703125
-136.41357421875
-83.31298828125
5.4931640625
135.498046875
296.630859375
458.67919921875
628.96728515625
791.015625
961.3037109375
1040.95458984375
1042.78564453125
959.47265625
794.677734375
577.69775390625
303.03955078125
30.21240234375
-170.2880859375
-330.50537109375
-421.142578125
-428.466796875
-390.0146484375
-346.0693359375
-323.18115234375
-307.6171875
-298.4619140625
-283.8134765625
-252.685546875
-218.81103515625
-194.091796875
-165.71044921875
-132.75146484375
-121.76513671875
-106.201171875
-108.94775390625
-108.0322265625
-103.45458984375
-103.45458984375
-111.6943359375
-110.77880859375
-112.60986328125
-108.94775390625
-107.11669921875
-103.45458984375
-104.3701171875
-97.96142578125
-99.79248046875
-107.11669921875
-94.29931640625
-93.3837890625
-90.63720703125
-89.7216796875
-90.63720703125
-85.14404296875
-88.80615234375
-86.0595703125
-78.7353515625
-74.15771484375
-76.904296875
-68.66455078125
-67.7490234375
-78.7353515625
-74.15771484375
-75.98876953125
-72.32666015625
-75.0732421875
-77.81982421875
-68.66455078125
-75.0732421875
-72.32666015625
-62.255859375
-54.01611328125
-58.59375
-58.59375
-56.7626953125
-51.26953125
-45.7763671875
-49.4384765625
-51.26953125
-53.1005859375
-41.19873046875
-39.36767578125
-32.958984375
-31.1279296875
-29.296875
-46.69189453125
-53.1005859375
-43.02978515625
-30.21240234375
-24.71923828125
-14.6484375
-11.90185546875
-7.32421875
-8.23974609375
-12.8173828125
-9.1552734375
0
-0.91552734375
3.662109375
4.57763671875
0.91552734375
3.662109375
13.73291015625
19.22607421875
6.40869140625
11.90185546875
12.8173828125
27.4658203125
36.62109375
34.7900390625
28.38134765625
17.39501953125
35.70556640625
47.607421875
58.59375
71.4111328125
75.0732421875
80.56640625
78.7353515625
69.580078125
57.67822265625
64.0869140625
86.97509765625
100.7080078125
104.3701171875
109.86328125
118.10302734375
124.51171875
134.58251953125
138.24462890625
140.07568359375
144.6533203125
148.3154296875
154.72412109375
153.80859375
156.55517578125
169.37255859375
165.71044921875
162.9638671875
167.54150390625
181.2744140625
183.10546875
184.9365234375
194.091796875
195.00732421875
199.5849609375
209.65576171875
216.064453125
210.5712890625
200.50048828125
177.6123046875
169.37255859375
178.52783203125
180.35888671875
179.443359375
184.02099609375
182.18994140625
166.6259765625
151.06201171875
145.56884765625
136.41357421875
130.92041015625
124.51171875
110.77880859375
95.21484375
83.31298828125
73.2421875
59.50927734375
54.01611328125
51.26953125
42.1142578125
32.958984375
22.88818359375
0
-16.4794921875
-26.55029296875
-32.04345703125
-36.62109375
-42.1142578125
-45.7763671875
-54.931640625
-61.34033203125
-58.59375
-63.17138671875
-65.00244140625
-61.34033203125
-56.7626953125
-67.7490234375
-67.7490234375
-84.228515625
-106.201171875
-98.876953125
-91.552734375
-89.7216796875
-85.14404296875
-81.48193359375
-82.3974609375
-98.876953125
-106.201171875
-105.28564453125
-94.29931640625
-90.63720703125
-96.13037109375
-97.0458984375
-100.7080078125
-99.79248046875
-88.80615234375
-94.29931640625
-94.29931640625
-91.552734375
-97.96142578125
-97.96142578125
-103.45458984375
-108.0322265625
-106.201171875
-111.6943359375
-101.62353515625
-105.28564453125
-102.5390625
-97.96142578125
-100.7080078125
-103.45458984375
-105.28564453125
-113.525390625
-108.94775390625
-110.77880859375
-117.1875
-119.93408203125
-108.94775390625
-114.44091796875
-116.27197265625
-117.1875
-114.44091796875
-111.6943359375
-119.93408203125
-118.10302734375
-119.93408203125
-121.76513671875
-120.849609375
-123.59619140625
-120.849609375
-119.0185546875
-122.6806640625
-122.6806640625
-119.93408203125
-122.6806640625
-121.76513671875
-126.3427734375
-128.173828125
-130.92041015625
-130.0048828125
-126.3427734375
-124.51171875
-130.92041015625
-139.16015625
-140.9912109375
-140.07568359375
-135.498046875
-127.25830078125
-129.08935546875
-129.08935546875
-120.849609375
-128.173828125
-145.56884765625
-146.484375
-150.146484375
-156.55517578125
-148.3154296875
-139.16015625
-133.6669921875
-137.3291015625
-135.498046875
-131.8359375
-134.58251953125
-135.498046875
-137.3291015625
-147.39990234375
-147.39990234375
-133.6669921875
-124.51171875
-125.42724609375
-130.0048828125
-143.73779296875
-160.21728515625
-173.9501953125
-162.04833984375
-150.146484375
-147.39990234375
-140.07568359375
-133.6669921875
-142.822265625
-141.90673828125
-137.3291015625
-140.9912109375
-151.9775390625
-147.39990234375
-142.822265625
-143.73779296875
-139.16015625
-143.73779296875
-146.484375
-140.07568359375
-143.73779296875
-146.484375
-153.80859375
-151.06201171875
-144.6533203125
-141.90673828125
-135.498046875
-136.41357421875
-139.16015625
-155.6396484375
-177.6123046875
-183.10546875
-164.794921875
-139.16015625
-140.9912109375
-144.6533203125
-148.3154296875
-155.6396484375
-156.55517578125
-140.9912109375
-146.484375
-147.39990234375
-139.16015625
-140.07568359375
-139.16015625
-135.498046875
-129.08935546875
-128.173828125
-129.08935546875
-130.92041015625
-139.16015625
-133.6669921875
-129.08935546875
-121.76513671875
-108.94775390625
-99.79248046875
-100.7080078125
-104.3701171875
-110.77880859375
-111.6943359375
-112.60986328125
-113.525390625
-93.3837890625
-93.3837890625
-97.0458984375
-99.79248046875
-89.7216796875
-91.552734375
-103.45458984375
-104.3701171875
-88.80615234375
-75.0732421875
-71.4111328125
-71.4111328125
-75.98876953125
-81.48193359375
-81.48193359375
-65.91796875
-57.67822265625
-54.01611328125
-64.0869140625
-97.0458984375
-117.1875
-110.77880859375
-99.79248046875
-98.876953125
-112.60986328125
-127.25830078125
-136.41357421875
-149.23095703125
-148.3154296875
-153.80859375
-144.6533203125
-142.822265625
-138.24462890625
-143.73779296875
-153.80859375
-152.89306640625
-155.6396484375
-151.9775390625
-157.470703125
-157.470703125
-151.06201171875
-156.55517578125
-155.6396484375
-151.06201171875
-140.07568359375
-143.73779296875
-145.56884765625
-152.89306640625
-150.146484375
-144.6533203125
-145.56884765625
-149.23095703125
-158.38623046875
-165.71044921875
-163.87939453125
-180.35888671875
-201.416015625
-199.5849609375
-187.68310546875
-193.17626953125
-191.34521484375
-151.9775390625
-100.7080078125
-26.55029296875
98.876953125
243.5302734375
410.15625
570.37353515625
705.87158203125
853.271484375
928.3447265625
892.63916015625
782.77587890625
616.14990234375
415.6494140625
156.55517578125
-93.3837890625
-291.1376953125
-431.21337890625
-496.2158203125
-473.32763671875
-447.69287109375
-404.6630859375
-342.4072265625
-301.20849609375
-292.05322265625
-282.89794921875
-292.05322265625
-303.03955078125
-299.37744140625
-276.4892578125
-244.44580078125
-215.14892578125
-173.9501953125
-151.9775390625
-140.07568359375
-134.58251953125
-131.8359375
-126.3427734375
-124.51171875
-132.75146484375
-128.173828125
-130.0048828125
-126.3427734375
-126.3427734375
-132.75146484375
-130.92041015625
-128.173828125
-120.849609375
-112.60986328125
-102.5390625
-107.11669921875
-109.86328125
-119.93408203125
-122.6806640625
-121.76513671875
-106.201171875
-97.0458984375
-93.3837890625
-86.0595703125
-88.80615234375
-85.14404296875
-92.46826171875
-96.13037109375
-92.46826171875
-87.890625
-86.97509765625
-82.3974609375
-79.65087890625
-76.904296875
-72.32666015625
-65.00244140625
-70.49560546875
-73.2421875
-71.4111328125
-70.49560546875
-66.83349609375
-57.67822265625
-53.1005859375
-46.69189453125
-57.67822265625
-64.0869140625
-62.255859375
-52.18505859375
-43.9453125
-40.283203125
-36.62109375
-42.1142578125
-47.607421875
-35.70556640625
-33.87451171875
-28.38134765625
-25.634765625
-18.310546875
-21.97265625
-15.56396484375
-10.07080078125
-13.73291015625
-13.73291015625
-7.32421875
-3.662109375
-6.40869140625
-6.40869140625
0
2.74658203125
11.90185546875
19.22607421875
14.6484375
29.296875
32.04345703125
41.19873046875
49.4384765625
54.01611328125
55.84716796875
52.18505859375
54.01611328125
61.34033203125
68.66455078125
77.81982421875
84.228515625
90.63720703125
97.96142578125
93.3837890625
96.13037109375
108.94775390625
119.93408203125
119.93408203125
124.51171875
135.498046875
144.6533203125
148.3154296875
156.55517578125
154.72412109375
152.89306640625
153.80859375
168.45703125
179.443359375
194.091796875
195.9228515625
198.66943359375
205.078125
206.9091796875
199.5849609375
195.9228515625
211.48681640625
219.7265625
232.5439453125
229.79736328125
229.79736328125
220.64208984375
216.97998046875
222.47314453125
222.47314453125
205.99365234375
197.75390625
199.5849609375
200.50048828125
184.02099609375
174.86572265625
153.80859375
128.173828125
115.3564453125
106.201171875
99.79248046875
95.21484375
86.0595703125
62.255859375
50.35400390625
47.607421875
36.62109375
30.21240234375
18.310546875
2.74658203125
-9.1552734375
-14.6484375
-20.1416015625
-23.8037109375
-37.53662109375
-48.52294921875
-52.18505859375
-58.59375
-63.17138671875
-66.83349609375
-72.32666015625
-75.0732421875
-72.32666015625
-68.66455078125
-75.98876953125
-91.552734375
-102.5390625
-98.876953125
-93.3837890625
-91.552734375
-103.45458984375
-113.525390625
-120.849609375
-114.44091796875
-106.201171875
-113.525390625
-105.28564453125
-101.62353515625
-101.62353515625
-109.86328125
