ECG
236.2060546875
244.44580078125
256.34765625
259.09423828125
263.671875
265.5029296875
267.333984375
283.8134765625
296.630859375
289.306640625
298.4619140625
325.927734375
352.47802734375
356.14013671875
350.64697265625
343.32275390625
354.30908203125
364.3798828125
367.12646484375
371.7041015625
368.0419921875
358.88671875
357.0556640625
367.12646484375
374.45068359375
357.0556640625
357.0556640625
357.97119140625
345.15380859375
338.7451171875
308.53271484375
300.29296875
290.22216796875
275.57373046875
263.671875
253.60107421875
235.29052734375
214.2333984375
201.416015625
194.091796875
172.119140625
146.484375
119.0185546875
104.3701171875
94.29931640625
92.46826171875
97.96142578125
88.80615234375
65.91796875
51.26953125
48.52294921875
43.9453125
48.52294921875
30.21240234375
15.56396484375
21.97265625
11.90185546875
13.73291015625
16.4794921875
9.1552734375
2.74658203125
-7.32421875
-3.662109375
-5.4931640625
-6.40869140625
-14.6484375
-21.97265625
-29.296875
-33.87451171875
-34.7900390625
-27.4658203125
-29.296875
-25.634765625
-24.71923828125
-11.90185546875
-10.986328125
-30.21240234375
-21.97265625
-35.70556640625
-38.4521484375
-33.87451171875
-21.97265625
-12.8173828125
-24.71923828125
-39.36767578125
-38.4521484375
-27.4658203125
-24.71923828125
-19.22607421875
-22.88818359375
-21.05712890625
-28.38134765625
-24.71923828125
-21.05712890625
-13.73291015625
-22.88818359375
-31.1279296875
-21.97265625
-11.90185546875
-23.8037109375
-25.634765625
-1.8310546875
-13.73291015625
-16.4794921875
-14.6484375
-10.986328125
-10.07080078125
-17.39501953125
-26.55029296875
-26.55029296875
-12.8173828125
-0.91552734375
-7.32421875
-10.07080078125
-10.986328125
-3.662109375
-5.4931640625
-5.4931640625
-9.1552734375
-11.90185546875
-9.1552734375
-7.32421875
-7.32421875
-17.39501953125
-21.97265625
-23.8037109375
-13.73291015625
-7.32421875
-19.22607421875
-17.39501953125
-18.310546875
-10.07080078125
-4.57763671875
-7.32421875
-19.22607421875
-22.88818359375
-19.22607421875
-24.71923828125
-22.88818359375
-15.56396484375
-10.986328125
-10.07080078125
-21.97265625
-21.05712890625
-30.21240234375
-32.04345703125
-30.21240234375
-14.6484375
-3.662109375
-2.74658203125
-5.4931640625
-23.8037109375
-32.958984375
-31.1279296875
-29.296875
-31.1279296875
-24.71923828125
-16.4794921875
-15.56396484375
-28.38134765625
-34.7900390625
-24.71923828125
-7.32421875
-12.8173828125
-22.88818359375
-30.21240234375
-30.21240234375
-29.296875
-30.21240234375
-27.4658203125
-30.21240234375
-22.88818359375
-20.1416015625
-15.56396484375
-20.1416015625
-21.97265625
-19.22607421875
-21.05712890625
-28.38134765625
-16.4794921875
-29.296875
-31.1279296875
-14.6484375
-23.8037109375
-26.55029296875
-29.296875
-36.62109375
-43.9453125
-47.607421875
-48.52294921875
-44.86083984375
-40.283203125
-43.9453125
-45.7763671875
-41.19873046875
-27.4658203125
-26.55029296875
-13.73291015625
-19.22607421875
-21.97265625
-20.1416015625
-15.56396484375
-26.55029296875
-35.70556640625
-27.4658203125
-7.32421875
-31.1279296875
-47.607421875
-45.7763671875
-39.36767578125
-27.4658203125
-35.70556640625
-42.1142578125
-33.87451171875
-35.70556640625
-37.53662109375
-43.9453125
-51.26953125
-34.7900390625
-38.4521484375
-27.4658203125
-25.634765625
-36.62109375
-48.52294921875
-43.02978515625
-43.02978515625
-42.1142578125
-31.1279296875
-33.87451171875
-22.88818359375
-21.97265625
-34.7900390625
-33.87451171875
-36.62109375
-36.62109375
-33.87451171875
-29.296875
-31.1279296875
-30.21240234375
-23.8037109375
-32.04345703125
-19.22607421875
-11.90185546875
-30.21240234375
-32.04345703125
-36.62109375
-38.4521484375
-27.4658203125
-31.1279296875
-32.04345703125
-29.296875
-23.8037109375
-11.90185546875
-9.1552734375
-3.662109375
-15.56396484375
-9.1552734375
2.74658203125
-1.8310546875
4.57763671875
10.07080078125
-3.662109375
-21.05712890625
-14.6484375
-20.1416015625
-7.32421875
6.40869140625
20.1416015625
28.38134765625
32.958984375
34.7900390625
30.21240234375
15.56396484375
31.1279296875
22.88818359375
26.55029296875
23.8037109375
31.1279296875
32.04345703125
34.7900390625
27.4658203125
15.56396484375
8.23974609375
5.4931640625
10.07080078125
8.23974609375
-0.91552734375
-2.74658203125
1.8310546875
-6.40869140625
-1.8310546875
-6.40869140625
-12.8173828125
-8.23974609375
-15.56396484375
-26.55029296875
-25.634765625
-21.05712890625
-13.73291015625
-11.90185546875
-24.71923828125
-30.21240234375
-22.88818359375
-25.634765625
-34.7900390625
-27.4658203125
-30.21240234375
-32.958984375
-33.87451171875
-29.296875
-27.4658203125
-34.7900390625
-35.70556640625
-32.04345703125
-46.69189453125
-43.02978515625
-30.21240234375
-28.38134765625
-36.62109375
-42.1142578125
-41.19873046875
-41.19873046875
-23.8037109375
-22.88818359375
-21.97265625
-16.4794921875
-25.634765625
-27.4658203125
-30.21240234375
-32.04345703125
-44.86083984375
-35.70556640625
-38.4521484375
-36.62109375
-37.53662109375
-41.19873046875
-46.69189453125
-47.607421875
-44.86083984375
-36.62109375
-15.56396484375
-10.07080078125
-0.91552734375
43.9453125
86.0595703125
146.484375
240.78369140625
350.64697265625
476.07421875
615.234375
747.98583984375
848.69384765625
887.14599609375
890.80810546875
831.298828125
693.9697265625
542.90771484375
415.6494140625
305.7861328125
193.17626953125
97.96142578125
31.1279296875
-18.310546875
-60.4248046875
-68.66455078125
-74.15771484375
-90.63720703125
-102.5390625
-120.849609375
-133.6669921875
-138.24462890625
-128.173828125
-130.92041015625
-127.25830078125
-119.0185546875
-108.0322265625
-91.552734375
-75.98876953125
-75.98876953125
-59.50927734375
-38.4521484375
-27.4658203125
-9.1552734375
0.91552734375
23.8037109375
29.296875
27.4658203125
21.97265625
23.8037109375
27.4658203125
42.1142578125
39.36767578125
43.02978515625
40.283203125
44.86083984375
46.69189453125
43.02978515625
51.26953125
52.18505859375
46.69189453125
42.1142578125
51.26953125
60.4248046875
74.15771484375
66.83349609375
59.50927734375
59.50927734375
55.84716796875
44.86083984375
45.7763671875
54.01611328125
61.34033203125
58.59375
53.1005859375
48.52294921875
47.607421875
60.4248046875
71.4111328125
66.83349609375
72.32666015625
66.83349609375
60.4248046875
57.67822265625
62.255859375
72.32666015625
73.2421875
68.66455078125
78.7353515625
87.890625
83.31298828125
84.228515625
84.228515625
86.0595703125
103.45458984375
96.13037109375
91.552734375
92.46826171875
110.77880859375
117.1875
106.201171875
115.3564453125
110.77880859375
109.86328125
99.79248046875
99.79248046875
99.79248046875
114.44091796875
119.93408203125
115.3564453125
120.849609375
130.92041015625
130.92041015625
140.07568359375
150.146484375
151.9775390625
156.55517578125
164.794921875
167.54150390625
158.38623046875
143.73779296875
143.73779296875
151.9775390625
161.1328125
171.20361328125
190.4296875
199.5849609375
199.5849609375
227.05078125
227.96630859375
221.5576171875
227.05078125
229.79736328125
241.69921875
242.61474609375
247.1923828125
258.1787109375
259.09423828125
263.671875
276.4892578125
286.56005859375
301.20849609375
309.4482421875
314.94140625
322.265625
327.7587890625
350.64697265625
339.66064453125
336.9140625
351.5625
358.88671875
371.7041015625
376.28173828125
381.77490234375
375.3662109375
364.3798828125
357.97119140625
355.224609375
349.7314453125
352.47802734375
363.46435546875
361.63330078125
346.0693359375
325.01220703125
303.955078125
295.71533203125
277.40478515625
258.1787109375
247.1923828125
237.12158203125
218.81103515625
195.9228515625
194.091796875
188.5986328125
171.20361328125
149.23095703125
141.90673828125
118.10302734375
100.7080078125
89.7216796875
79.65087890625
59.50927734375
48.52294921875
42.1142578125
32.958984375
29.296875
29.296875
21.05712890625
8.23974609375
6.40869140625
0
-2.74658203125
-3.662109375
0
-7.32421875
-21.05712890625
-20.1416015625
-21.97265625
-21.97265625
-15.56396484375
-8.23974609375
-7.32421875
-20.1416015625
-24.71923828125
-19.22607421875
-20.1416015625
-19.22607421875
-23.8037109375
-29.296875
-30.21240234375
-22.88818359375
-31.1279296875
-16.4794921875
-6.40869140625
-9.1552734375
-11.90185546875
-15.56396484375
-19.22607421875
-25.634765625
-32.958984375
-23.8037109375
-27.4658203125
-30.21240234375
-30.21240234375
-5.4931640625
-13.73291015625
-10.986328125
-34.7900390625
-44.86083984375
-30.21240234375
-26.55029296875
-30.21240234375
-28.38134765625
-23.8037109375
-20.1416015625
-18.310546875
-20.1416015625
-32.958984375
-16.4794921875
-15.56396484375
-25.634765625
-25.634765625
-32.958984375
-37.53662109375
-44.86083984375
-19.22607421875
-10.07080078125
-17.39501953125
-9.1552734375
-7.32421875
-12.8173828125
-21.05712890625
-21.97265625
-33.87451171875
-25.634765625
-21.97265625
-17.39501953125
-8.23974609375
-14.6484375
-23.8037109375
-28.38134765625
-21.05712890625
-8.23974609375
-8.23974609375
-2.74658203125
-10.07080078125
-11.90185546875
-10.986328125
-21.05712890625
-18.310546875
-18.310546875
-19.22607421875
-23.8037109375
-27.4658203125
-21.97265625
-19.22607421875
-14.6484375
-22.88818359375
-27.4658203125
-34.7900390625
-28.38134765625
-32.958984375
-32.958984375
-37.53662109375
-38.4521484375
-32.958984375
-38.4521484375
-42.1142578125
-43.02978515625
-40.283203125
-27.4658203125
-22.88818359375
-32.958984375
-32.958984375
-36.62109375
-29.296875
-32.958984375
-34.7900390625
-33.87451171875
-39.36767578125
-37.53662109375
-27.4658203125
-26.55029296875
-35.70556640625
-37.53662109375
-41.19873046875
-35.70556640625
-24.71923828125
-33.87451171875
-42.1142578125
-28.38134765625
-32.04345703125
-37.53662109375
-36.62109375
-41.19873046875
-43.9453125
-39.36767578125
-28.38134765625
-36.62109375
-43.02978515625
-47.607421875
-45.7763671875
-40.283203125
-32.04345703125
-42.1142578125
-53.1005859375
-46.69189453125
-49.4384765625
-50.35400390625
-47.607421875
-55.84716796875
-54.01611328125
-51.26953125
-43.02978515625
-41.19873046875
-46.69189453125
-38.4521484375
-32.04345703125
-41.19873046875
-39.36767578125
-45.7763671875
-47.607421875
-45.7763671875
-48.52294921875
-40.283203125
-32.958984375
-33.87451171875
-43.02978515625
-28.38134765625
-39.36767578125
-46.69189453125
-48.52294921875
-43.9453125
-48.52294921875
-46.69189453125
-32.04345703125
-25.634765625
-33.87451171875
-28.38134765625
-39.36767578125
-47.607421875
-51.26953125
-51.26953125
-37.53662109375
-42.1142578125
-48.52294921875
-51.26953125
-38.4521484375
-32.958984375
-30.21240234375
-47.607421875
-47.607421875
-54.931640625
-47.607421875
-43.9453125
-41.19873046875
-40.283203125
-29.296875
-26.55029296875
-41.19873046875
-50.35400390625
-54.931640625
-47.607421875
-46.69189453125
-41.19873046875
-41.19873046875
-42.1142578125
-45.7763671875
-53.1005859375
-42.1142578125
-40.283203125
-54.01611328125
-50.35400390625
-48.52294921875
-49.4384765625
-50.35400390625
-46.69189453125
-38.4521484375
-35.70556640625
-33.87451171875
-36.62109375
-46.69189453125
-52.18505859375
-49.4384765625
-42.1142578125
-32.958984375
-33.87451171875
-32.04345703125
-28.38134765625
-15.56396484375
-21.05712890625
-10.07080078125
9.1552734375
9.1552734375
0
-7.32421875
-7.32421875
-20.1416015625
-24.71923828125
-20.1416015625
-21.97265625
-12.8173828125
-4.57763671875
-8.23974609375
-1.8310546875
-0.91552734375
-6.40869140625
8.23974609375
9.1552734375
2.74658203125
8.23974609375
0.91552734375
14.6484375
33.87451171875
18.310546875
11.90185546875
10.07080078125
8.23974609375
7.32421875
18.310546875
15.56396484375
7.32421875
-2.74658203125
-0.91552734375
-10.986328125
-19.22607421875
-21.97265625
-32.04345703125
-37.53662109375
-25.634765625
-30.21240234375
-23.8037109375
-32.04345703125
-42.1142578125
-39.36767578125
-43.02978515625
-37.53662109375
-29.296875
-40.283203125
-40.283203125
-35.70556640625
-39.36767578125
-34.7900390625
-32.958984375
-42.1142578125
-26.55029296875
-37.53662109375
-48.52294921875
-45.7763671875
-38.4521484375
-42.1142578125
-42.1142578125
-48.52294921875
-43.02978515625
-39.36767578125
-41.19873046875
-54.931640625
-48.52294921875
-42.1142578125
-38.4521484375
-50.35400390625
-54.01611328125
-61.34033203125
-71.4111328125
-70.49560546875
-61.34033203125
-54.931640625
-55.84716796875
-53.1005859375
-56.7626953125
-59.50927734375
-55.84716796875
-60.4248046875
-54.01611328125
-54.01611328125
-69.580078125
-68.66455078125
-55.84716796875
-43.9453125
-47.607421875
-33.87451171875
-21.97265625
-0.91552734375
49.4384765625
109.86328125
197.75390625
311.279296875
434.87548828125
566.71142578125
689.39208984375
815.73486328125
877.0751953125
875.244140625
850.52490234375
745.2392578125
591.4306640625
457.763671875
353.3935546875
233.45947265625
108.0322265625
33.87451171875
-11.90185546875
-32.958984375
-41.19873046875
-68.66455078125
-96.13037109375
-93.3837890625
-102.5390625
-123.59619140625
-137.3291015625
-141.90673828125
-146.484375
-139.16015625
-140.9912109375
-131.8359375
-120.849609375
-111.6943359375
-94.29931640625
-59.50927734375
-43.9453125
-32.958984375
-19.22607421875
6.40869140625
0.91552734375
6.40869140625
2.74658203125
5.4931640625
18.310546875
32.958984375
19.22607421875
25.634765625
24.71923828125
32.04345703125
25.634765625
22.88818359375
28.38134765625
40.283203125
42.1142578125
32.04345703125
44.86083984375
55.84716796875
55.84716796875
46.69189453125
46.69189453125
48.52294921875
49.4384765625
43.02978515625
53.1005859375
58.59375
65.00244140625
49.4384765625
37.53662109375
39.36767578125
38.4521484375
43.02978515625
51.26953125
49.4384765625
45.7763671875
36.62109375
28.38134765625
40.283203125
62.255859375
63.17138671875
86.0595703125
84.228515625
87.890625
79.65087890625
70.49560546875
57.67822265625
59.50927734375
78.7353515625
65.00244140625
60.4248046875
79.65087890625
90.63720703125
93.3837890625
88.80615234375
91.552734375
86.97509765625
91.552734375
105.28564453125
104.3701171875
102.5390625
90.63720703125
94.29931640625
98.876953125
107.11669921875
135.498046875
142.822265625
140.9912109375
146.484375
146.484375
148.3154296875
148.3154296875
142.822265625
142.822265625
151.9775390625
150.146484375
144.6533203125
156.55517578125
158.38623046875
162.04833984375
172.119140625
179.443359375
195.00732421875
190.4296875
186.767578125
184.02099609375
191.34521484375
205.99365234375
219.7265625
225.2197265625
239.8681640625
242.61474609375
253.60107421875
260.009765625
271.91162109375
280.1513671875
281.982421875
304.87060546875
303.03955078125
300.29296875
303.03955078125
310.36376953125
312.19482421875
332.33642578125
350.64697265625
336.9140625
342.4072265625
357.0556640625
359.80224609375
359.80224609375
368.95751953125
366.2109375
375.3662109375
368.0419921875
364.3798828125
348.81591796875
359.80224609375
354.30908203125
334.16748046875
317.68798828125
308.53271484375
294.7998046875
290.22216796875
277.40478515625
261.8408203125
253.60107421875
229.79736328125
216.97998046875
209.65576171875
192.2607421875
177.6123046875
155.6396484375
136.41357421875
124.51171875
107.11669921875
86.97509765625
78.7353515625
97.96142578125
98.876953125
79.65087890625
58.59375
46.69189453125
51.26953125
31.1279296875
23.8037109375
18.310546875
10.986328125
19.22607421875
14.6484375
-2.74658203125
-7.32421875
-11.90185546875
-10.07080078125
-12.8173828125
-12.8173828125
-25.634765625
-15.56396484375
-23.8037109375
-32.958984375
-29.296875
-39.36767578125
-46.69189453125
-43.02978515625
-24.71923828125
-13.73291015625
-23.8037109375
-23.8037109375
-28.38134765625
-28.38134765625
-33.87451171875
-29.296875
-33.87451171875
-31.1279296875
-21.05712890625
-26.55029296875
-32.04345703125
-25.634765625
-30.21240234375
-36.62109375
-34.7900390625
-33.87451171875
-36.62109375
-28.38134765625
-17.39501953125
-28.38134765625
-29.296875
-14.6484375
11.90185546875
10.07080078125
-16.4794921875
-19.22607421875
-19.22607421875
-25.634765625
-30.21240234375
-30.21240234375
-29.296875
-21.97265625
-6.40869140625
-0.91552734375
-3.662109375
-8.23974609375
-10.07080078125
-13.73291015625
-31.1279296875
-35.70556640625
-20.1416015625
-10.07080078125
-6.40869140625
-2.74658203125
-20.1416015625
-32.04345703125
-19.22607421875
-18.310546875
-26.55029296875
-14.6484375
-16.4794921875
-21.05712890625
-11.90185546875
-12.8173828125
-17.39501953125
-11.90185546875
-6.40869140625
-7.32421875
3.662109375
-8.23974609375
-19.22607421875
-18.310546875
-34.7900390625
-26.55029296875
-4.57763671875
-16.4794921875
-16.4794921875
-8.23974609375
-11.90185546875
-10.986328125
-13.73291015625
-16.4794921875
-17.39501953125
-24.71923828125
-29.296875
-32.958984375
-24.71923828125
-10.986328125
-10.986328125
-24.71923828125
-23.8037109375
-18.310546875
-22.88818359375
-26.55029296875
-22.88818359375
-21.05712890625
-24.71923828125
-19.22607421875
-21.97265625
-28.38134765625
-25.634765625
-27.4658203125
-18.310546875
-24.71923828125
-42.1142578125
-43.02978515625
-53.1005859375
-55.84716796875
-54.931640625
-48.52294921875
-38.4521484375
-33.87451171875
-32.958984375
-26.55029296875
-15.56396484375
-20.1416015625
-37.53662109375
-43.02978515625
-48.52294921875
-48.52294921875
-57.67822265625
-49.4384765625
-31.1279296875
-14.6484375
-5.4931640625
-21.05712890625
-40.283203125
-43.02978515625
-37.53662109375
-32.04345703125
-28.38134765625
-12.8173828125
-15.56396484375
-31.1279296875
-38.4521484375
-36.62109375
-43.02978515625
-43.02978515625
-48.52294921875
-31.1279296875
-29.296875
-32.04345703125
-34.7900390625
-32.958984375
-33.87451171875
-28.38134765625
-39.36767578125
-43.02978515625
-44.86083984375
-54.01611328125
-40.283203125
-39.36767578125
-48.52294921875
-45.7763671875
-42.1142578125
-38.4521484375
-50.35400390625
-49.4384765625
-51.26953125
-50.35400390625
-31.1279296875
-18.310546875
-20.1416015625
-32.04345703125
-50.35400390625
-50.35400390625
-34.7900390625
-34.7900390625
-31.1279296875
-19.22607421875
-21.97265625
-23.8037109375
-41.19873046875
-44.86083984375
-42.1142578125
-42.1142578125
-41.19873046875
-42.1142578125
-40.283203125
-37.53662109375
-46.69189453125
-54.01611328125
-44.86083984375
-10.986328125
-26.55029296875
-37.53662109375
-45.7763671875
-48.52294921875
-56.7626953125
-51.26953125
-39.36767578125
-23.8037109375
-22.88818359375
-14.6484375
-13.73291015625
-31.1279296875
-23.8037109375
-34.7900390625
-45.7763671875
-39.36767578125
-26.55029296875
-27.4658203125
-21.05712890625
-12.8173828125
-17.39501953125
-18.310546875
-21.97265625
-25.634765625
-24.71923828125
-23.8037109375
-29.296875
-26.55029296875
-29.296875
-17.39501953125
-12.8173828125
-6.40869140625
0
-7.32421875
-10.07080078125
0
2.74658203125
-5.4931640625
-7.32421875
-1.8310546875
-5.4931640625
3.662109375
11.90185546875
21.05712890625
22.88818359375
16.4794921875
6.40869140625
17.39501953125
33.87451171875
41.19873046875
32.958984375
28.38134765625
25.634765625
35.70556640625
37.53662109375
33.87451171875
31.1279296875
14.6484375
4.57763671875
-5.4931640625
-16.4794921875
-10.07080078125
5.4931640625
10.986328125
4.57763671875
-12.8173828125
-20.1416015625
-20.1416015625
-18.310546875
-8.23974609375
-8.23974609375
-19.22607421875
-28.38134765625
-15.56396484375
-2.74658203125
-14.6484375
-27.4658203125
-31.1279296875
-25.634765625
-12.8173828125
-20.1416015625
-34.7900390625
-25.634765625
-28.38134765625
-21.05712890625
-12.8173828125
-27.4658203125
-27.4658203125
-23.8037109375
-22.88818359375
-17.39501953125
-33.87451171875
-32.958984375
-23.8037109375
-21.05712890625
-40.283203125
-48.52294921875
-36.62109375
-32.04345703125
-32.958984375
-20.1416015625
-10.986328125
-6.40869140625
-8.23974609375
-20.1416015625
-25.634765625
-28.38134765625
-29.296875
-25.634765625
-30.21240234375
-43.02978515625
-62.255859375
-57.67822265625
-38.4521484375
-15.56396484375
-1.8310546875
0.91552734375
11.90185546875
43.9453125
91.552734375
151.06201171875
239.8681640625
356.14013671875
490.72265625
606.0791015625
727.84423828125
831.298828125
863.34228515625
858.7646484375
819.39697265625
707.70263671875
536.4990234375
408.3251953125
303.955078125
189.51416015625
105.28564453125
43.02978515625
8.23974609375
11.90185546875
-5.4931640625
-26.55029296875
-26.55029296875
-36.62109375
-65.00244140625
-76.904296875
-100.7080078125
-102.5390625
-108.94775390625
-108.94775390625
-92.46826171875
-83.31298828125
-97.0458984375
-97.0458984375
-84.228515625
-69.580078125
-55.84716796875
-23.8037109375
-11.90185546875
-1.8310546875
16.4794921875
21.05712890625
28.38134765625
28.38134765625
29.296875
29.296875
43.02978515625
39.36767578125
33.87451171875
43.02978515625
59.50927734375
68.66455078125
57.67822265625
66.83349609375
61.34033203125
55.84716796875
67.7490234375
70.49560546875
54.01611328125
40.283203125
54.01611328125
54.931640625
59.50927734375
63.17138671875
69.580078125
74.15771484375
78.7353515625
70.49560546875
63.17138671875
70.49560546875
80.56640625
68.66455078125
59.50927734375
57.67822265625
66.83349609375
77.81982421875
84.228515625
83.31298828125
85.14404296875
72.32666015625
79.65087890625
86.97509765625
86.97509765625
67.7490234375
66.83349609375
74.15771484375
82.3974609375
93.3837890625
87.890625
89.7216796875
97.96142578125
103.45458984375
103.45458984375
98.876953125
91.552734375
96.13037109375
88.80615234375
109.86328125
119.93408203125
136.41357421875
136.41357421875
141.90673828125
139.16015625
128.173828125
130.0048828125
140.9912109375
151.9775390625
145.56884765625
147.39990234375
158.38623046875
166.6259765625
159.3017578125
163.87939453125
171.20361328125
170.2880859375
186.767578125
188.5986328125
187.68310546875
188.5986328125
191.34521484375
197.75390625
216.97998046875
218.81103515625
205.078125
207.82470703125
216.97998046875
213.31787109375
225.2197265625
219.7265625
235.29052734375
250.8544921875
273.74267578125
280.1513671875
271.91162109375
273.74267578125
273.74267578125
283.8134765625
307.6171875
329.58984375
334.16748046875
339.66064453125
340.576171875
325.01220703125
325.01220703125
324.0966796875
348.81591796875
376.28173828125
389.09912109375
396.42333984375
398.25439453125
382.6904296875
379.0283203125
381.77490234375
382.6904296875
377.197265625
374.45068359375
383.60595703125
372.61962890625
352.47802734375
346.98486328125
324.0966796875
304.87060546875
287.4755859375
275.57373046875
262.75634765625
251.77001953125
238.037109375
223.388671875
211.48681640625
184.9365234375
169.37255859375
166.6259765625
143.73779296875
132.75146484375
120.849609375
110.77880859375
98.876953125
99.79248046875
101.62353515625
81.48193359375
64.0869140625
50.35400390625
49.4384765625
38.4521484375
33.87451171875
21.97265625
21.97265625
13.73291015625
21.05712890625
26.55029296875
26.55029296875
18.310546875
8.23974609375
-6.40869140625
-19.22607421875
-15.56396484375
-17.39501953125
-2.74658203125
-0.91552734375
-3.662109375
-15.56396484375
-6.40869140625
-5.4931640625
-1.8310546875
1.8310546875
-2.74658203125
1.8310546875
-0.91552734375
-1.8310546875
-9.1552734375
-11.90185546875
0.91552734375
-0.91552734375
5.4931640625
4.57763671875
-1.8310546875
0
-8.23974609375
-7.32421875
-3.662109375
-10.07080078125
-9.1552734375
-9.1552734375
2.74658203125
11.90185546875
-3.662109375
7.32421875
-1.8310546875
-12.8173828125
-9.1552734375
-3.662109375
-6.40869140625
-8.23974609375
0
2.74658203125
-5.4931640625
-5.4931640625
-13.73291015625
-15.56396484375
-21.05712890625
-19.22607421875
-15.56396484375
-13.73291015625
1.8310546875
1.8310546875
4.57763671875
1.8310546875
4.57763671875
3.662109375
0.91552734375
9.1552734375
18.310546875
8.23974609375
3.662109375
8.23974609375
10.986328125
9.1552734375
6.40869140625
0.91552734375
0
-0.91552734375
-1.8310546875
-4.57763671875
10.986328125
14.6484375
8.23974609375
-0.91552734375
-0.91552734375
-12.8173828125
-6.40869140625
7.32421875
10.986328125
6.40869140625
8.23974609375
-5.4931640625
-7.32421875
-10.986328125
-19.22607421875
-19.22607421875
-25.634765625
-30.21240234375
-20.1416015625
-14.6484375
-10.07080078125
-9.1552734375
-8.23974609375
-7.32421875
-0.91552734375
-10.07080078125
-14.6484375
-17.39501953125
-20.1416015625
-21.05712890625
-19.22607421875
1.8310546875
3.662109375
-4.57763671875
-3.662109375
-1.8310546875
-12.8173828125
-18.310546875
-23.8037109375
-23.8037109375
-23.8037109375
-24.71923828125
-10.986328125
-4.57763671875
-18.310546875
-26.55029296875
-15.56396484375
-18.310546875
-19.22607421875
-29.296875
-29.296875
-18.310546875
-5.4931640625
-8.23974609375
-7.32421875
-10.986328125
-21.05712890625
-29.296875
-33.87451171875
-15.56396484375
-13.73291015625
-28.38134765625
-28.38134765625
-19.22607421875
-25.634765625
-21.97265625
-15.56396484375
-16.4794921875
-36.62109375
-43.02978515625
-20.1416015625
-21.05712890625
-18.310546875
-15.56396484375
-2.74658203125
-10.07080078125
-25.634765625
-32.958984375
-21.05712890625
-31.1279296875
-37.53662109375
-32.04345703125
-24.71923828125
-17.39501953125
-27.4658203125
-25.634765625
-37.53662109375
-32.958984375
-29.296875
-28.38134765625
-26.55029296875
-22.88818359375
-12.8173828125
-14.6484375
-21.97265625
-32.958984375
-32.04345703125
-40.283203125
-42.1142578125
-33.87451171875
-18.310546875
-3.662109375
-14.6484375
-20.1416015625
-21.05712890625
-13.73291015625
-19.22607421875
-27.4658203125
-23.8037109375
-27.4658203125
-34.7900390625
-35.70556640625
-28.38134765625
-21.97265625
-16.4794921875
-19.22607421875
-21.05712890625
-20.1416015625
-24.71923828125
-34.7900390625
-26.55029296875
-32.958984375
-25.634765625
-21.97265625
-28.38134765625
-21.05712890625
-13.73291015625
-20.1416015625
-22.88818359375
-21.97265625
-12.8173828125
-8.23974609375
-2.74658203125
-2.74658203125
-10.07080078125
-19.22607421875
-8.23974609375
4.57763671875
10.986328125
6.40869140625
0
5.4931640625
0
6.40869140625
9.1552734375
4.57763671875
3.662109375
8.23974609375
13.73291015625
10.986328125
6.40869140625
7.32421875
-5.4931640625
0
24.71923828125
37.53662109375
32.04345703125
25.634765625
21.05712890625
25.634765625
24.71923828125
32.958984375
45.7763671875
33.87451171875
33.87451171875
35.70556640625
39.36767578125
43.02978515625
29.296875
23.8037109375
31.1279296875
21.97265625
20.1416015625
15.56396484375
7.32421875
0.91552734375
17.39501953125
-1.8310546875
-17.39501953125
-15.56396484375
-11.90185546875
-8.23974609375
-2.74658203125
-2.74658203125
4.57763671875
-13.73291015625
-31.1279296875
-21.97265625
-25.634765625
-27.4658203125
-37.53662109375
-37.53662109375
-28.38134765625
-21.05712890625
-11.90185546875
-12.8173828125
-18.310546875
-37.53662109375
-42.1142578125
-32.04345703125
-19.22607421875
-7.32421875
-4.57763671875
-11.90185546875
-24.71923828125
-19.22607421875
-16.4794921875
-13.73291015625
-17.39501953125
-21.05712890625
-20.1416015625
-15.56396484375
-15.56396484375
-12.8173828125
-17.39501953125
-16.4794921875
-5.4931640625
-26.55029296875
-29.296875
-27.4658203125
-43.02978515625
-48.52294921875
-37.53662109375
-18.310546875
-25.634765625
-19.22607421875
16.4794921875
23.8037109375
28.38134765625
65.00244140625
123.59619140625
208.740234375
332.33642578125
478.82080078125
604.248046875
718.68896484375
838.623046875
911.865234375
920.10498046875
885.31494140625
780.94482421875
617.0654296875
481.5673828125
377.197265625
259.09423828125
146.484375
74.15771484375
26.55029296875
-8.23974609375
-29.296875
-49.4384765625
-58.59375
-53.1005859375
-62.255859375
-71.4111328125
-99.79248046875
-99.79248046875
-97.96142578125
-103.45458984375
-108.94775390625
-112.60986328125
-103.45458984375
-86.0595703125
-67.7490234375
-43.02978515625
-26.55029296875
-9.1552734375
10.986328125
26.55029296875
34.7900390625
31.1279296875
39.36767578125
61.34033203125
66.83349609375
63.17138671875
56.7626953125
53.1005859375
51.26953125
37.53662109375
38.4521484375
55.84716796875
75.0732421875
67.7490234375
68.66455078125
77.81982421875
75.0732421875
75.98876953125
75.98876953125
71.4111328125
67.7490234375
66.83349609375
71.4111328125
67.7490234375
58.59375
56.7626953125
51.26953125
64.0869140625
63.17138671875
81.48193359375
77.81982421875
75.0732421875
65.91796875
64.0869140625
72.32666015625
87.890625
92.46826171875
95.21484375
107.11669921875
97.0458984375
90.63720703125
94.29931640625
110.77880859375
98.876953125
98.876953125
107.11669921875
116.27197265625
112.60986328125
111.6943359375
116.27197265625
111.6943359375
120.849609375
119.93408203125
123.59619140625
130.0048828125
139.16015625
131.8359375
130.92041015625
130.92041015625
128.173828125
125.42724609375
123.59619140625
139.16015625
135.498046875
124.51171875
135.498046875
144.6533203125
154.72412109375
161.1328125
168.45703125
167.54150390625
154.72412109375
150.146484375
168.45703125
173.9501953125
173.9501953125
173.9501953125
179.443359375
173.03466796875
185.85205078125
199.5849609375
203.2470703125
207.82470703125
217.8955078125
217.8955078125
230.712890625
241.69921875
239.8681640625
244.44580078125
260.92529296875
271.91162109375
268.24951171875
281.06689453125
303.03955078125
306.70166015625
305.7861328125
327.7587890625
335.0830078125
340.576171875
346.98486328125
354.30908203125
353.3935546875
355.224609375
357.97119140625
365.29541015625
389.09912109375
401.91650390625
411.9873046875
409.24072265625
406.494140625
413.818359375
412.90283203125
401.0009765625
399.169921875
399.169921875
389.09912109375
388.18359375
382.6904296875
370.78857421875
361.63330078125
347.900390625
333.251953125
323.18115234375
308.53271484375
292.96875
289.306640625
260.92529296875
243.5302734375
232.5439453125
210.5712890625
193.17626953125
168.45703125
151.06201171875
140.07568359375
146.484375
137.3291015625
113.525390625
106.201171875
87.890625
77.81982421875
72.32666015625
67.7490234375
68.66455078125
65.91796875
52.18505859375
38.4521484375
30.21240234375
24.71923828125
21.97265625
21.05712890625
28.38134765625
42.1142578125
37.53662109375
16.4794921875
14.6484375
11.90185546875
12.8173828125
5.4931640625
-12.8173828125
-10.986328125
-7.32421875
-5.4931640625
-3.662109375
-2.74658203125
3.662109375
0
1.8310546875
11.90185546875
0
10.986328125
19.22607421875
3.662109375
-3.662109375
-1.8310546875
-6.40869140625
-9.1552734375
-14.6484375
-8.23974609375
-12.8173828125
-18.310546875
-13.73291015625
-4.57763671875
10.07080078125
0
-10.986328125
-27.4658203125
-8.23974609375
11.90185546875
-8.23974609375
-8.23974609375
-0.91552734375
-5.4931640625
0
-8.23974609375
-18.310546875
-25.634765625
-30.21240234375
-23.8037109375
-15.56396484375
-10.986328125
-3.662109375
0.91552734375
-0.91552734375
8.23974609375
21.97265625
18.310546875
14.6484375
1.8310546875
2.74658203125
1.8310546875
0.91552734375
-4.57763671875
1.8310546875
10.07080078125
18.310546875
13.73291015625
4.57763671875
4.57763671875
6.40869140625
-5.4931640625
-13.73291015625
-14.6484375
-0.91552734375
14.6484375
8.23974609375
-11.90185546875
-4.57763671875
-16.4794921875
-2.74658203125
11.90185546875
3.662109375
7.32421875
-0.91552734375
5.4931640625
5.4931640625
-2.74658203125
-2.74658203125
-10.07080078125
-10.07080078125
-18.310546875
-20.1416015625
-17.39501953125
-19.22607421875
-19.22607421875
-14.6484375
-22.88818359375
-21.97265625
-6.40869140625
9.1552734375
-2.74658203125
-17.39501953125
-29.296875
-23.8037109375
-24.71923828125
-1.8310546875
0.91552734375
-11.90185546875
0
2.74658203125
-9.1552734375
-10.986328125
-7.32421875
-15.56396484375
-7.32421875
0
-10.07080078125
-13.73291015625
-10.986328125
-13.73291015625
-20.1416015625
-20.1416015625
-17.39501953125
-9.1552734375
-14.6484375
-16.4794921875
-19.22607421875
-14.6484375
-3.662109375
-24.71923828125
-30.21240234375
-20.1416015625
-18.310546875
-21.05712890625
-22.88818359375
-20.1416015625
-38.4521484375
-39.36767578125
-29.296875
-26.55029296875
-21.97265625
-29.296875
-38.4521484375
-39.36767578125
-33.87451171875
-34.7900390625
-28.38134765625
-15.56396484375
-18.310546875
-19.22607421875
-27.4658203125
-27.4658203125
-14.6484375
-10.986328125
-9.1552734375
-20.1416015625
-28.38134765625
-10.07080078125
-16.4794921875
-20.1416015625
-19.22607421875
-26.55029296875
-32.958984375
-32.958984375
-19.22607421875
-9.1552734375
-21.05712890625
-24.71923828125
-30.21240234375
-26.55029296875
-14.6484375
-22.88818359375
-25.634765625
-10.986328125
-5.4931640625
-6.40869140625
-21.97265625
-27.4658203125
-29.296875
-21.05712890625
-31.1279296875
-43.02978515625
-54.01611328125
-43.9453125
-26.55029296875
-33.87451171875
-30.21240234375
-24.71923828125
-16.4794921875
-15.56396484375
-10.07080078125
0
-18.310546875
-27.4658203125
-36.62109375
-48.52294921875
-32.958984375
-27.4658203125
-20.1416015625
-17.39501953125
-31.1279296875
-35.70556640625
-25.634765625
-27.4658203125
-27.4658203125
-30.21240234375
-37.53662109375
-24.71923828125
-26.55029296875
-23.8037109375
-26.55029296875
-33.87451171875
-30.21240234375
-31.1279296875
-35.70556640625
-35.70556640625
-29.296875
-30.21240234375
-19.22607421875
-13.73291015625
-19.22607421875
-22.88818359375
-32.04345703125
-32.04345703125
-32.04345703125
-33.87451171875
-34.7900390625
-41.19873046875
-30.21240234375
-32.04345703125
-31.1279296875
-32.958984375
-35.70556640625
-44.86083984375
-33.87451171875
-23.8037109375
-25.634765625
-28.38134765625
-27.4658203125
-26.55029296875
-21.97265625
-16.4794921875
-12.8173828125
-4.57763671875
8.23974609375
19.22607421875
5.4931640625
1.8310546875
0.91552734375
2.74658203125
5.4931640625
5.4931640625
1.8310546875
4.57763671875
10.986328125
4.57763671875
-5.4931640625
-8.23974609375
15.56396484375
51.26953125
43.9453125
41.19873046875
28.38134765625
31.1279296875
34.7900390625
30.21240234375
23.8037109375
32.958984375
41.19873046875
34.7900390625
30.21240234375
25.634765625
13.73291015625
11.90185546875
23.8037109375
9.1552734375
9.1552734375
0.91552734375
-12.8173828125
-9.1552734375
-8.23974609375
0.91552734375
-14.6484375
-17.39501953125
-21.05712890625
-32.04345703125
-30.21240234375
-31.1279296875
-21.05712890625
-17.39501953125
-17.39501953125
-15.56396484375
-30.21240234375
-33.87451171875
-43.02978515625
-41.19873046875
-30.21240234375
-38.4521484375
-27.4658203125
-17.39501953125
-23.8037109375
-34.7900390625
-32.958984375
-35.70556640625
-36.62109375
-24.71923828125
-22.88818359375
-20.1416015625
-21.05712890625
-22.88818359375
-21.05712890625
-32.958984375
-37.53662109375
-33.87451171875
-27.4658203125
-34.7900390625
-48.52294921875
-40.283203125
-43.9453125
-38.4521484375
-25.634765625
-20.1416015625
-25.634765625
-38.4521484375
-55.84716796875
-64.0869140625
-64.0869140625
-63.17138671875
-48.52294921875
-32.04345703125
-19.22607421875
-2.74658203125
-0.91552734375
29.296875
84.228515625
155.6396484375
250.8544921875
380.859375
498.96240234375
628.96728515625
757.14111328125
877.0751953125
914.61181640625
899.0478515625
844.1162109375
727.84423828125
563.04931640625
438.53759765625
314.94140625
190.4296875
80.56640625
11.90185546875
-35.70556640625
-65.00244140625
-62.255859375
-74.15771484375
-86.97509765625
-108.0322265625
-123.59619140625
-135.498046875
-154.72412109375
-139.16015625
-132.75146484375
-120.849609375
-130.92041015625
-120.849609375
-97.0458984375
-84.228515625
-60.4248046875
-42.1142578125
-43.02978515625
-23.8037109375
-14.6484375
8.23974609375
26.55029296875
32.958984375
31.1279296875
25.634765625
16.4794921875
13.73291015625
28.38134765625
38.4521484375
45.7763671875
45.7763671875
39.36767578125
45.7763671875
53.1005859375
46.69189453125
43.02978515625
41.19873046875
41.19873046875
43.02978515625
54.931640625
48.52294921875
48.52294921875
47.607421875
42.1142578125
51.26953125
58.59375
62.255859375
61.34033203125
61.34033203125
66.83349609375
54.01611328125
51.26953125
61.34033203125
58.59375
65.00244140625
54.931640625
47.607421875
51.26953125
75.98876953125
74.15771484375
61.34033203125
56.7626953125
60.4248046875
68.66455078125
68.66455078125
75.0732421875
76.904296875
75.98876953125
75.98876953125
84.228515625
95.21484375
87.890625
76.904296875
74.15771484375
86.0595703125
81.48193359375
88.80615234375
106.201171875
111.6943359375
112.60986328125
99.79248046875
115.3564453125
109.86328125
116.27197265625
120.849609375
126.3427734375
130.0048828125
129.08935546875
136.41357421875
135.498046875
138.24462890625
151.9775390625
145.56884765625
148.3154296875
151.06201171875
156.55517578125
157.470703125
162.9638671875
164.794921875
169.37255859375
164.794921875
172.119140625
177.6123046875
178.52783203125
176.69677734375
201.416015625
205.078125
208.740234375
234.375
254.5166015625
245.361328125
232.5439453125
233.45947265625
248.10791015625
254.5166015625
270.99609375
280.1513671875
293.88427734375
292.96875
294.7998046875
302.1240234375
316.7724609375
328.67431640625
338.7451171875
345.15380859375
353.3935546875
362.548828125
369.873046875
366.2109375
369.873046875
383.60595703125
381.77490234375
384.521484375
390.0146484375
388.18359375
373.53515625
364.3798828125
349.7314453125
346.98486328125
345.15380859375
353.3935546875
357.0556640625
342.4072265625
324.0966796875
305.7861328125
282.89794921875
266.41845703125
254.5166015625
240.78369140625
228.8818359375
209.65576171875
193.17626953125
182.18994140625
173.03466796875
150.146484375
139.16015625
117.1875
101.62353515625
92.46826171875
85.14404296875
69.580078125
58.59375
49.4384765625
39.36767578125
31.1279296875
27.4658203125
12.8173828125
0
0
-1.8310546875
2.74658203125
-0.91552734375
-1.8310546875
5.4931640625
3.662109375
-14.6484375
-30.21240234375
-29.296875
-21.97265625
-7.32421875
-4.57763671875
-23.8037109375
-29.296875
-30.21240234375
-19.22607421875
-15.56396484375
-16.4794921875
-20.1416015625
-29.296875
-21.97265625
-9.1552734375
-12.8173828125
-21.97265625
-18.310546875
-28.38134765625
-11.90185546875
-21.97265625
-33.87451171875
-29.296875
-17.39501953125
-19.22607421875
-34.7900390625
-37.53662109375
-27.4658203125
-23.8037109375
-36.62109375
-32.04345703125
-32.04345703125
-33.87451171875
-27.4658203125
-29.296875
-34.7900390625
-35.70556640625
-38.4521484375
-47.607421875
-36.62109375
-32.04345703125
-28.38134765625
-21.05712890625
-11.90185546875
-11.90185546875
-22.88818359375
-24.71923828125
-22.88818359375
-27.4658203125
-23.8037109375
-29.296875
-36.62109375
-47.607421875
-49.4384765625
-33.87451171875
-31.1279296875
-29.296875
-16.4794921875
-14.6484375
-3.662109375
-13.73291015625
-17.39501953125
-19.22607421875
-15.56396484375
-10.07080078125
-21.97265625
-22.88818359375
-11.90185546875
-3.662109375
-10.07080078125
-16.4794921875
-37.53662109375
-43.9453125
-38.4521484375
-21.97265625
-9.1552734375
-15.56396484375
-26.55029296875
-40.283203125
-41.19873046875
-38.4521484375
-31.1279296875
-40.283203125
-38.4521484375
-28.38134765625
-25.634765625
-25.634765625
-21.05712890625
-16.4794921875
-23.8037109375
-38.4521484375
-45.7763671875
-53.1005859375
-46.69189453125
-39.36767578125
-41.19873046875
-37.53662109375
-21.05712890625
-14.6484375
-15.56396484375
-27.4658203125
-22.88818359375
-13.73291015625
-22.88818359375
-26.55029296875
-26.55029296875
-35.70556640625
-39.36767578125
-36.62109375
-21.97265625
-23.8037109375
-32.958984375
-41.19873046875
-51.26953125
-39.36767578125
-39.36767578125
-41.19873046875
-42.1142578125
-42.1142578125
-48.52294921875
-55.84716796875
-48.52294921875
-35.70556640625
-36.62109375
-43.9453125
-47.607421875
-54.931640625
-49.4384765625
-42.1142578125
-43.9453125
-53.1005859375
-59.50927734375
-56.7626953125
-47.607421875
-53.1005859375
-56.7626953125
-63.17138671875
-56.7626953125
-54.01611328125
-54.931640625
-49.4384765625
-44.86083984375
-45.7763671875
-50.35400390625
-47.607421875
-54.01611328125
-52.18505859375
-40.283203125
-41.19873046875
-51.26953125
-39.36767578125
-32.958984375
-43.9453125
-51.26953125
-56.7626953125
-51.26953125
-38.4521484375
-35.70556640625
-32.958984375
-32.04345703125
-34.7900390625
-54.01611328125
-51.26953125
-28.38134765625
-32.958984375
-41.19873046875
-49.4384765625
-56.7626953125
-60.4248046875
-54.01611328125
-46.69189453125
-32.04345703125
-41.19873046875
-43.02978515625
-45.7763671875
-45.7763671875
-41.19873046875
-38.4521484375
-42.1142578125
-47.607421875
-38.4521484375
-41.19873046875
-39.36767578125
-44.86083984375
-57.67822265625
-63.17138671875
-56.7626953125
-63.17138671875
-53.1005859375
-48.52294921875
-32.04345703125
-45.7763671875
-51.26953125
-45.7763671875
-35.70556640625
-32.958984375
-37.53662109375
-36.62109375
-29.296875
-36.62109375
-43.02978515625
-39.36767578125
-27.4658203125
-49.4384765625
-59.50927734375
-56.7626953125
-52.18505859375
-44.86083984375
-49.4384765625
-59.50927734375
-54.931640625
-46.69189453125
-49.4384765625
-46.69189453125
-47.607421875
-52.18505859375
-45.7763671875
-48.52294921875
-51.26953125
-38.4521484375
-19.22607421875
-32.958984375
-33.87451171875
-37.53662109375
-44.86083984375
-49.4384765625
-51.26953125
-55.84716796875
-50.35400390625
-39.36767578125
-47.607421875
-53.1005859375
-47.607421875
-43.9453125
-41.19873046875
-49.4384765625
-43.02978515625
-38.4521484375
-45.7763671875
-47.607421875
-49.4384765625
-49.4384765625
-47.607421875
-33.87451171875
-21.97265625
-34.7900390625
-38.4521484375
-26.55029296875
-32.04345703125
-35.70556640625
-46.69189453125
-42.1142578125
-33.87451171875
-18.310546875
-18.310546875
-21.97265625
-19.22607421875
-19.22607421875
-21.97265625
-21.05712890625
-23.8037109375
-11.90185546875
-7.32421875
-19.22607421875
-19.22607421875
-8.23974609375
-8.23974609375
-8.23974609375
6.40869140625
9.1552734375
-2.74658203125
-6.40869140625
-11.90185546875
-19.22607421875
-8.23974609375
-1.8310546875
6.40869140625
11.90185546875
7.32421875
5.4931640625
-3.662109375
0
10.07080078125
5.4931640625
2.74658203125
0.91552734375
-11.90185546875
-16.4794921875
-18.310546875
-31.1279296875
-35.70556640625
-35.70556640625
-27.4658203125
-21.97265625
-24.71923828125
-31.1279296875
-26.55029296875
-38.4521484375
-43.9453125
-35.70556640625
-41.19873046875
-32.958984375
-39.36767578125
-49.4384765625
-44.86083984375
-34.7900390625
-45.7763671875
-43.02978515625
-40.283203125
-36.62109375
-51.26953125
-51.26953125
-48.52294921875
-46.69189453125
-43.9453125
-36.62109375
-30.21240234375
-27.4658203125
-29.296875
-35.70556640625
-24.71923828125
-32.958984375
-32.04345703125
-56.7626953125
-55.84716796875
-53.1005859375
-40.283203125
-32.04345703125
-32.958984375
-29.296875
-27.4658203125
-47.607421875
-54.931640625
-55.84716796875
-45.7763671875
-55.84716796875
-69.580078125
-44.86083984375
-13.73291015625
-0.91552734375
-0.91552734375
21.05712890625
49.4384765625
98.876953125
170.2880859375
261.8408203125
372.61962890625
495.30029296875
625.30517578125
742.49267578125
840.4541015625
874.32861328125
858.7646484375
785.5224609375
656.43310546875
505.37109375
380.859375
254.5166015625
150.146484375
66.83349609375
8.23974609375
-15.56396484375
-40.283203125
-43.9453125
-55.84716796875
-55.84716796875
-67.7490234375
-84.228515625
-115.3564453125
-126.3427734375
-130.92041015625
-130.92041015625
-124.51171875
-122.6806640625
-125.42724609375
-110.77880859375
-89.7216796875
-70.49560546875
-48.52294921875
-36.62109375
-28.38134765625
-20.1416015625
-3.662109375
12.8173828125
19.22607421875
24.71923828125
16.4794921875
11.90185546875
21.05712890625
25.634765625
41.19873046875
32.958984375
41.19873046875
40.283203125
35.70556640625
51.26953125
60.4248046875
47.607421875
55.84716796875
53.1005859375
47.607421875
48.52294921875
43.02978515625
48.52294921875
61.34033203125
65.00244140625
63.17138671875
61.34033203125
58.59375
55.84716796875
55.84716796875
60.4248046875
51.26953125
54.01611328125
61.34033203125
66.83349609375
66.83349609375
63.17138671875
58.59375
54.931640625
64.0869140625
64.0869140625
67.7490234375
72.32666015625
65.00244140625
76.904296875
72.32666015625
65.00244140625
70.49560546875
72.32666015625
91.552734375
83.31298828125
64.0869140625
64.0869140625
61.34033203125
74.15771484375
75.0732421875
77.81982421875
87.890625
85.14404296875
88.80615234375
105.28564453125
125.42724609375
122.6806640625
130.92041015625
131.8359375
108.0322265625
114.44091796875
129.08935546875
124.51171875
140.07568359375
145.56884765625
149.23095703125
144.6533203125
143.73779296875
155.6396484375
164.794921875
161.1328125
159.3017578125
153.80859375
162.04833984375
170.2880859375
158.38623046875
166.6259765625
181.2744140625
187.68310546875
188.5986328125
204.16259765625
208.740234375
213.31787109375
213.31787109375
221.5576171875
233.45947265625
247.1923828125
240.78369140625
235.29052734375
251.77001953125
277.40478515625
296.630859375
310.36376953125
314.94140625
302.1240234375
311.279296875
321.35009765625
328.67431640625
312.19482421875
318.603515625
330.50537109375
342.4072265625
359.80224609375
366.2109375
368.0419921875
371.7041015625
379.94384765625
377.197265625
386.3525390625
383.60595703125
376.28173828125
376.28173828125
378.11279296875
370.78857421875
361.63330078125
354.30908203125
332.33642578125
328.67431640625
327.7587890625
314.94140625
294.7998046875
285.64453125
274.658203125
251.77001953125
225.2197265625
208.740234375
213.31787109375
175.78125
160.21728515625
153.80859375
141.90673828125
125.42724609375
103.45458984375
95.21484375
92.46826171875
84.228515625
75.98876953125
66.83349609375
65.91796875
53.1005859375
45.7763671875
38.4521484375
34.7900390625
27.4658203125
27.4658203125
21.97265625
0.91552734375
-9.1552734375
-7.32421875
-8.23974609375
-6.40869140625
2.74658203125
8.23974609375
4.57763671875
-2.74658203125
-1.8310546875
-9.1552734375
-12.8173828125
-11.90185546875
-13.73291015625
-8.23974609375
-8.23974609375
-15.56396484375
-19.22607421875
-18.310546875
-18.310546875
-21.05712890625
-16.4794921875
-12.8173828125
0
10.07080078125
8.23974609375
-2.74658203125
-21.05712890625
-24.71923828125
-18.310546875
-13.73291015625
-16.4794921875
-26.55029296875
-21.05712890625
-27.4658203125
-25.634765625
-22.88818359375
-13.73291015625
-3.662109375
-4.57763671875
-10.07080078125
-17.39501953125
-25.634765625
-20.1416015625
-9.1552734375
-31.1279296875
-30.21240234375
-23.8037109375
-12.8173828125
-1.8310546875
2.74658203125
8.23974609375
-2.74658203125
-13.73291015625
-7.32421875
-18.310546875
-5.4931640625
-4.57763671875
-22.88818359375
-18.310546875
-11.90185546875
-18.310546875
-10.07080078125
4.57763671875
13.73291015625
-4.57763671875
-13.73291015625
-18.310546875
-19.22607421875
-11.90185546875
-16.4794921875
-10.07080078125
-6.40869140625
-15.56396484375
-7.32421875
8.23974609375
10.986328125
-13.73291015625
-20.1416015625
-15.56396484375
-18.310546875
-20.1416015625
0
0.91552734375
-8.23974609375
-11.90185546875
-22.88818359375
-21.97265625
-21.97265625
-21.05712890625
-21.97265625
-10.986328125
-24.71923828125
-26.55029296875
-24.71923828125
-21.05712890625
-21.97265625
-10.986328125
-2.74658203125
-8.23974609375
-30.21240234375
-17.39501953125
-14.6484375
-26.55029296875
-35.70556640625
-32.04345703125
-37.53662109375
-40.283203125
-24.71923828125
-7.32421875
-18.310546875
-25.634765625
-15.56396484375
-14.6484375
-20.1416015625
-21.97265625
-26.55029296875
-33.87451171875
-31.1279296875
-36.62109375
-44.86083984375
-42.1142578125
-43.02978515625
-33.87451171875
-21.05712890625
-30.21240234375
-22.88818359375
-25.634765625
-34.7900390625
-34.7900390625
-29.296875
-29.296875
-36.62109375
-32.958984375
-34.7900390625
-38.4521484375
-35.70556640625
-43.9453125
-36.62109375
-40.283203125
-43.02978515625
-36.62109375
-33.87451171875
-20.1416015625
-29.296875
-41.19873046875
-27.4658203125
-24.71923828125
-32.958984375
-27.4658203125
-35.70556640625
-20.1416015625
-15.56396484375
-28.38134765625
-24.71923828125
-35.70556640625
-39.36767578125
-32.04345703125
-32.04345703125
-32.958984375
-34.7900390625
-28.38134765625
-32.04345703125
-32.958984375
-24.71923828125
-22.88818359375
-23.8037109375
-26.55029296875
-31.1279296875
-46.69189453125
-48.52294921875
-43.9453125
-25.634765625
-29.296875
-30.21240234375
-32.958984375
-32.04345703125
-34.7900390625
-41.19873046875
-33.87451171875
-38.4521484375
-37.53662109375
-33.87451171875
-33.87451171875
-46.69189453125
-45.7763671875
-37.53662109375
-22.88818359375
-21.97265625
-31.1279296875
-31.1279296875
-37.53662109375
-39.36767578125
-27.4658203125
-31.1279296875
-25.634765625
-32.958984375
-43.02978515625
-28.38134765625
-31.1279296875
-22.88818359375
-27.4658203125
-29.296875
-28.38134765625
-31.1279296875
-25.634765625
-30.21240234375
-32.958984375
-39.36767578125
-39.36767578125
-32.04345703125
-28.38134765625
-28.38134765625
-8.23974609375
-10.986328125
-23.8037109375
-41.19873046875
-53.1005859375
-46.69189453125
-33.87451171875
-32.04345703125
-33.87451171875
-31.1279296875
-38.4521484375
-33.87451171875
-25.634765625
-16.4794921875
-16.4794921875
-25.634765625
-16.4794921875
-6.40869140625
-10.07080078125
-9.1552734375
-6.40869140625
-0.91552734375
4.57763671875
1.8310546875
-13.73291015625
-14.6484375
-12.8173828125
-13.73291015625
-8.23974609375
-4.57763671875
-3.662109375
4.57763671875
22.88818359375
34.7900390625
21.05712890625
16.4794921875
20.1416015625
7.32421875
3.662109375
9.1552734375
9.1552734375
12.8173828125
35.70556640625
35.70556640625
27.4658203125
21.97265625
14.6484375
1.8310546875
6.40869140625
0.91552734375
-5.4931640625
-2.74658203125
-16.4794921875
-15.56396484375
-8.23974609375
-14.6484375
-18.310546875
-21.05712890625
-21.05712890625
-7.32421875
-2.74658203125
-16.4794921875
-21.05712890625
-24.71923828125
-19.22607421875
-20.1416015625
-19.22607421875
-22.88818359375
-26.55029296875
-30.21240234375
-32.04345703125
-28.38134765625
-24.71923828125
-19.22607421875
-28.38134765625
-37.53662109375
-35.70556640625
-31.1279296875
-36.62109375
-28.38134765625
-31.1279296875
-35.70556640625
-37.53662109375
-32.04345703125
-31.1279296875
-33.87451171875
-31.1279296875
-39.36767578125
-36.62109375
-34.7900390625
-37.53662109375
-43.9453125
-28.38134765625
-17.39501953125
-29.296875
-33.87451171875
-39.36767578125
-46.69189453125
-65.00244140625
-82.3974609375
-79.65087890625
-50.35400390625
-24.71923828125
-4.57763671875
13.73291015625
32.04345703125
71.4111328125
130.92041015625
232.5439453125
343.32275390625
446.77734375
572.20458984375
693.9697265625
809.326171875
884.3994140625
888.0615234375
867.00439453125
768.12744140625
615.234375
476.98974609375
362.548828125
244.44580078125
143.73779296875
63.17138671875
21.97265625
-8.23974609375
-43.02978515625
-55.84716796875
-61.34033203125
-62.255859375
-72.32666015625
-86.0595703125
-108.94775390625
-118.10302734375
-117.1875
-109.86328125
-111.6943359375
-123.59619140625
-112.60986328125
-90.63720703125
-92.46826171875
-85.14404296875
-62.255859375
-41.19873046875
-32.958984375
-12.8173828125
10.07080078125
21.05712890625
29.296875
35.70556640625
33.87451171875
32.04345703125
29.296875
42.1142578125
37.53662109375
33.87451171875
42.1142578125
44.86083984375
40.283203125
43.9453125
52.18505859375
62.255859375
52.18505859375
53.1005859375
53.1005859375
51.26953125
38.4521484375
40.283203125
58.59375
64.0869140625
70.49560546875
80.56640625
85.14404296875
76.904296875
67.7490234375
64.0869140625
62.255859375
65.91796875
72.32666015625
65.91796875
63.17138671875
63.17138671875
42.1142578125
51.26953125
67.7490234375
72.32666015625
86.97509765625
88.80615234375
88.80615234375
80.56640625
72.32666015625
76.904296875
90.63720703125
84.228515625
86.0595703125
95.21484375
87.890625
97.0458984375
109.86328125
91.552734375
92.46826171875
86.97509765625
92.46826171875
98.876953125
100.7080078125
103.45458984375
119.0185546875
118.10302734375
121.76513671875
130.0048828125
124.51171875
126.3427734375
122.6806640625
123.59619140625
134.58251953125
139.16015625
148.3154296875
165.71044921875
163.87939453125
156.55517578125
153.80859375
153.80859375
159.3017578125
154.72412109375
159.3017578125
169.37255859375
176.69677734375
179.443359375
192.2607421875
203.2470703125
205.078125
197.75390625
205.99365234375
220.64208984375
226.13525390625
246.27685546875
245.361328125
236.2060546875
245.361328125
254.5166015625
270.99609375
282.89794921875
282.89794921875
286.56005859375
295.71533203125
299.37744140625
294.7998046875
306.70166015625
333.251953125
324.0966796875
337.82958984375
352.47802734375
354.30908203125
357.0556640625
371.7041015625
376.28173828125
379.0283203125
389.09912109375
385.43701171875
374.45068359375
369.873046875
375.3662109375
368.95751953125
357.97119140625
363.46435546875
352.47802734375
338.7451171875
341.49169921875
330.50537109375
318.603515625
310.36376953125
287.4755859375
267.333984375
249.0234375
239.8681640625
227.96630859375
206.9091796875
186.767578125
177.6123046875
165.71044921875
160.21728515625
136.41357421875
122.6806640625
111.6943359375
98.876953125
86.97509765625
72.32666015625
65.91796875
52.18505859375
44.86083984375
46.69189453125
42.1142578125
25.634765625
10.986328125
-4.57763671875
-13.73291015625
0
-2.74658203125
2.74658203125
3.662109375
-1.8310546875
0
-11.90185546875
-12.8173828125
-0.91552734375
-10.07080078125
-25.634765625
-15.56396484375
-7.32421875
-23.8037109375
-28.38134765625
-22.88818359375
-27.4658203125
-24.71923828125
-23.8037109375
-27.4658203125
-22.88818359375
-25.634765625
-24.71923828125
-22.88818359375
-32.958984375
-38.4521484375
-46.69189453125
-41.19873046875
-42.1142578125
-30.21240234375
-27.4658203125
-21.05712890625
-23.8037109375
-15.56396484375
-17.39501953125
-28.38134765625
-25.634765625
-20.1416015625
-18.310546875
-32.958984375
-31.1279296875
-37.53662109375
-25.634765625
-17.39501953125
-24.71923828125
-27.4658203125
-21.97265625
-26.55029296875
-25.634765625
-24.71923828125
-13.73291015625
-2.74658203125
-7.32421875
-4.57763671875
-1.8310546875
-3.662109375
-10.07080078125
-23.8037109375
-25.634765625
-13.73291015625
-10.986328125
-15.56396484375
-10.986328125
-4.57763671875
-7.32421875
5.4931640625
-8.23974609375
-21.05712890625
-18.310546875
-26.55029296875
-17.39501953125
-19.22607421875
-12.8173828125
-8.23974609375
-4.57763671875
-8.23974609375
-23.8037109375
-34.7900390625
-32.04345703125
-13.73291015625
0
4.57763671875
0
-13.73291015625
-23.8037109375
-27.4658203125
-19.22607421875
-10.07080078125
-21.05712890625
-18.310546875
-30.21240234375
-28.38134765625
-21.05712890625
-25.634765625
-29.296875
-25.634765625
-28.38134765625
-16.4794921875
-17.39501953125
-22.88818359375
-32.958984375
-33.87451171875
-32.04345703125
-25.634765625
-14.6484375
-19.22607421875
-30.21240234375
-37.53662109375
-39.36767578125
-38.4521484375
-25.634765625
-20.1416015625
-30.21240234375
-29.296875
-27.4658203125
-29.296875
-34.7900390625
-36.62109375
-29.296875
-34.7900390625
-24.71923828125
-15.56396484375
-23.8037109375
-30.21240234375
-37.53662109375
-43.02978515625
-44.86083984375
-42.1142578125
-39.36767578125
-31.1279296875
-19.22607421875
-16.4794921875
-29.296875
-27.4658203125
-31.1279296875
-43.02978515625
-32.958984375
-34.7900390625
-29.296875
-19.22607421875
-23.8037109375
-30.21240234375
-34.7900390625
-28.38134765625
-32.04345703125
-34.7900390625
-36.62109375
-44.86083984375
-39.36767578125
-38.4521484375
-47.607421875
-40.283203125
-40.283203125
-44.86083984375
-49.4384765625
-42.1142578125
-40.283203125
-45.7763671875
-42.1142578125
-35.70556640625
-33.87451171875
-28.38134765625
-35.70556640625
-40.283203125
-42.1142578125
-41.19873046875
-36.62109375
-39.36767578125
-46.69189453125
-47.607421875
-41.19873046875
-36.62109375
-42.1142578125
-53.1005859375
-43.02978515625
-44.86083984375
-39.36767578125
-47.607421875
-43.02978515625
-32.958984375
-43.9453125
-47.607421875
-44.86083984375
-33.87451171875
-29.296875
-9.1552734375
-13.73291015625
-19.22607421875
-32.04345703125
-36.62109375
-38.4521484375
-31.1279296875
-34.7900390625
-52.18505859375
-55.84716796875
-43.9453125
-30.21240234375
-28.38134765625
-26.55029296875
-32.04345703125
-44.86083984375
-26.55029296875
-32.04345703125
-54.01611328125
-51.26953125
-46.69189453125
-43.02978515625
-36.62109375
-43.02978515625
-40.283203125
-47.607421875
-45.7763671875
-35.70556640625
-31.1279296875
-36.62109375
-45.7763671875
-31.1279296875
-34.7900390625
-37.53662109375
-38.4521484375
-36.62109375
-34.7900390625
-35.70556640625
-32.958984375
-43.9453125
-48.52294921875
-48.52294921875
-51.26953125
-60.4248046875
-48.52294921875
-50.35400390625
-54.931640625
-54.01611328125
-46.69189453125
-31.1279296875
-28.38134765625
-24.71923828125
-30.21240234375
-30.21240234375
-24.71923828125
-22.88818359375
-14.6484375
-20.1416015625
-21.97265625
-11.90185546875
-19.22607421875
-26.55029296875
-31.1279296875
-36.62109375
-29.296875
-28.38134765625
-18.310546875
-19.22607421875
-14.6484375
-22.88818359375
-19.22607421875
-6.40869140625
-0.91552734375
-10.986328125
-0.91552734375
-6.40869140625
-5.4931640625
-10.07080078125
-10.07080078125
-0.91552734375
-9.1552734375
-19.22607421875
-11.90185546875
-7.32421875
-1.8310546875
-7.32421875
-19.22607421875
-9.1552734375
-7.32421875
3.662109375
9.1552734375
-3.662109375
-1.8310546875
-6.40869140625
-0.91552734375
0.91552734375
-7.32421875
-21.97265625
-24.71923828125
-10.986328125
-20.1416015625
-21.05712890625
-25.634765625
-31.1279296875
-39.36767578125
-37.53662109375
-37.53662109375
-32.04345703125
-19.22607421875
-24.71923828125
-43.02978515625
-45.7763671875
-41.19873046875
-40.283203125
-48.52294921875
-55.84716796875
-45.7763671875
-44.86083984375
-51.26953125
-50.35400390625
-41.19873046875
-26.55029296875
-29.296875
-35.70556640625
-41.19873046875
-40.283203125
-36.62109375
-31.1279296875
-42.1142578125
-59.50927734375
-54.01611328125
-43.9453125
-43.02978515625
-33.87451171875
-27.4658203125
-27.4658203125
-37.53662109375
-35.70556640625
-29.296875
-45.7763671875
-49.4384765625
-53.1005859375
-58.59375
-42.1142578125
-26.55029296875
-9.1552734375
-7.32421875
10.986328125
46.69189453125
88.80615234375
160.21728515625
243.5302734375
357.0556640625
479.736328125
606.99462890625
747.0703125
862.4267578125
899.96337890625
895.3857421875
835.87646484375
719.6044921875
546.56982421875
413.818359375
305.7861328125
200.50048828125
86.0595703125
7.32421875
-37.53662109375
-67.7490234375
-71.4111328125
-80.56640625
-97.96142578125
-110.77880859375
-137.3291015625
-162.9638671875
-164.794921875
-150.146484375
-142.822265625
-133.6669921875
-130.0048828125
-108.0322265625
-89.7216796875
-75.98876953125
-59.50927734375
-43.02978515625
-29.296875
-8.23974609375
1.8310546875
15.56396484375
22.88818359375
26.55029296875
26.55029296875
22.88818359375
30.21240234375
27.4658203125
33.87451171875
32.04345703125
28.38134765625
32.958984375
37.53662109375
47.607421875
45.7763671875
40.283203125
53.1005859375
48.52294921875
43.02978515625
40.283203125
33.87451171875
37.53662109375
37.53662109375
35.70556640625
49.4384765625
43.9453125
30.21240234375
39.36767578125
39.36767578125
49.4384765625
54.01611328125
49.4384765625
48.52294921875
45.7763671875
47.607421875
47.607421875
48.52294921875
49.4384765625
46.69189453125
59.50927734375
63.17138671875
64.0869140625
63.17138671875
67.7490234375
67.7490234375
76.904296875
79.65087890625
80.56640625
86.0595703125
95.21484375
101.62353515625
90.63720703125
94.29931640625
101.62353515625
86.97509765625
85.14404296875
93.3837890625
96.13037109375
97.96142578125
114.44091796875
117.1875
109.86328125
97.96142578125
86.97509765625
93.3837890625
96.13037109375
107.11669921875
117.1875
115.3564453125
123.59619140625
119.93408203125
111.6943359375
114.44091796875
126.3427734375
134.58251953125
130.0048828125
137.3291015625
151.9775390625
155.6396484375
157.470703125
151.9775390625
160.21728515625
157.470703125
162.9638671875
175.78125
174.86572265625
176.69677734375
175.78125
175.78125
200.50048828125
207.82470703125
216.064453125
238.95263671875
244.44580078125
244.44580078125
256.34765625
267.333984375
281.06689453125
276.4892578125
277.40478515625
273.74267578125
278.3203125
304.87060546875
317.68798828125
317.68798828125
325.01220703125
335.0830078125
330.50537109375
333.251953125
340.576171875
347.900390625
373.53515625
381.77490234375
381.77490234375
375.3662109375
374.45068359375
371.7041015625
370.78857421875
368.0419921875
370.78857421875
364.3798828125
348.81591796875
329.58984375
321.35009765625
303.03955078125
283.8134765625
281.06689453125
269.1650390625
267.333984375
251.77001953125
224.30419921875
212.40234375
209.65576171875
196.83837890625
169.37255859375
150.146484375
146.484375
141.90673828125
119.0185546875
94.29931640625
84.228515625
82.3974609375
60.4248046875
41.19873046875
37.53662109375
33.87451171875
22.88818359375
10.07080078125
13.73291015625
7.32421875
4.57763671875
10.07080078125
6.40869140625
-10.07080078125
-29.296875
-40.283203125
-35.70556640625
-24.71923828125
-23.8037109375
-27.4658203125
-21.05712890625
-26.55029296875
-28.38134765625
-26.55029296875
-32.958984375
-47.607421875
-40.283203125
-29.296875
-29.296875
-17.39501953125
-19.22607421875
-24.71923828125
-19.22607421875
-15.56396484375
-28.38134765625
-30.21240234375
-19.22607421875
-19.22607421875
-14.6484375
-3.662109375
-21.05712890625
-34.7900390625
-26.55029296875
-22.88818359375
-22.88818359375
-19.22607421875
-29.296875
-34.7900390625
-54.01611328125
-67.7490234375
-59.50927734375
-51.26953125
-35.70556640625
-26.55029296875
-22.88818359375
-32.958984375
-35.70556640625
-29.296875
-21.05712890625
-28.38134765625
-40.283203125
-53.1005859375
-56.7626953125
-45.7763671875
-41.19873046875
-35.70556640625
-18.310546875
-10.07080078125
-15.56396484375
-21.05712890625
-29.296875
-19.22607421875
-28.38134765625
-24.71923828125
-21.05712890625
-35.70556640625
-30.21240234375
-26.55029296875
-27.4658203125
-26.55029296875
-25.634765625
-30.21240234375
-31.1279296875
-35.70556640625
-30.21240234375
-24.71923828125
-29.296875
-21.05712890625
-14.6484375
-10.07080078125
-12.8173828125
-29.296875
-39.36767578125
-36.62109375
-33.87451171875
-38.4521484375
-39.36767578125
-25.634765625
-32.958984375
-26.55029296875
-23.8037109375
-31.1279296875
-35.70556640625
-42.1142578125
-36.62109375
-34.7900390625
-32.04345703125
-42.1142578125
-44.86083984375
-26.55029296875
-32.04345703125
-37.53662109375
-36.62109375
-33.87451171875
-31.1279296875
-31.1279296875
-37.53662109375
-30.21240234375
-50.35400390625
-66.83349609375
-71.4111328125
-60.4248046875
-40.283203125
-32.958984375
-28.38134765625
-23.8037109375
-35.70556640625
-34.7900390625
-30.21240234375
-41.19873046875
-43.02978515625
-49.4384765625
-48.52294921875
-37.53662109375
-36.62109375
-41.19873046875
-43.9453125
-43.9453125
-38.4521484375
-46.69189453125
-47.607421875
-55.84716796875
-60.4248046875
-54.931640625
-40.283203125
-54.01611328125
-50.35400390625
-49.4384765625
-52.18505859375
-51.26953125
-42.1142578125
-50.35400390625
-52.18505859375
-41.19873046875
-40.283203125
-44.86083984375
-56.7626953125
-57.67822265625
-64.0869140625
-51.26953125
-39.36767578125
-40.283203125
-54.931640625
-44.86083984375
-48.52294921875
-58.59375
-73.2421875
-57.67822265625
-52.18505859375
-48.52294921875
-47.607421875
-63.17138671875
-71.4111328125
-63.17138671875
-43.9453125
-39.36767578125
-53.1005859375
-53.1005859375
-61.34033203125
-63.17138671875
-55.84716796875
-43.9453125
-35.70556640625
-36.62109375
-46.69189453125
-51.26953125
-58.59375
-54.01611328125
-34.7900390625
-30.21240234375
-43.9453125
-49.4384765625
-44.86083984375
-46.69189453125
-46.69189453125
-51.26953125
-59.50927734375
-46.69189453125
-43.9453125
-48.52294921875
-49.4384765625
-54.01611328125
-50.35400390625
-37.53662109375
-41.19873046875
-46.69189453125
-54.01611328125
-56.7626953125
-47.607421875
-51.26953125
-52.18505859375
-54.01611328125
-54.931640625
-51.26953125
-49.4384765625
-51.26953125
-54.931640625
-66.83349609375
-75.98876953125
-75.0732421875
-60.4248046875
-59.50927734375
-58.59375
-57.67822265625
-52.18505859375
-53.1005859375
-49.4384765625
-56.7626953125
-58.59375
-47.607421875
-48.52294921875
-42.1142578125
-56.7626953125
-59.50927734375
-57.67822265625
-62.255859375
-59.50927734375
-54.931640625
-43.9453125
-38.4521484375
-45.7763671875
-55.84716796875
-52.18505859375
-39.36767578125
-40.283203125
-52.18505859375
-51.26953125
-53.1005859375
-58.59375
-51.26953125
-38.4521484375
-34.7900390625
-30.21240234375
-32.958984375
-34.7900390625
-36.62109375
-42.1142578125
-42.1142578125
-47.607421875
-47.607421875
-44.86083984375
-34.7900390625
-40.283203125
-25.634765625
-19.22607421875
-25.634765625
-17.39501953125
-19.22607421875
-34.7900390625
-37.53662109375
-32.04345703125
-31.1279296875
-22.88818359375
-24.71923828125
-21.97265625
-20.1416015625
-28.38134765625
-25.634765625
-10.07080078125
-11.90185546875
-24.71923828125
-34.7900390625
-30.21240234375
-25.634765625
-17.39501953125
-11.90185546875
-18.310546875
-29.296875
-29.296875
-22.88818359375
-11.90185546875
-7.32421875
-14.6484375
-9.1552734375
-7.32421875
-9.1552734375
-10.07080078125
-4.57763671875
-5.4931640625
-6.40869140625
-21.05712890625
-30.21240234375
-31.1279296875
-31.1279296875
-36.62109375
-47.607421875
-43.9453125
-30.21240234375
-28.38134765625
-31.1279296875
-26.55029296875
-32.958984375
-34.7900390625
-38.4521484375
-32.958984375
-41.19873046875
-49.4384765625
-49.4384765625
-56.7626953125
-47.607421875
-42.1142578125
-39.36767578125
-28.38134765625
-22.88818359375
-32.04345703125
-40.283203125
-51.26953125
-53.1005859375
-55.84716796875
-57.67822265625
-58.59375
-37.53662109375
-35.70556640625
-41.19873046875
-52.18505859375
-58.59375
-48.52294921875
-46.69189453125
-43.02978515625
-32.04345703125
-34.7900390625
-50.35400390625
-42.1142578125
-32.958984375
-41.19873046875
-57.67822265625
-60.4248046875
-64.0869140625
-74.15771484375
-62.255859375
-43.9453125
-36.62109375
-30.21240234375
-14.6484375
21.05712890625
78.7353515625
147.39990234375
234.375
351.5625
477.9052734375
597.83935546875
714.111328125
824.89013671875
867.00439453125
880.7373046875
840.4541015625
715.02685546875
550.23193359375
410.15625
290.22216796875
178.52783203125
81.48193359375
6.40869140625
-41.19873046875
-59.50927734375
-75.0732421875
-80.56640625
-86.97509765625
-100.7080078125
-118.10302734375
-140.07568359375
-152.89306640625
-145.56884765625
-139.16015625
-144.6533203125
-148.3154296875
-161.1328125
-147.39990234375
-129.08935546875
-94.29931640625
-55.84716796875
-21.97265625
-11.90185546875
0.91552734375
17.39501953125
21.05712890625
18.310546875
13.73291015625
16.4794921875
21.05712890625
20.1416015625
13.73291015625
16.4794921875
25.634765625
20.1416015625
21.05712890625
34.7900390625
30.21240234375
20.1416015625
24.71923828125
30.21240234375
40.283203125
54.01611328125
38.4521484375
34.7900390625
46.69189453125
40.283203125
40.283203125
34.7900390625
33.87451171875
37.53662109375
40.283203125
39.36767578125
40.283203125
56.7626953125
65.91796875
74.15771484375
54.931640625
49.4384765625
53.1005859375
52.18505859375
55.84716796875
54.01611328125
63.17138671875
65.00244140625
71.4111328125
78.7353515625
74.15771484375
71.4111328125
73.2421875
72.32666015625
72.32666015625
73.2421875
74.15771484375
73.2421875
76.904296875
78.7353515625
72.32666015625
78.7353515625
80.56640625
85.14404296875
84.228515625
81.48193359375
77.81982421875
92.46826171875
90.63720703125
100.7080078125
106.201171875
96.13037109375
94.29931640625
96.13037109375
97.96142578125
96.13037109375
109.86328125
140.07568359375
155.6396484375
140.9912109375
134.58251953125
138.24462890625
125.42724609375
119.93408203125
133.6669921875
148.3154296875
159.3017578125
168.45703125
159.3017578125
149.23095703125
164.794921875
169.37255859375
178.52783203125
187.68310546875
194.091796875
192.2607421875
205.99365234375
220.64208984375
226.13525390625
223.388671875
229.79736328125
238.037109375
252.685546875
258.1787109375
269.1650390625
288.39111328125
289.306640625
290.22216796875
303.03955078125
311.279296875
305.7861328125
305.7861328125
311.279296875
314.02587890625
322.265625
333.251953125
344.23828125
351.5625
364.3798828125
365.29541015625
357.97119140625
350.64697265625
349.7314453125
361.63330078125
364.3798828125
355.224609375
346.98486328125
339.66064453125
320.4345703125
303.03955078125
303.955078125
296.630859375
297.54638671875
293.88427734375
273.74267578125
233.45947265625
219.7265625
202.33154296875
189.51416015625
176.69677734375
171.20361328125
158.38623046875
154.72412109375
138.24462890625
118.10302734375
92.46826171875
85.14404296875
70.49560546875
53.1005859375
47.607421875
43.9453125
53.1005859375
43.9453125
27.4658203125
20.1416015625
20.1416015625
25.634765625
-1.8310546875
-14.6484375
-22.88818359375
-31.1279296875
-29.296875
-21.97265625
0.91552734375
-5.4931640625
-20.1416015625
-24.71923828125
-24.71923828125
-28.38134765625
-43.9453125
-33.87451171875
-24.71923828125
-32.04345703125
-31.1279296875
-30.21240234375
-29.296875
-34.7900390625
-28.38134765625
-26.55029296875
-38.4521484375
-45.7763671875
-47.607421875
-34.7900390625
-17.39501953125
-26.55029296875
-24.71923828125
-40.283203125
-40.283203125
-32.958984375
-37.53662109375
-46.69189453125
-49.4384765625
-43.02978515625
-33.87451171875
-43.02978515625
-38.4521484375
-41.19873046875
-37.53662109375
-34.7900390625
-34.7900390625
-37.53662109375
-40.283203125
-31.1279296875
-33.87451171875
-32.04345703125
-30.21240234375
-27.4658203125
-31.1279296875
-43.02978515625
-35.70556640625
-19.22607421875
-30.21240234375
-34.7900390625
-39.36767578125
-47.607421875
-43.9453125
-29.296875
-9.1552734375
-23.8037109375
-40.283203125
-56.7626953125
-47.607421875
-54.01611328125
-42.1142578125
-32.04345703125
-28.38134765625
-19.22607421875
-10.986328125
-1.8310546875
-16.4794921875
-15.56396484375
-20.1416015625
-16.4794921875
-21.97265625
-24.71923828125
-25.634765625
-27.4658203125
-35.70556640625
-36.62109375
-35.70556640625
-33.87451171875
-13.73291015625
-14.6484375
-29.296875
-32.958984375
-36.62109375
-43.9453125
-45.7763671875
-44.86083984375
-38.4521484375
-54.931640625
-54.931640625
-38.4521484375
-39.36767578125
-41.19873046875
-38.4521484375
-30.21240234375
-41.19873046875
-48.52294921875
-56.7626953125
-53.1005859375
-47.607421875
-36.62109375
-35.70556640625
-44.86083984375
-33.87451171875
-43.9453125
-47.607421875
-54.931640625
-56.7626953125
-66.83349609375
-61.34033203125
-55.84716796875
-54.01611328125
-50.35400390625
-43.9453125
-44.86083984375
-30.21240234375
-23.8037109375
-30.21240234375
-44.86083984375
-46.69189453125
-39.36767578125
-29.296875
-31.1279296875
-35.70556640625
-40.283203125
-41.19873046875
-49.4384765625
-43.9453125
-54.931640625
-52.18505859375
-50.35400390625
-51.26953125
-58.59375
-65.00244140625
-54.931640625
-60.4248046875
-40.283203125
-32.04345703125
-58.59375
-65.91796875
-54.01611328125
-46.69189453125
-59.50927734375
-58.59375
-61.34033203125
-67.7490234375
-60.4248046875
-46.69189453125
-54.01611328125
-52.18505859375
-44.86083984375
-45.7763671875
-43.02978515625
-41.19873046875
-44.86083984375
-54.01611328125
-57.67822265625
-58.59375
-57.67822265625
-45.7763671875
-50.35400390625
-48.52294921875
-45.7763671875
-54.931640625
-47.607421875
-44.86083984375
-38.4521484375
-50.35400390625
-57.67822265625
-59.50927734375
-58.59375
-54.01611328125
-57.67822265625
-54.01611328125
-50.35400390625
-55.84716796875
-51.26953125
-54.931640625
-70.49560546875
-65.00244140625
-57.67822265625
-66.83349609375
-53.1005859375
-51.26953125
-65.91796875
-68.66455078125
-53.1005859375
-43.9453125
-55.84716796875
-54.931640625
-55.84716796875
-57.67822265625
-57.67822265625
-63.17138671875
-57.67822265625
-56.7626953125
-43.9453125
-45.7763671875
-48.52294921875
-46.69189453125
-53.1005859375
-65.91796875
-64.0869140625
-53.1005859375
-35.70556640625
-46.69189453125
-43.02978515625
-33.87451171875
-45.7763671875
-53.1005859375
-55.84716796875
-55.84716796875
-64.0869140625
-55.84716796875
-43.02978515625
-43.9453125
-45.7763671875
-53.1005859375
-47.607421875
-46.69189453125
-59.50927734375
-67.7490234375
-61.34033203125
-54.01611328125
-56.7626953125
-44.86083984375
-40.283203125
-52.18505859375
-50.35400390625
-39.36767578125
-42.1142578125
-48.52294921875
-51.26953125
-48.52294921875
-41.19873046875
-23.8037109375
-18.310546875
-25.634765625
-29.296875
-18.310546875
-21.05712890625
-14.6484375
-10.07080078125
-14.6484375
-14.6484375
-11.90185546875
-23.8037109375
-27.4658203125
-25.634765625
-14.6484375
-1.8310546875
-15.56396484375
-18.310546875
-24.71923828125
-24.71923828125
-5.4931640625
-6.40869140625
-16.4794921875
-20.1416015625
-23.8037109375
-39.36767578125
-45.7763671875
-40.283203125
-33.87451171875
-34.7900390625
-40.283203125
-46.69189453125
-27.4658203125
-32.958984375
-38.4521484375
-29.296875
-21.05712890625
-25.634765625
-34.7900390625
-43.02978515625
-50.35400390625
-55.84716796875
-55.84716796875
-54.931640625
-55.84716796875
-51.26953125
-38.4521484375
-29.296875
-35.70556640625
-43.02978515625
-51.26953125
-44.86083984375
-41.19873046875
-40.283203125
-36.62109375
-37.53662109375
-41.19873046875
-36.62109375
-43.02978515625
-43.9453125
-35.70556640625
-34.7900390625
-36.62109375
-35.70556640625
-34.7900390625
-34.7900390625
-33.87451171875
-36.62109375
-43.9453125
-65.91796875
-75.0732421875
-80.56640625
-71.4111328125
-43.9453125
-32.04345703125
-25.634765625
-19.22607421875
-10.07080078125
25.634765625
75.0732421875
144.6533203125
255.43212890625
375.3662109375
504.45556640625
626.220703125
735.16845703125
840.4541015625
861.51123046875
821.22802734375
749.81689453125
611.572265625
474.2431640625
368.0419921875
253.60107421875
140.07568359375
69.580078125
13.73291015625
-7.32421875
-12.8173828125
-34.7900390625
-48.52294921875
-49.4384765625
-48.52294921875
-67.7490234375
-86.0595703125
-111.6943359375
-130.0048828125
-115.3564453125
-113.525390625
-120.849609375
-118.10302734375
-108.94775390625
-108.0322265625
-84.228515625
-68.66455078125
-58.59375
-54.931640625
-42.1142578125
-31.1279296875
-18.310546875
6.40869140625
28.38134765625
18.310546875
30.21240234375
39.36767578125
32.04345703125
32.958984375
32.958984375
32.958984375
43.9453125
41.19873046875
36.62109375
26.55029296875
22.88818359375
51.26953125
60.4248046875
53.1005859375
32.04345703125
34.7900390625
41.19873046875
43.02978515625
44.86083984375
37.53662109375
41.19873046875
50.35400390625
54.931640625
60.4248046875
54.01611328125
54.01611328125
51.26953125
62.255859375
65.00244140625
72.32666015625
67.7490234375
65.00244140625
65.91796875
67.7490234375
75.98876953125
72.32666015625
65.91796875
65.00244140625
72.32666015625
68.66455078125
69.580078125
72.32666015625
76.904296875
79.65087890625
86.97509765625
91.552734375
92.46826171875
93.3837890625
97.0458984375
99.79248046875
91.552734375
82.3974609375
91.552734375
104.3701171875
109.86328125
106.201171875
104.3701171875
119.93408203125
117.1875
112.60986328125
114.44091796875
117.1875
110.77880859375
111.6943359375
121.76513671875
136.41357421875
141.90673828125
146.484375
148.3154296875
143.73779296875
147.39990234375
146.484375
153.80859375
156.55517578125
154.72412109375
169.37255859375
176.69677734375
188.5986328125
187.68310546875
186.767578125
189.51416015625
199.5849609375
221.5576171875
206.9091796875
202.33154296875
219.7265625
230.712890625
246.27685546875
255.43212890625
255.43212890625
269.1650390625
286.56005859375
279.23583984375
269.1650390625
269.1650390625
262.75634765625
286.56005859375
298.4619140625
307.6171875
325.01220703125
324.0966796875
342.4072265625
360.7177734375
373.53515625
379.94384765625
379.0283203125
377.197265625
371.7041015625
367.12646484375
379.94384765625
369.873046875
363.46435546875
365.29541015625
362.548828125
359.80224609375
350.64697265625
330.50537109375
314.02587890625
305.7861328125
303.03955078125
292.96875
286.56005859375
266.41845703125
245.361328125
220.64208984375
202.33154296875
195.9228515625
187.68310546875
176.69677734375
161.1328125
130.0048828125
124.51171875
113.525390625
109.86328125
102.5390625
86.0595703125
74.15771484375
63.17138671875
55.84716796875
45.7763671875
35.70556640625
32.04345703125
24.71923828125
5.4931640625
-9.1552734375
-14.6484375
-3.662109375
11.90185546875
10.986328125
10.986328125
1.8310546875
-10.07080078125
-9.1552734375
-8.23974609375
-14.6484375
-30.21240234375
-32.04345703125
-29.296875
-14.6484375
-18.310546875
-21.97265625
-19.22607421875
-19.22607421875
-25.634765625
-22.88818359375
-21.97265625
-17.39501953125
-20.1416015625
-15.56396484375
-11.90185546875
-12.8173828125
-11.90185546875
-10.986328125
-8.23974609375
-22.88818359375
-11.90185546875
-14.6484375
-16.4794921875
-26.55029296875
-18.310546875
-10.986328125
-7.32421875
-13.73291015625
-16.4794921875
-10.07080078125
-16.4794921875
-24.71923828125
-16.4794921875
-11.90185546875
-21.05712890625
-30.21240234375
-25.634765625
-29.296875
-11.90185546875
-9.1552734375
-10.986328125
-3.662109375
-20.1416015625
-24.71923828125
-15.56396484375
-21.05712890625
-16.4794921875
-3.662109375
-10.07080078125
-4.57763671875
1.8310546875
-16.4794921875
-21.05712890625
-18.310546875
-17.39501953125
-16.4794921875
-12.8173828125
-12.8173828125
-13.73291015625
-11.90185546875
-9.1552734375
-7.32421875
0.91552734375
-4.57763671875
-13.73291015625
-23.8037109375
-27.4658203125
-20.1416015625
-15.56396484375
-14.6484375
-3.662109375
-7.32421875
-10.07080078125
-13.73291015625
-18.310546875
-21.05712890625
-18.310546875
-21.05712890625
-26.55029296875
-27.4658203125
-27.4658203125
-10.986328125
-6.40869140625
-10.986328125
-9.1552734375
-20.1416015625
-27.4658203125
-32.04345703125
-32.958984375
-34.7900390625
-30.21240234375
-24.71923828125
-21.97265625
-19.22607421875
-24.71923828125
-26.55029296875
-26.55029296875
-9.1552734375
-10.986328125
-9.1552734375
-19.22607421875
-26.55029296875
-22.88818359375
-24.71923828125
-7.32421875
-9.1552734375
-19.22607421875
-24.71923828125
-21.97265625
-21.97265625
-28.38134765625
-38.4521484375
-44.86083984375
-34.7900390625
-32.04345703125
-38.4521484375
-31.1279296875
-28.38134765625
-38.4521484375
-32.958984375
-35.70556640625
-41.19873046875
-37.53662109375
-35.70556640625
-47.607421875
-50.35400390625
-44.86083984375
-43.9453125
-30.21240234375
-34.7900390625
-36.62109375
-32.04345703125
-21.05712890625
-32.04345703125
-36.62109375
-28.38134765625
-28.38134765625
-34.7900390625
-18.310546875
-21.05712890625
-36.62109375
-43.9453125
-34.7900390625
-31.1279296875
-39.36767578125
-23.8037109375
-5.4931640625
-21.05712890625
-15.56396484375
-15.56396484375
-28.38134765625
-32.958984375
-35.70556640625
-51.26953125
-36.62109375
-21.05712890625
-29.296875
-20.1416015625
-20.1416015625
-24.71923828125
-32.958984375
-39.36767578125
-42.1142578125
-37.53662109375
-31.1279296875
-32.958984375
-43.02978515625
-44.86083984375
-41.19873046875
-46.69189453125
-39.36767578125
-32.958984375
-45.7763671875
-52.18505859375
-21.97265625
-23.8037109375
-36.62109375
-36.62109375
-38.4521484375
-33.87451171875
-34.7900390625
-39.36767578125
-39.36767578125
-29.296875
-17.39501953125
-20.1416015625
-24.71923828125
-29.296875
-31.1279296875
-22.88818359375
-28.38134765625
-26.55029296875
2.74658203125
3.662109375
3.662109375
4.57763671875
10.07080078125
-0.91552734375
-5.4931640625
-4.57763671875
-4.57763671875
7.32421875
10.07080078125
1.8310546875
6.40869140625
24.71923828125
14.6484375
3.662109375
-2.74658203125
-6.40869140625
-8.23974609375
-6.40869140625
-0.91552734375
19.22607421875
28.38134765625
31.1279296875
13.73291015625
7.32421875
10.07080078125
4.57763671875
0
-23.8037109375
-15.56396484375
-11.90185546875
-18.310546875
-20.1416015625
-34.7900390625
-44.86083984375
-44.86083984375
-32.958984375
-22.88818359375
-10.07080078125
-8.23974609375
-23.8037109375
-34.7900390625
-36.62109375
-38.4521484375
-29.296875
-27.4658203125
-32.958984375
-35.70556640625
-35.70556640625
-38.4521484375
-43.9453125
-43.02978515625
-42.1142578125
-27.4658203125
-25.634765625
-25.634765625
-28.38134765625
-30.21240234375
-24.71923828125
-35.70556640625
-32.958984375
-37.53662109375
-41.19873046875
-40.283203125
-36.62109375
-40.283203125
-27.4658203125
-24.71923828125
-32.958984375
-31.1279296875
-27.4658203125
-23.8037109375
-35.70556640625
-34.7900390625
-54.931640625
-66.83349609375
-77.81982421875
-75.98876953125
-31.1279296875
-16.4794921875
-13.73291015625
10.986328125
18.310546875
52.18505859375
107.11669921875
166.6259765625
272.8271484375
378.11279296875
501.708984375
626.220703125
740.66162109375
851.4404296875
881.65283203125
875.244140625
827.63671875
716.85791015625
550.23193359375
415.6494140625
301.20849609375
184.02099609375
90.63720703125
22.88818359375
-13.73291015625
-34.7900390625
-57.67822265625
-65.00244140625
-65.91796875
-64.0869140625
-87.890625
-103.45458984375
-110.77880859375
-121.76513671875
-111.6943359375
-103.45458984375
-112.60986328125
-116.27197265625
-106.201171875
-89.7216796875
-73.2421875
-57.67822265625
-43.9453125
-32.04345703125
-22.88818359375
-8.23974609375
15.56396484375
24.71923828125
29.296875
39.36767578125
43.9453125
57.67822265625
49.4384765625
36.62109375
43.02978515625
50.35400390625
53.1005859375
59.50927734375
51.26953125
43.02978515625
30.21240234375
33.87451171875
47.607421875
54.01611328125
42.1142578125
44.86083984375
53.1005859375
54.01611328125
65.00244140625
72.32666015625
60.4248046875
56.7626953125
46.69189453125
54.931640625
66.83349609375
53.1005859375
56.7626953125
62.255859375
72.32666015625
86.0595703125
82.3974609375
72.32666015625
65.91796875
74.15771484375
75.0732421875
68.66455078125
75.0732421875
86.0595703125
82.3974609375
88.80615234375
85.14404296875
86.0595703125
78.7353515625
80.56640625
93.3837890625
93.3837890625
86.97509765625
96.13037109375
88.80615234375
100.7080078125
102.5390625
106.201171875
106.201171875
127.25830078125
132.75146484375
121.76513671875
117.1875
119.0185546875
125.42724609375
119.0185546875
126.3427734375
126.3427734375
131.8359375
138.24462890625
148.3154296875
144.6533203125
148.3154296875
144.6533203125
142.822265625
141.90673828125
152.89306640625
159.3017578125
164.794921875
168.45703125
182.18994140625
190.4296875
198.66943359375
208.740234375
216.064453125
227.96630859375
238.037109375
227.96630859375
221.5576171875
223.388671875
216.064453125
238.037109375
254.5166015625
253.60107421875
259.09423828125
260.009765625
260.009765625
282.89794921875
289.306640625
297.54638671875
317.68798828125
320.4345703125
319.51904296875
325.01220703125
322.265625
333.251953125
347.900390625
345.15380859375
343.32275390625
346.0693359375
356.14013671875
364.3798828125
358.88671875
363.46435546875
378.11279296875
380.859375
392.76123046875
379.0283203125
363.46435546875
370.78857421875
360.7177734375
349.7314453125
335.99853515625
336.9140625
329.58984375
314.94140625
308.53271484375
293.88427734375
278.3203125
256.34765625
235.29052734375
213.31787109375
198.66943359375
179.443359375
168.45703125
162.9638671875
147.39990234375
137.3291015625
131.8359375
113.525390625
102.5390625
97.0458984375
104.3701171875
73.2421875
43.02978515625
42.1142578125
45.7763671875
32.958984375
23.8037109375
26.55029296875
11.90185546875
0.91552734375
5.4931640625
8.23974609375
3.662109375
-9.1552734375
-10.986328125
-8.23974609375
-4.57763671875
-10.07080078125
-7.32421875
-20.1416015625
-18.310546875
-14.6484375
-10.986328125
-10.986328125
-16.4794921875
-21.05712890625
-12.8173828125
-15.56396484375
-25.634765625
-23.8037109375
-26.55029296875
-21.05712890625
-17.39501953125
-23.8037109375
-29.296875
-30.21240234375
-8.23974609375
-12.8173828125
-19.22607421875
-13.73291015625
-13.73291015625
-5.4931640625
-7.32421875
-2.74658203125
2.74658203125
-7.32421875
-21.05712890625
-20.1416015625
-21.05712890625
-3.662109375
-10.07080078125
-5.4931640625
-1.8310546875
-1.8310546875
-9.1552734375
-10.986328125
-10.07080078125
-1.8310546875
-3.662109375
1.8310546875
0
-6.40869140625
-9.1552734375
-4.57763671875
-3.662109375
-14.6484375
-11.90185546875
-11.90185546875
-15.56396484375
-18.310546875
-16.4794921875
-19.22607421875
-14.6484375
-26.55029296875
-21.97265625
-16.4794921875
-9.1552734375
-17.39501953125
-16.4794921875
-19.22607421875
-16.4794921875
-10.07080078125
-0.91552734375
-0.91552734375
-2.74658203125
3.662109375
-17.39501953125
-20.1416015625
-19.22607421875
-15.56396484375
-12.8173828125
-4.57763671875
0.91552734375
-8.23974609375
-15.56396484375
-5.4931640625
2.74658203125
-1.8310546875
-9.1552734375
-18.310546875
-23.8037109375
-14.6484375
-12.8173828125
-9.1552734375
-14.6484375
-9.1552734375
-21.05712890625
-31.1279296875
-27.4658203125
-32.04345703125
-20.1416015625
-3.662109375
-21.97265625
-29.296875
-30.21240234375
-24.71923828125
-26.55029296875
-21.97265625
-28.38134765625
-32.958984375
-32.958984375
-31.1279296875
-31.1279296875
-31.1279296875
-35.70556640625
-24.71923828125
-24.71923828125
-47.607421875
-55.84716796875
-58.59375
-48.52294921875
-40.283203125
-43.02978515625
-38.4521484375
-31.1279296875
-24.71923828125
-19.22607421875
-6.40869140625
-7.32421875
-21.97265625
-26.55029296875
-19.22607421875
-27.4658203125
-36.62109375
-30.21240234375
-21.97265625
-15.56396484375
-23.8037109375
-23.8037109375
-28.38134765625
-33.87451171875
-29.296875
-36.62109375
-26.55029296875
-30.21240234375
-36.62109375
-30.21240234375
-32.04345703125
-39.36767578125
-43.02978515625
-37.53662109375
-30.21240234375
-39.36767578125
-34.7900390625
-31.1279296875
-36.62109375
-41.19873046875
-31.1279296875
-26.55029296875
-26.55029296875
-30.21240234375
-29.296875
-37.53662109375
-48.52294921875
-37.53662109375
-36.62109375
-33.87451171875
-29.296875
-41.19873046875
-45.7763671875
-21.97265625
-22.88818359375
-36.62109375
-35.70556640625
-28.38134765625
-30.21240234375
-40.283203125
-37.53662109375
-36.62109375
-22.88818359375
-21.97265625
-28.38134765625
-27.4658203125
-31.1279296875
-38.4521484375
-32.958984375
-21.97265625
-11.90185546875
-32.04345703125
-47.607421875
-42.1142578125
-42.1142578125
-53.1005859375
-55.84716796875
-43.02978515625
-47.607421875
-56.7626953125
-47.607421875
-32.958984375
-30.21240234375
-28.38134765625
-15.56396484375
-17.39501953125
-20.1416015625
-21.05712890625
-17.39501953125
-15.56396484375
-0.91552734375
1.8310546875
11.90185546875
0
-4.57763671875
-4.57763671875
-17.39501953125
-13.73291015625
5.4931640625
10.986328125
12.8173828125
24.71923828125
16.4794921875
7.32421875
21.97265625
29.296875
20.1416015625
20.1416015625
21.05712890625
12.8173828125
18.310546875
11.90185546875
22.88818359375
28.38134765625
40.283203125
32.04345703125
19.22607421875
13.73291015625
-2.74658203125
-20.1416015625
-10.986328125
-5.4931640625
-10.07080078125
-5.4931640625
8.23974609375
-2.74658203125
-11.90185546875
-15.56396484375
-25.634765625
-27.4658203125
-29.296875
-25.634765625
-32.04345703125
-41.19873046875
-38.4521484375
-31.1279296875
-40.283203125
-50.35400390625
-50.35400390625
-27.4658203125
-23.8037109375
-24.71923828125
-27.4658203125
-23.8037109375
-33.87451171875
-41.19873046875
-39.36767578125
-34.7900390625
-40.283203125
-58.59375
-65.91796875
-54.931640625
-55.84716796875
-49.4384765625
-43.02978515625
-51.26953125
-36.62109375
-25.634765625
-32.04345703125
-37.53662109375
-37.53662109375
-38.4521484375
-48.52294921875
-43.9453125
-35.70556640625
-42.1142578125
-39.36767578125
-30.21240234375
-38.4521484375
-37.53662109375
-56.7626953125
-56.7626953125
-46.69189453125
-42.1142578125
-32.958984375
-22.88818359375
-23.8037109375
19.22607421875
54.01611328125
109.86328125
190.4296875
313.1103515625
448.6083984375
577.69775390625
697.6318359375
802.91748046875
870.66650390625
886.23046875
858.7646484375
765.380859375
613.4033203125
467.83447265625
350.64697265625
228.8818359375
113.525390625
35.70556640625
-30.21240234375
-86.97509765625
-96.13037109375
-96.13037109375
-108.94775390625
-117.1875
-106.201171875
-130.0048828125
-140.07568359375
-137.3291015625
-124.51171875
-128.173828125
-130.0048828125
-126.3427734375
-114.44091796875
-99.79248046875
-75.98876953125
-59.50927734375
-41.19873046875
-20.1416015625
-5.4931640625
10.986328125
18.310546875
10.07080078125
10.986328125
22.88818359375
54.01611328125
53.1005859375
32.958984375
40.283203125
31.1279296875
16.4794921875
24.71923828125
26.55029296875
17.39501953125
24.71923828125
30.21240234375
44.86083984375
38.4521484375
43.02978515625
33.87451171875
24.71923828125
24.71923828125
34.7900390625
37.53662109375
50.35400390625
57.67822265625
48.52294921875
38.4521484375
43.9453125
41.19873046875
48.52294921875
43.9453125
44.86083984375
58.59375
63.17138671875
56.7626953125
51.26953125
61.34033203125
65.91796875
59.50927734375
65.91796875
64.0869140625
57.67822265625
69.580078125
74.15771484375
74.15771484375
67.7490234375
59.50927734375
73.2421875
64.0869140625
72.32666015625
84.228515625
91.552734375
75.98876953125
82.3974609375
82.3974609375
77.81982421875
94.29931640625
95.21484375
90.63720703125
103.45458984375
103.45458984375
103.45458984375
109.86328125
117.1875
121.76513671875
113.525390625
106.201171875
117.1875
126.3427734375
123.59619140625
125.42724609375
129.08935546875
124.51171875
123.59619140625
130.92041015625
155.6396484375
161.1328125
143.73779296875
140.07568359375
145.56884765625
151.9775390625
162.9638671875
169.37255859375
171.20361328125
183.10546875
194.091796875
193.17626953125
200.50048828125
229.79736328125
237.12158203125
232.5439453125
233.45947265625
229.79736328125
236.2060546875
248.10791015625
260.92529296875
276.4892578125
293.88427734375
294.7998046875
289.306640625
297.54638671875
312.19482421875
332.33642578125
330.50537109375
334.16748046875
335.99853515625
343.32275390625
355.224609375
366.2109375
367.12646484375
374.45068359375
379.94384765625
388.18359375
387.26806640625
374.45068359375
378.11279296875
373.53515625
350.64697265625
338.7451171875
348.81591796875
351.5625
332.33642578125
316.7724609375
294.7998046875
280.1513671875
265.5029296875
240.78369140625
238.95263671875
245.361328125
224.30419921875
200.50048828125
193.17626953125
159.3017578125
132.75146484375
115.3564453125
105.28564453125
96.13037109375
98.876953125
106.201171875
98.876953125
88.80615234375
68.66455078125
40.283203125
21.97265625
21.05712890625
22.88818359375
31.1279296875
28.38134765625
10.07080078125
10.07080078125
6.40869140625
1.8310546875
-4.57763671875
-13.73291015625
-6.40869140625
-2.74658203125
-8.23974609375
-10.07080078125
-16.4794921875
-21.05712890625
-35.70556640625
-39.36767578125
-33.87451171875
-10.07080078125
-17.39501953125
-30.21240234375
-22.88818359375
-36.62109375
-36.62109375
-24.71923828125
-21.97265625
-25.634765625
-24.71923828125
-27.4658203125
-39.36767578125
-43.9453125
-54.01611328125
-54.931640625
-53.1005859375
-33.87451171875
-26.55029296875
-21.97265625
-21.05712890625
-27.4658203125
-41.19873046875
-29.296875
-29.296875
-51.26953125
-36.62109375
-30.21240234375
-43.9453125
-43.9453125
-30.21240234375
-25.634765625
-30.21240234375
-32.958984375
-26.55029296875
-22.88818359375
-16.4794921875
-15.56396484375
-10.986328125
-16.4794921875
-27.4658203125
-21.05712890625
-22.88818359375
-33.87451171875
-30.21240234375
-25.634765625
-27.4658203125
-27.4658203125
-24.71923828125
-38.4521484375
-35.70556640625
-38.4521484375
-46.69189453125
-37.53662109375
-28.38134765625
-33.87451171875
-29.296875
-30.21240234375
-21.97265625
-17.39501953125
-24.71923828125
-26.55029296875
-15.56396484375
-24.71923828125
-33.87451171875
-31.1279296875
-26.55029296875
-21.05712890625
-29.296875
-50.35400390625
-54.01611328125
-48.52294921875
-54.931640625
-54.931640625
-42.1142578125
-25.634765625
-32.04345703125
-34.7900390625
-32.958984375
-34.7900390625
-35.70556640625
-37.53662109375
-38.4521484375
-38.4521484375
-46.69189453125
-37.53662109375
-43.02978515625
-47.607421875
-33.87451171875
-38.4521484375
-42.1142578125
-34.7900390625
-55.84716796875
-65.00244140625
-45.7763671875
-41.19873046875
-34.7900390625
-30.21240234375
-36.62109375
-39.36767578125
-43.9453125
-42.1142578125
-25.634765625
-30.21240234375
-29.296875
-37.53662109375
-50.35400390625
-52.18505859375
-48.52294921875
-52.18505859375
-52.18505859375
-47.607421875
-58.59375
-54.01611328125
-47.607421875
-56.7626953125
-63.17138671875
-63.17138671875
-69.580078125
-60.4248046875
-50.35400390625
-47.607421875
-51.26953125
-57.67822265625
-64.0869140625
-60.4248046875
-59.50927734375
-54.01611328125
-53.1005859375
-46.69189453125
-53.1005859375
-49.4384765625
-58.59375
-62.255859375
-52.18505859375
-43.9453125
-47.607421875
-46.69189453125
-49.4384765625
-48.52294921875
-49.4384765625
-57.67822265625
-60.4248046875
-59.50927734375
-54.01611328125
-65.00244140625
-61.34033203125
-51.26953125
-50.35400390625
-64.0869140625
-66.83349609375
-60.4248046875
-50.35400390625
-41.19873046875
-45.7763671875
-51.26953125
-59.50927734375
-56.7626953125
-46.69189453125
-53.1005859375
-58.59375
-54.01611328125
-60.4248046875
-57.67822265625
-48.52294921875
-55.84716796875
-51.26953125
-47.607421875
-53.1005859375
-57.67822265625
-59.50927734375
-55.84716796875
-58.59375
-60.4248046875
-58.59375
-65.00244140625
-67.7490234375
-60.4248046875
-54.01611328125
-47.607421875
-39.36767578125
-54.931640625
-65.91796875
-57.67822265625
-60.4248046875
-62.255859375
-54.931640625
-49.4384765625
-45.7763671875
-54.01611328125
-66.83349609375
-66.83349609375
-62.255859375
-52.18505859375
-47.607421875
-38.4521484375
-26.55029296875
-37.53662109375
-33.87451171875
-26.55029296875
-32.04345703125
-25.634765625
-12.8173828125
-18.310546875
-10.986328125
-15.56396484375
-19.22607421875
-24.71923828125
-32.04345703125
-28.38134765625
-12.8173828125
-0.91552734375
-4.57763671875
-3.662109375
10.07080078125
10.986328125
10.07080078125
7.32421875
10.986328125
-0.91552734375
-12.8173828125
-17.39501953125
-7.32421875
0
0.91552734375
-9.1552734375
7.32421875
3.662109375
1.8310546875
-14.6484375
-28.38134765625
-37.53662109375
-31.1279296875
-35.70556640625
-44.86083984375
-43.02978515625
-44.86083984375
-37.53662109375
-45.7763671875
-39.36767578125
-39.36767578125
-45.7763671875
-44.86083984375
-47.607421875
-52.18505859375
-56.7626953125
-59.50927734375
-47.607421875
-52.18505859375
-58.59375
-53.1005859375
-44.86083984375
-52.18505859375
-60.4248046875
-61.34033203125
-58.59375
-64.0869140625
-56.7626953125
-56.7626953125
-69.580078125
-75.0732421875
-75.98876953125
-73.2421875
-71.4111328125
-48.52294921875
-45.7763671875
-56.7626953125
-54.931640625
-33.87451171875
-28.38134765625
-43.9453125
-53.1005859375
-50.35400390625
-57.67822265625
-54.931640625
-39.36767578125
-47.607421875
-52.18505859375
-61.34033203125
-77.81982421875
-88.80615234375
-85.14404296875
-68.66455078125
-51.26953125
-34.7900390625
-34.7900390625
-30.21240234375
4.57763671875
71.4111328125
161.1328125
274.658203125
382.6904296875
506.28662109375
626.220703125
749.81689453125
822.1435546875
858.7646484375
855.1025390625
743.408203125
599.67041015625
457.763671875
336.9140625
220.64208984375
117.1875
32.958984375
-31.1279296875
-66.83349609375
-77.81982421875
-91.552734375
-96.13037109375
-93.3837890625
-94.29931640625
-135.498046875
-164.794921875
-170.2880859375
-157.470703125
-135.498046875
-134.58251953125
-141.90673828125
-137.3291015625
-130.92041015625
-109.86328125
-86.0595703125
-60.4248046875
-49.4384765625
-44.86083984375
-16.4794921875
-5.4931640625
-6.40869140625
8.23974609375
6.40869140625
-8.23974609375
-4.57763671875
-8.23974609375
0.91552734375
2.74658203125
2.74658203125
12.8173828125
10.986328125
20.1416015625
24.71923828125
20.1416015625
13.73291015625
16.4794921875
21.97265625
23.8037109375
21.05712890625
16.4794921875
30.21240234375
32.04345703125
33.87451171875
35.70556640625
34.7900390625
33.87451171875
29.296875
23.8037109375
23.8037109375
23.8037109375
33.87451171875
27.4658203125
32.04345703125
33.87451171875
46.69189453125
53.1005859375
53.1005859375
58.59375
65.00244140625
57.67822265625
44.86083984375
33.87451171875
41.19873046875
45.7763671875
52.18505859375
57.67822265625
68.66455078125
68.66455078125
62.255859375
62.255859375
54.01611328125
56.7626953125
61.34033203125
56.7626953125
67.7490234375
83.31298828125
85.14404296875
92.46826171875
79.65087890625
66.83349609375
60.4248046875
65.00244140625
85.14404296875
93.3837890625
86.0595703125
91.552734375
97.96142578125
100.7080078125
93.3837890625
84.228515625
96.13037109375
126.3427734375
138.24462890625
132.75146484375
139.16015625
131.8359375
130.0048828125
139.16015625
132.75146484375
143.73779296875
150.146484375
157.470703125
156.55517578125
170.2880859375
184.9365234375
184.9365234375
184.02099609375
196.83837890625
206.9091796875
215.14892578125
213.31787109375
223.388671875
226.13525390625
224.30419921875
238.95263671875
263.671875
274.658203125
275.57373046875
267.333984375
284.72900390625
293.88427734375
294.7998046875
296.630859375
296.630859375
313.1103515625
322.265625
323.18115234375
320.4345703125
320.4345703125
321.35009765625
326.84326171875
337.82958984375
352.47802734375
352.47802734375
353.3935546875
354.30908203125
339.66064453125
327.7587890625
329.58984375
312.19482421875
295.71533203125
280.1513671875
265.5029296875
262.75634765625
260.92529296875
245.361328125
235.29052734375
214.2333984375
200.50048828125
173.03466796875
159.3017578125
144.6533203125
122.6806640625
111.6943359375
118.10302734375
107.11669921875
95.21484375
81.48193359375
68.66455078125
52.18505859375
35.70556640625
21.97265625
19.22607421875
9.1552734375
10.986328125
6.40869140625
-1.8310546875
-2.74658203125
-4.57763671875
-18.310546875
-32.04345703125
-38.4521484375
-40.283203125
-44.86083984375
-32.04345703125
-23.8037109375
-31.1279296875
-42.1142578125
-47.607421875
-49.4384765625
-52.18505859375
-56.7626953125
-50.35400390625
-45.7763671875
-59.50927734375
-59.50927734375
-51.26953125
-52.18505859375
-43.02978515625
-46.69189453125
-51.26953125
-49.4384765625
-57.67822265625
-54.01611328125
-54.931640625
-51.26953125
-39.36767578125
-40.283203125
-26.55029296875
-24.71923828125
-35.70556640625
-40.283203125
-39.36767578125
-44.86083984375
-54.01611328125
-52.18505859375
-37.53662109375
-40.283203125
-43.9453125
-34.7900390625
-36.62109375
-39.36767578125
-40.283203125
-36.62109375
-40.283203125
-43.9453125
-45.7763671875
-47.607421875
-32.958984375
-39.36767578125
-50.35400390625
-67.7490234375
-58.59375
-43.9453125
-37.53662109375
-43.02978515625
-42.1142578125
-37.53662109375
-40.283203125
-40.283203125
-44.86083984375
-52.18505859375
-45.7763671875
-49.4384765625
-40.283203125
-35.70556640625
-31.1279296875
-23.8037109375
-31.1279296875
-35.70556640625
-34.7900390625
-24.71923828125
-37.53662109375
-42.1142578125
-39.36767578125
-39.36767578125
-43.02978515625
-41.19873046875
-41.19873046875
-37.53662109375
-35.70556640625
-39.36767578125
-47.607421875
-43.9453125
-43.02978515625
-46.69189453125
-54.01611328125
-52.18505859375
-43.9453125
-37.53662109375
-39.36767578125
-43.9453125
-44.86083984375
-33.87451171875
-36.62109375
-33.87451171875
-45.7763671875
-55.84716796875
-62.255859375
-64.0869140625
-67.7490234375
-64.0869140625
-49.4384765625
-43.02978515625
-47.607421875
-49.4384765625
-47.607421875
-42.1142578125
-46.69189453125
-65.91796875
-59.50927734375
-42.1142578125
-46.69189453125
-43.9453125
-48.52294921875
-52.18505859375
-54.931640625
-53.1005859375
-64.0869140625
-65.91796875
-62.255859375
-55.84716796875
-51.26953125
-50.35400390625
-51.26953125
-57.67822265625
-68.66455078125
-59.50927734375
-65.00244140625
-57.67822265625
-44.86083984375
-43.9453125
-55.84716796875
-54.931640625
-58.59375
-46.69189453125
-46.69189453125
-54.931640625
-59.50927734375
-66.83349609375
-70.49560546875
-57.67822265625
-49.4384765625
-52.18505859375
-48.52294921875
-48.52294921875
-44.86083984375
-50.35400390625
-51.26953125
-54.01611328125
-50.35400390625
-61.34033203125
-69.580078125
-70.49560546875
-65.00244140625
-65.00244140625
-61.34033203125
-67.7490234375
-65.91796875
-68.66455078125
-58.59375
-64.0869140625
-64.0869140625
-60.4248046875
-65.00244140625
-67.7490234375
-73.2421875
-65.00244140625
-50.35400390625
-51.26953125
-65.00244140625
-83.31298828125
-86.0595703125
-80.56640625
-73.2421875
-66.83349609375
-57.67822265625
-54.01611328125
-59.50927734375
-54.01611328125
-53.1005859375
-55.84716796875
-65.91796875
-65.00244140625
-63.17138671875
-53.1005859375
-47.607421875
-50.35400390625
-56.7626953125
-60.4248046875
-48.52294921875
-35.70556640625
-25.634765625
-25.634765625
-40.283203125
-35.70556640625
-33.87451171875
-29.296875
-29.296875
-26.55029296875
-32.04345703125
-30.21240234375
-20.1416015625
-19.22607421875
-31.1279296875
-26.55029296875
-16.4794921875
-20.1416015625
-21.97265625
-20.1416015625
-16.4794921875
-8.23974609375
-8.23974609375
-11.90185546875
-18.310546875
-1.8310546875
-2.74658203125
-10.986328125
-14.6484375
-12.8173828125
-16.4794921875
3.662109375
-7.32421875
-25.634765625
-29.296875
-12.8173828125
-22.88818359375
-30.21240234375
-32.958984375
-20.1416015625
-37.53662109375
-40.283203125
-34.7900390625
-44.86083984375
-50.35400390625
-62.255859375
-69.580078125
-64.0869140625
-50.35400390625
-54.931640625
-50.35400390625
-54.01611328125
-65.91796875
-59.50927734375
-58.59375
-62.255859375
-64.0869140625
-63.17138671875
-61.34033203125
-50.35400390625
-37.53662109375
-32.958984375
-33.87451171875
-39.36767578125
-56.7626953125
-56.7626953125
-56.7626953125
-58.59375
-60.4248046875
-54.01611328125
-46.69189453125
-54.931640625
-54.931640625
-49.4384765625
-49.4384765625
-48.52294921875
-52.18505859375
-45.7763671875
-28.38134765625
-44.86083984375
-57.67822265625
-54.01611328125
-65.91796875
-60.4248046875
-60.4248046875
-65.00244140625
-56.7626953125
-65.91796875
-81.48193359375
-91.552734375
-86.97509765625
-59.50927734375
-43.02978515625
-43.02978515625
-32.958984375
10.07080078125
65.91796875
129.08935546875
237.12158203125
351.5625
474.2431640625
596.00830078125
713.19580078125
801.08642578125
834.9609375
827.63671875
757.14111328125
629.8828125
474.2431640625
347.900390625
235.29052734375
130.0048828125
43.02978515625
2.74658203125
-21.05712890625
-52.18505859375
-80.56640625
-91.552734375
-81.48193359375
-73.2421875
-82.3974609375
-103.45458984375
-130.0048828125
-138.24462890625
-135.498046875
-135.498046875
-145.56884765625
-149.23095703125
-153.80859375
-123.59619140625
-95.21484375
-85.14404296875
-74.15771484375
-65.00244140625
-57.67822265625
-48.52294921875
-24.71923828125
-12.8173828125
-5.4931640625
9.1552734375
15.56396484375
18.310546875
16.4794921875
4.57763671875
12.8173828125
23.8037109375
9.1552734375
-8.23974609375
0
5.4931640625
1.8310546875
0
18.310546875
31.1279296875
26.55029296875
23.8037109375
27.4658203125
24.71923828125
21.97265625
29.296875
21.05712890625
15.56396484375
21.05712890625
23.8037109375
16.4794921875
9.1552734375
9.1552734375
10.07080078125
21.97265625
43.9453125
45.7763671875
36.62109375
33.87451171875
33.87451171875
40.283203125
47.607421875
41.19873046875
36.62109375
43.02978515625
53.1005859375
48.52294921875
49.4384765625
49.4384765625
51.26953125
61.34033203125
49.4384765625
45.7763671875
51.26953125
53.1005859375
58.59375
73.2421875
79.65087890625
76.904296875
70.49560546875
73.2421875
86.97509765625
85.14404296875
80.56640625
73.2421875
86.0595703125
94.29931640625
93.3837890625
95.21484375
98.876953125
104.3701171875
102.5390625
108.94775390625
120.849609375
130.92041015625
141.90673828125
142.822265625
145.56884765625
140.9912109375
134.58251953125
130.92041015625
123.59619140625
130.0048828125
140.07568359375
147.39990234375
159.3017578125
171.20361328125
176.69677734375
188.5986328125
195.00732421875
200.50048828125
210.5712890625
203.2470703125
209.65576171875
223.388671875
225.2197265625
241.69921875
243.5302734375
240.78369140625
253.60107421875
269.1650390625
274.658203125
277.40478515625
284.72900390625
292.05322265625
303.03955078125
313.1103515625
305.7861328125
311.279296875
322.265625
330.50537109375
345.15380859375
350.64697265625
350.64697265625
347.900390625
346.98486328125
337.82958984375
335.0830078125
325.927734375
334.16748046875
319.51904296875
299.37744140625
277.40478515625
278.3203125
272.8271484375
265.5029296875
253.60107421875
229.79736328125
216.064453125
212.40234375
197.75390625
174.86572265625
154.72412109375
145.56884765625
132.75146484375
119.93408203125
108.0322265625
105.28564453125
102.5390625
79.65087890625
65.00244140625
41.19873046875
41.19873046875
31.1279296875
19.22607421875
21.05712890625
23.8037109375
10.07080078125
-8.23974609375
-21.05712890625
-30.21240234375
-27.4658203125
-20.1416015625
-20.1416015625
-27.4658203125
-13.73291015625
-15.56396484375
-27.4658203125
-32.958984375
-36.62109375
-43.02978515625
-39.36767578125
-45.7763671875
-46.69189453125
-45.7763671875
-51.26953125
-58.59375
-51.26953125
-59.50927734375
-65.00244140625
-48.52294921875
-53.1005859375
-67.7490234375
-65.91796875
-61.34033203125
-57.67822265625
-54.01611328125
-38.4521484375
-32.958984375
-40.283203125
-43.02978515625
-49.4384765625
-51.26953125
-52.18505859375
-45.7763671875
-38.4521484375
-33.87451171875
-49.4384765625
-46.69189453125
-42.1142578125
-43.02978515625
-39.36767578125
-26.55029296875
-29.296875
-37.53662109375
-42.1142578125
-52.18505859375
-43.02978515625
-41.19873046875
-35.70556640625
-43.02978515625
-46.69189453125
-44.86083984375
-44.86083984375
-51.26953125
-50.35400390625
-58.59375
-56.7626953125
-43.9453125
-32.04345703125
-26.55029296875
-27.4658203125
-30.21240234375
-39.36767578125
-38.4521484375
-33.87451171875
-42.1142578125
-42.1142578125
-45.7763671875
-42.1142578125
-54.931640625
-60.4248046875
-43.02978515625
-43.9453125
-43.02978515625
-41.19873046875
-34.7900390625
-41.19873046875
-36.62109375
-50.35400390625
-48.52294921875
-34.7900390625
-44.86083984375
-45.7763671875
-39.36767578125
-43.02978515625
-51.26953125
-40.283203125
-43.9453125
-50.35400390625
-41.19873046875
-43.9453125
-41.19873046875
-46.69189453125
-50.35400390625
-43.02978515625
-58.59375
-60.4248046875
-55.84716796875
-48.52294921875
-46.69189453125
-49.4384765625
-47.607421875
-57.67822265625
-59.50927734375
-56.7626953125
-53.1005859375
-50.35400390625
-49.4384765625
-51.26953125
-58.59375
-51.26953125
-62.255859375
-54.931640625
-56.7626953125
-48.52294921875
-46.69189453125
-59.50927734375
-54.931640625
-64.0869140625
-65.00244140625
-68.66455078125
-67.7490234375
-66.83349609375
-48.52294921875
-47.607421875
-57.67822265625
-60.4248046875
-67.7490234375
-71.4111328125
-62.255859375
-61.34033203125
-59.50927734375
-48.52294921875
-58.59375
-66.83349609375
-65.91796875
-53.1005859375
-42.1142578125
-43.9453125
-50.35400390625
-49.4384765625
-54.931640625
-72.32666015625
-71.4111328125
-66.83349609375
-66.83349609375
-65.91796875
-64.0869140625
-55.84716796875
-63.17138671875
-59.50927734375
-58.59375
-61.34033203125
-54.01611328125
-51.26953125
-51.26953125
-61.34033203125
-62.255859375
-55.84716796875
-60.4248046875
-62.255859375
-42.1142578125
-52.18505859375
-54.931640625
-58.59375
-63.17138671875
-62.255859375
-65.91796875
-66.83349609375
-62.255859375
-65.91796875
-69.580078125
-63.17138671875
-65.91796875
-70.49560546875
-74.15771484375
-68.66455078125
-66.83349609375
-66.83349609375
-70.49560546875
-77.81982421875
-68.66455078125
-62.255859375
-45.7763671875
-32.958984375
-22.88818359375
-35.70556640625
-42.1142578125
-34.7900390625
-34.7900390625
-26.55029296875
-27.4658203125
-40.283203125
-32.04345703125
-35.70556640625
-32.04345703125
-25.634765625
-31.1279296875
-34.7900390625
-31.1279296875
-16.4794921875
-5.4931640625
-3.662109375
-15.56396484375
-14.6484375
1.8310546875
11.90185546875
18.310546875
2.74658203125
-8.23974609375
-2.74658203125
0.91552734375
-7.32421875
-7.32421875
0.91552734375
3.662109375
-7.32421875
-15.56396484375
-16.4794921875
-19.22607421875
-16.4794921875
-11.90185546875
-32.958984375
-46.69189453125
-45.7763671875
-47.607421875
-53.1005859375
-45.7763671875
-47.607421875
-66.83349609375
-61.34033203125
-55.84716796875
-59.50927734375
-48.52294921875
-32.958984375
-35.70556640625
-36.62109375
-32.958984375
-40.283203125
-47.607421875
-54.01611328125
-46.69189453125
-46.69189453125
-57.67822265625
-62.255859375
-52.18505859375
-59.50927734375
-51.26953125
-43.02978515625
-36.62109375
-50.35400390625
-52.18505859375
-60.4248046875
-71.4111328125
-59.50927734375
-48.52294921875
-48.52294921875
-45.7763671875
-59.50927734375
-53.1005859375
-49.4384765625
-42.1142578125
-54.931640625
-61.34033203125
-77.81982421875
-77.81982421875
-64.0869140625
-58.59375
-55.84716796875
-58.59375
-58.59375
-67.7490234375
-79.65087890625
-84.228515625
-78.7353515625
-71.4111328125
-42.1142578125
-34.7900390625
-27.4658203125
23.8037109375
78.7353515625
155.6396484375
257.26318359375
373.53515625
506.28662109375
629.8828125
757.14111328125
850.52490234375
882.568359375
867.00439453125
783.69140625
651.85546875
492.5537109375
375.3662109375
268.24951171875
143.73779296875
38.4521484375
-20.1416015625
-52.18505859375
-67.7490234375
-88.80615234375
-94.29931640625
-107.11669921875
-117.1875
-140.07568359375
-151.06201171875
-140.07568359375
-135.498046875
-128.173828125
-142.822265625
-136.41357421875
-139.16015625
-119.93408203125
-105.28564453125
-93.3837890625
-81.48193359375
-61.34033203125
-44.86083984375
-20.1416015625
-8.23974609375
-11.90185546875
-1.8310546875
10.986328125
13.73291015625
12.8173828125
21.05712890625
29.296875
16.4794921875
18.310546875
13.73291015625
5.4931640625
11.90185546875
11.90185546875
18.310546875
29.296875
37.53662109375
36.62109375
28.38134765625
21.05712890625
14.6484375
8.23974609375
-2.74658203125
2.74658203125
19.22607421875
42.1142578125
38.4521484375
33.87451171875
32.04345703125
32.04345703125
26.55029296875
25.634765625
36.62109375
37.53662109375
48.52294921875
53.1005859375
49.4384765625
48.52294921875
43.02978515625
47.607421875
55.84716796875
53.1005859375
50.35400390625
71.4111328125
59.50927734375
46.69189453125
53.1005859375
60.4248046875
74.15771484375
73.2421875
65.91796875
67.7490234375
78.7353515625
74.15771484375
75.0732421875
72.32666015625
67.7490234375
73.2421875
79.65087890625
75.98876953125
80.56640625
89.7216796875
97.96142578125
102.5390625
90.63720703125
95.21484375
97.0458984375
107.11669921875
118.10302734375
110.77880859375
115.3564453125
130.0048828125
119.0185546875
110.77880859375
118.10302734375
122.6806640625
115.3564453125
119.93408203125
125.42724609375
133.6669921875
144.6533203125
156.55517578125
165.71044921875
173.9501953125
177.6123046875
181.2744140625
190.4296875
196.83837890625
206.9091796875
207.82470703125
222.47314453125
222.47314453125
228.8818359375
237.12158203125
234.375
252.685546875
278.3203125
282.89794921875
282.89794921875
284.72900390625
291.1376953125
300.29296875
306.70166015625
314.02587890625
323.18115234375
321.35009765625
321.35009765625
328.67431640625
333.251953125
340.576171875
344.23828125
339.66064453125
346.0693359375
345.15380859375
349.7314453125
346.98486328125
354.30908203125
358.88671875
351.5625
338.7451171875
331.4208984375
314.02587890625
285.64453125
281.982421875
273.74267578125
270.08056640625
243.5302734375
211.48681640625
186.767578125
191.34521484375
191.34521484375
173.03466796875
146.484375
137.3291015625
120.849609375
105.28564453125
89.7216796875
85.14404296875
83.31298828125
66.83349609375
58.59375
32.958984375
18.310546875
15.56396484375
22.88818359375
21.97265625
15.56396484375
17.39501953125
13.73291015625
0
-14.6484375
-18.310546875
-28.38134765625
-37.53662109375
-34.7900390625
-22.88818359375
-21.05712890625
-13.73291015625
-20.1416015625
-40.283203125
-49.4384765625
-41.19873046875
-40.283203125
-40.283203125
-34.7900390625
-39.36767578125
-33.87451171875
-37.53662109375
-35.70556640625
-45.7763671875
-43.9453125
-30.21240234375
-39.36767578125
-43.02978515625
-53.1005859375
-40.283203125
-44.86083984375
-45.7763671875
-43.9453125
-47.607421875
-56.7626953125
-62.255859375
-55.84716796875
-60.4248046875
-39.36767578125
-32.958984375
-44.86083984375
-49.4384765625
-49.4384765625
-41.19873046875
-34.7900390625
-35.70556640625
-45.7763671875
-46.69189453125
-44.86083984375
-31.1279296875
-36.62109375
-35.70556640625
-27.4658203125
-38.4521484375
-44.86083984375
-44.86083984375
-46.69189453125
-40.283203125
-27.4658203125
-15.56396484375
-14.6484375
-37.53662109375
-43.9453125
-32.04345703125
-23.8037109375
-32.04345703125
-34.7900390625
-31.1279296875
-23.8037109375
-25.634765625
-32.958984375
-35.70556640625
-46.69189453125
-39.36767578125
-36.62109375
-41.19873046875
-36.62109375
-31.1279296875
-40.283203125
-39.36767578125
-31.1279296875
-39.36767578125
-50.35400390625
-65.91796875
-48.52294921875
-40.283203125
-44.86083984375
-41.19873046875
-40.283203125
-39.36767578125
-39.36767578125
-40.283203125
-32.958984375
-33.87451171875
-42.1142578125
-46.69189453125
-39.36767578125
-45.7763671875
-53.1005859375
-53.1005859375
-41.19873046875
-29.296875
-34.7900390625
-46.69189453125
-49.4384765625
-50.35400390625
-58.59375
-69.580078125
-65.91796875
-65.91796875
-65.91796875
-47.607421875
-43.9453125
-38.4521484375
-36.62109375
-37.53662109375
-49.4384765625
-65.00244140625
-66.83349609375
-55.84716796875
-45.7763671875
-54.01611328125
-56.7626953125
-56.7626953125
-56.7626953125
-53.1005859375
-67.7490234375
-62.255859375
-56.7626953125
-46.69189453125
-42.1142578125
-54.931640625
-49.4384765625
-41.19873046875
-48.52294921875
-63.17138671875
-70.49560546875
-75.0732421875
-61.34033203125
-51.26953125
-48.52294921875
-56.7626953125
-63.17138671875
-55.84716796875
-52.18505859375
-54.01611328125
-71.4111328125
-75.98876953125
-64.0869140625
-69.580078125
-65.00244140625
-66.83349609375
-54.01611328125
-52.18505859375
-52.18505859375
-68.66455078125
-77.81982421875
-75.98876953125
-60.4248046875
-53.1005859375
-45.7763671875
-44.86083984375
-63.17138671875
-65.00244140625
-76.904296875
-72.32666015625
-67.7490234375
-73.2421875
-68.66455078125
-75.0732421875
-78.7353515625
-76.904296875
-70.49560546875
-67.7490234375
-54.01611328125
-51.26953125
-57.67822265625
-71.4111328125
-72.32666015625
-60.4248046875
-67.7490234375
-65.00244140625
-65.00244140625
-61.34033203125
-61.34033203125
-70.49560546875
-67.7490234375
-63.17138671875
-54.01611328125
-69.580078125
-65.00244140625
-61.34033203125
-60.4248046875
-62.255859375
-60.4248046875
-61.34033203125
-60.4248046875
-72.32666015625
-72.32666015625
-65.91796875
-65.00244140625
-71.4111328125
-59.50927734375
-42.1142578125
-40.283203125
-32.958984375
-34.7900390625
-38.4521484375
-33.87451171875
-24.71923828125
-28.38134765625
-47.607421875
-43.02978515625
-46.69189453125
-48.52294921875
-45.7763671875
-44.86083984375
-41.19873046875
-41.19873046875
-43.9453125
-43.9453125
-22.88818359375
-39.36767578125
-41.19873046875
-11.90185546875
1.8310546875
-10.986328125
-18.310546875
-14.6484375
-14.6484375
-11.90185546875
-6.40869140625
-14.6484375
-16.4794921875
-19.22607421875
-16.4794921875
-12.8173828125
7.32421875
4.57763671875
-10.07080078125
-13.73291015625
-14.6484375
-16.4794921875
-18.310546875
-36.62109375
-44.86083984375
-54.931640625
-52.18505859375
-54.01611328125
-50.35400390625
-57.67822265625
-55.84716796875
-59.50927734375
-48.52294921875
-55.84716796875
-63.17138671875
-75.0732421875
-75.98876953125
-65.00244140625
-53.1005859375
-66.83349609375
-61.34033203125
-61.34033203125
-74.15771484375
-78.7353515625
-89.7216796875
-87.890625
-83.31298828125
-66.83349609375
-62.255859375
-69.580078125
-72.32666015625
-65.91796875
-67.7490234375
-65.91796875
-60.4248046875
-63.17138671875
-68.66455078125
-75.0732421875
-78.7353515625
-83.31298828125
-72.32666015625
-73.2421875
-79.65087890625
-77.81982421875
-74.15771484375
-65.00244140625
-74.15771484375
-69.580078125
-75.0732421875
-74.15771484375
-75.98876953125
-97.0458984375
-85.14404296875
-73.2421875
-65.91796875
-53.1005859375
-33.87451171875
-15.56396484375
16.4794921875
79.65087890625
182.18994140625
303.955078125
407.40966796875
530.09033203125
648.193359375
762.63427734375
834.9609375
838.623046875
821.22802734375
737.9150390625
606.0791015625
460.51025390625
336.9140625
219.7265625
102.5390625
13.73291015625
-37.53662109375
-79.65087890625
-108.0322265625
-110.77880859375
-109.86328125
-108.94775390625
-134.58251953125
-151.06201171875
-163.87939453125
-174.86572265625
-170.2880859375
-160.21728515625
-163.87939453125
-164.794921875
-153.80859375
-133.6669921875
-119.0185546875
-97.0458984375
-79.65087890625
-64.0869140625
-58.59375
-44.86083984375
-28.38134765625
-25.634765625
-19.22607421875
-16.4794921875
-4.57763671875
-7.32421875
8.23974609375
18.310546875
15.56396484375
17.39501953125
10.07080078125
-6.40869140625
-16.4794921875
-21.05712890625
-6.40869140625
10.07080078125
7.32421875
4.57763671875
5.4931640625
11.90185546875
26.55029296875
26.55029296875
23.8037109375
26.55029296875
17.39501953125
15.56396484375
21.05712890625
19.22607421875
29.296875
27.4658203125
18.310546875
23.8037109375
15.56396484375
9.1552734375
14.6484375
21.97265625
18.310546875
19.22607421875
21.97265625
15.56396484375
20.1416015625
37.53662109375
43.9453125
43.02978515625
48.52294921875
40.283203125
30.21240234375
25.634765625
30.21240234375
35.70556640625
57.67822265625
63.17138671875
54.931640625
67.7490234375
56.7626953125
38.4521484375
29.296875
40.283203125
52.18505859375
68.66455078125
75.0732421875
71.4111328125
67.7490234375
75.98876953125
79.65087890625
81.48193359375
88.80615234375
84.228515625
86.0595703125
87.890625
79.65087890625
89.7216796875
105.28564453125
121.76513671875
124.51171875
113.525390625
119.93408203125
128.173828125
133.6669921875
139.16015625
140.07568359375
139.16015625
145.56884765625
147.39990234375
149.23095703125
157.470703125
164.794921875
168.45703125
179.443359375
184.9365234375
189.51416015625
203.2470703125
209.65576171875
202.33154296875
214.2333984375
231.62841796875
241.69921875
238.95263671875
239.8681640625
265.5029296875
277.40478515625
281.982421875
303.03955078125
311.279296875
302.1240234375
302.1240234375
314.94140625
318.603515625
314.94140625
314.02587890625
320.4345703125
327.7587890625
338.7451171875
334.16748046875
333.251953125
333.251953125
346.98486328125
352.47802734375
340.576171875
318.603515625
314.02587890625
298.4619140625
273.74267578125
265.5029296875
251.77001953125
235.29052734375
228.8818359375
199.5849609375
185.85205078125
171.20361328125
152.89306640625
126.3427734375
108.0322265625
109.86328125
114.44091796875
97.0458984375
81.48193359375
61.34033203125
50.35400390625
29.296875
19.22607421875
31.1279296875
18.310546875
8.23974609375
11.90185546875
5.4931640625
3.662109375
1.8310546875
0
-10.986328125
-24.71923828125
-42.1142578125
-53.1005859375
-45.7763671875
-30.21240234375
-27.4658203125
-42.1142578125
-51.26953125
-67.7490234375
-81.48193359375
-73.2421875
-48.52294921875
-36.62109375
-44.86083984375
-65.00244140625
-78.7353515625
-67.7490234375
-51.26953125
-47.607421875
-48.52294921875
-60.4248046875
-58.59375
-54.01611328125
-57.67822265625
-61.34033203125
-56.7626953125
-56.7626953125
-54.01611328125
-59.50927734375
-52.18505859375
-64.0869140625
-66.83349609375
-65.91796875
-65.00244140625
-56.7626953125
-55.84716796875
-59.50927734375
-68.66455078125
-58.59375
-61.34033203125
-62.255859375
-49.4384765625
-47.607421875
-63.17138671875
-73.2421875
-67.7490234375
-71.4111328125
-68.66455078125
-52.18505859375
-50.35400390625
-44.86083984375
-54.01611328125
-55.84716796875
-45.7763671875
-56.7626953125
-62.255859375
-65.00244140625
-53.1005859375
-46.69189453125
-44.86083984375
-39.36767578125
-40.283203125
-45.7763671875
-52.18505859375
-52.18505859375
-46.69189453125
-39.36767578125
-43.9453125
-50.35400390625
-51.26953125
-53.1005859375
-64.0869140625
-49.4384765625
-37.53662109375
-41.19873046875
-43.02978515625
-35.70556640625
-36.62109375
-43.9453125
-60.4248046875
-51.26953125
-54.931640625
-59.50927734375
-56.7626953125
-54.931640625
-49.4384765625
-54.931640625
-54.931640625
-57.67822265625
-58.59375
-63.17138671875
-72.32666015625
-75.0732421875
-73.2421875
-59.50927734375
-65.91796875
-72.32666015625
-69.580078125
-46.69189453125
-40.283203125
-37.53662109375
-38.4521484375
-38.4521484375
-52.18505859375
-64.0869140625
-66.83349609375
-71.4111328125
-73.2421875
-57.67822265625
-44.86083984375
-54.01611328125
-62.255859375
-57.67822265625
-68.66455078125
-84.228515625
-83.31298828125
-66.83349609375
-45.7763671875
-47.607421875
-54.01611328125
-55.84716796875
-58.59375
-69.580078125
-60.4248046875
-58.59375
